# k  (h/Mpc)    Pcb(k)  (Mpc/h)^3    Pcb_linear(k)  (Mpc/h)^3
     0.00783031         5864.67          5896.6 
       0.013688         7406.59         7544.16 
       0.019231         7761.63         7838.11 
      0.0249154         7430.57         7423.77 
      0.0312784         6568.45         6608.58 
      0.0375637         5726.91         5792.64 
      0.0433917         5161.91         5177.71 
      0.0492413          4676.4         4722.81 
      0.0555754         4349.26         4367.29 
      0.0619321         3969.58         4076.03 
       0.067871         3745.31         3802.23 
      0.0738098         3462.75         3498.83 
      0.0800417         3135.07         3154.65 
      0.0862327         2791.44         2816.74 
      0.0921407         2513.73         2529.69 
      0.0982031         2299.56         2291.72 
       0.104506         2090.39          2108.8 
       0.110769         1965.89         1979.36 
       0.116806         1895.26         1883.07 
       0.122832         1783.78         1793.87 
       0.129052         1691.12         1693.61 
       0.135211         1603.64         1581.07 
       0.141259         1474.83         1462.54 
       0.147318         1348.54         1345.99 
       0.153489         1260.35         1239.97 
       0.159709         1195.33         1152.59 
       0.165845         1102.71         1086.29 
       0.171974         1080.23         1035.71 
       0.178125         1041.36         993.833 
       0.184229         976.478         954.253 
        0.19034         950.756         911.841 
       0.196428         911.891         865.269 
       0.202534         847.517          815.71 
       0.208729         821.705         765.878 
       0.214876          784.43         720.392 
       0.220989         732.373         681.383 
       0.227147         716.557         648.926 
        0.23329         691.455         622.295 
       0.239377          677.92         599.519 
       0.245482         645.695         578.069 
       0.251667         620.198         556.016 
       0.257832         611.764         532.943 
       0.263955         577.257         509.229 
       0.270079         556.067         485.612 
        0.27624           531.2         463.096 
       0.282372         517.889          442.78 
        0.28843         513.492         425.084 
       0.294538         488.732         409.467 
       0.300721         472.446         395.324 
        0.30691         465.276         382.124 
       0.313033         446.006         369.359 
       0.319153         438.219         356.565 
       0.325316         426.919         343.577 
        0.33145          416.23         330.787 
       0.337538         401.683         318.527 
       0.343633          389.25         306.999 
       0.349808         378.863         296.237 
       0.355968          370.88         286.425 
       0.362074         361.366         277.473 
       0.368217         356.573         269.013 
       0.374374         348.919         260.878 
       0.380519         334.983         252.933 
       0.386598         329.771         245.188 
       0.392688         322.038         237.576 
        0.39888         314.409         230.052 
       0.405048         308.623         222.881 
       0.411186         305.609         216.131 
       0.417313         299.599         209.784 
       0.423458         291.571           203.8 
       0.429607         285.221         198.125 
       0.435692          280.07         192.743 
       0.441815         274.732         187.504 
       0.447964         267.377         182.389 
       0.454126         263.291         177.389 
       0.460267          260.23         172.548 
       0.466387         255.202         167.892 
        0.47254          252.07         163.396 
       0.478662         244.614         159.114 
       0.484765         241.733         155.036 
       0.490885         238.259         151.126 
       0.497035         235.526         147.349 
       0.503198         232.273         143.693 
       0.509342         226.164         140.162 
       0.515458         223.707         136.752 
       0.521598         218.648         133.428 
       0.527764         216.275         130.191 
       0.533884         215.668         127.083 
           0.54          210.52         124.086 
       0.546137         205.859         121.188 
       0.552299         204.264         118.383 
       0.558452          200.71         115.679 
       0.564573         199.547         113.074 
       0.570708         194.969         110.544 
       0.576825         192.402         108.098 
       0.582926         190.389          105.73 
       0.589034         187.797         103.428 
       0.595184         186.283         101.177 
       0.601379         182.142         98.9776 
       0.607522         179.277         96.8633 
       0.613639         177.892         94.8235 
       0.619772         175.848         92.8417 
       0.625918         174.431         90.9158 
       0.632068         170.674          89.045 
       0.638161         168.697         87.2436 
         0.6443         167.996         85.4783 
       0.650464         164.864         83.7546 
       0.656582         164.091         82.0906 
       0.662703          162.35         80.4717 
       0.668861         159.118         78.8882 
       0.675024         159.174         77.3474 
       0.681124         156.616         75.8647 
       0.687237         154.247         74.4189 
       0.693381          153.43         73.0049 
       0.699536         151.456         71.6255 
       0.705665         149.484         70.2881 
       0.711789         147.721         68.9862 
       0.717957         146.211         67.7086 
        0.72409         145.188         66.4707 
       0.730186         144.596         65.2716 
       0.736317         142.102          64.096 
       0.742472         140.377         62.9455 
       0.748622         138.309         61.8248 
        0.75476          138.38         60.7342 
       0.760888         137.223          59.672 
       0.767043         134.874         58.6314 
       0.773185         133.414         57.6181 
       0.779291         131.958         56.6348 
       0.785407         130.672         55.6733 
       0.791564         130.185         54.7283 
       0.797719         128.605         53.8059 
       0.803834         127.978         52.9109 
       0.809972         127.189         52.0333 
       0.816124         125.516          51.174 
       0.822261         124.145         50.3366 
       0.828378         123.927         49.5207 
       0.834502         121.902         48.7225 
       0.840667         121.412          47.937 
       0.846816         120.339         47.1712 
       0.852925         119.066         46.4272 
       0.859047         118.376         45.6979 
       0.865192         117.104         44.9821 
       0.871341         115.852         44.2814 
       0.877463         115.121          43.599 
       0.883569         114.912         42.9328 
       0.889708         113.917         42.2774 
       0.895864         112.846         41.6341 
       0.902008         111.863         41.0057 
       0.908149          110.47         40.3908 
       0.914301         110.444         39.7877 
       0.920448         109.809         39.1976 
       0.926574         107.834         38.6216 
       0.932687         107.678         38.0586 
       0.938823         106.791          37.505 
       0.944975         105.585         36.9611 
       0.951105         104.822         36.4302 
       0.957225         104.778         35.9106 
       0.963368         103.527         35.3996 
       0.969511         102.679         34.8986 
       0.975621         101.932         34.4101 
       0.981748         101.043         33.9297 
       0.987916          100.42         33.4557 
        0.99406         99.9995         32.9925 
        1.00019         98.8318         32.5391 
        1.00632         98.3046         32.0948 
        1.01246         97.6234         31.6581 
        1.01859         97.2008         31.2304 
        1.02471         96.2556         30.8111 
        1.03085         95.4839         30.3982 
        1.03698         94.9531         29.9939 
        1.04314         94.2688         29.5952 
        1.04929         93.8502         29.2048 
        1.05541         93.1904         28.8231 
        1.06154          92.645         28.4473 
        1.06769         91.7216         28.0777 
        1.07382         91.0218          27.716 
        1.07993         90.7548         27.3616 
        1.08607         89.9793          27.012 
        1.09222         89.7478         26.6681 
        1.09836         88.8082         26.3308 
        1.10449         88.3594         25.9997 
        1.11063         87.6722          25.674 
        1.11677         87.2768         25.3541 
         1.1229         86.5193         25.0402 
        1.12903         86.3013         24.7315 
        1.13518         85.9486         24.4277 
        1.14131         85.1877         24.1293 
        1.14745         84.4998          23.836 
        1.15359         83.6586         23.5476 
        1.15973         83.5826          23.264 
        1.16584         82.9925         22.9863 
        1.17197         82.2967         22.7127 
        1.17811         81.8702         22.4429 
        1.18424         81.0796         22.1782 
        1.19038         81.0523         21.9171 
        1.19652         80.5683         21.6603 
        1.20267          79.927         21.4077 
        1.20881         79.4351         21.1592 
        1.21495         79.0852          20.915 
        1.22108         78.6992         20.6748 
         1.2272         77.9773          20.439 
        1.23334         77.6858         20.2063 
        1.23949         77.2099         19.9767 
        1.24562         76.6291         19.7513 
        1.25174         76.1716         19.5298 
        1.25789         76.2255         19.3111 
        1.26402         75.4863         19.0961 
        1.27014         75.1472         18.8849 
        1.27628         74.4672         18.6763 
        1.28244         74.2626         18.4705 
        1.28858         73.8327         18.2681 
        1.29471         73.4532         18.0693 
        1.30084         72.7815         17.8735 
        1.30697         72.8182         17.6805 
        1.31312         72.1464           17.49 
        1.31925         71.6698         17.3029 
        1.32537         71.3244         17.1188 
        1.33151          71.054         16.9367 
        1.33765         70.5627         16.7575 
        1.34378         70.3371         16.5812 
        1.34992         69.8877         16.4073 
        1.35606         69.4108         16.2355 
         1.3622         69.0896         16.0666 
        1.36833         68.6316         15.9005 
        1.37445         68.0916         15.7368 
        1.38059         68.0191          15.575 
        1.38675         67.2893          15.415 
        1.39288         67.3104          15.258 
        1.39901         66.7002         15.1032 
        1.40515         66.4734         14.9503 
         1.4113            66.3         14.7995 
        1.41742         65.8789         14.6514 
        1.42355         65.3977         14.5051 
         1.4297         65.0747         14.3604 
        1.43585           64.63         14.2177 
        1.44198         64.2832         14.0775 
        1.44809         63.9432         13.9394 
        1.45423         63.6747         13.8027 
        1.46036         63.2955         13.6681 
        1.46649         63.1775         13.5353 
        1.47263         62.7399         13.4041 
        1.47877         62.4945         13.2748 
        1.48491         62.2008         13.1469 
        1.49104         61.6528         13.0211 
        1.49718         61.4301         12.8968 
        1.50333         61.1768         12.7739 
        1.50947         60.8297         12.6529 
         1.5156         60.5712         12.5336 
        1.52172         60.1566         12.4159 
        1.52787         59.8225         12.2995 
          1.534         59.6179         12.1848 
        1.54013         59.4055         12.0716 
        1.54627         58.8655         11.9597 
        1.55241         58.5798         11.8491 
        1.55855         58.4768         11.7402 
        1.56467         58.0058         11.6329 
         1.5708         57.8902         11.5267 
        1.57695         57.5471         11.4216 
        1.58308         57.1486         11.3181 
        1.58922          56.918         11.2159 
        1.59535         56.7368         11.1149 
         1.6015         56.6511         11.0151 
        1.60764         56.2265         10.9165 
        1.61376         55.8758         10.8194 
        1.61989         55.5277         10.7234 
        1.62604         55.3209         10.6284 
        1.63218         55.0477         10.5346 
        1.63831         54.8923         10.4422 
        1.64444         54.5402         10.3509 
        1.65059         54.3584         10.2604 
        1.65673         53.9355         10.1711 
        1.66285         53.8638         10.0831 
        1.66898         53.3112         9.99618 
        1.67512         53.2469         9.91009 
        1.68127         52.9661         9.82495 
         1.6874         52.6692           9.741 
        1.69353         52.5256         9.65808 
        1.69967         52.3158         9.57594 
        1.70581         51.9126          9.4948 
        1.71193         51.6876         9.41491 
        1.71806         51.4798         9.33578 
        1.72421         51.2574          9.2574 
        1.73035         51.0002         9.18002 
        1.73649         50.6592         9.10354 
        1.74262         50.3319         9.02801 
        1.74876         50.2132         8.95328 
        1.75489         49.9195         8.87957 
        1.76101         49.7085         8.80671 
        1.76715         49.6705         8.73457 
        1.77329         49.1577         8.66315 
        1.77943         49.1746         8.59251 
        1.78557         48.9098         8.52277 
        1.79171          48.647         8.45379 
        1.79785         48.3903         8.38557 
        1.80399         48.1567         8.31812 
        1.81012         47.9893         8.25151 
        1.81625         47.6212         8.18566 
        1.82239         47.4452         8.12043 
        1.82853         47.3166         8.05595 
        1.83466         47.0093         7.99224 
        1.84078         46.8013         7.92929 
        1.84692         46.5552         7.86692 
        1.85306         46.3224         7.80515 
         1.8592         46.2086         7.74414 
        1.86533          45.965         7.68383 
        1.87147          45.727         7.62409 
        1.87761         45.4443         7.56496 
        1.88375         45.3742         7.50654 
        1.88988          45.141         7.44879 
        1.89601         44.8647         7.39163 
        1.90215         44.7066         7.33503 
        1.90829         44.4709         7.27905 
        1.91442         44.2497         7.22365 
        1.92056         44.0524         7.16888 
         1.9267           43.94         7.11462 
        1.93284         43.6433          7.0609 
        1.93897         43.5391         7.00783 
        1.94509          43.228         6.95543 
        1.95123          43.075         6.90344 
        1.95737         42.7976         6.85194 
        1.96349         42.6883          6.8011 
        1.96964         42.5142         6.75063 
        1.97578         42.3002         6.70066 
        1.98192         42.0936          6.6513 
        1.98805         41.8671         6.60243 
        1.99419         41.7489         6.55405 
        2.00033         41.5582         6.50614 
        2.00647         41.4164         6.45872 
         2.0126         41.1624         6.41186 
        2.01874         40.9246         6.36539 
        2.02488         40.7756         6.31935 
        2.03101         40.5725         6.27385 
        2.03714           40.41         6.22884 
        2.04328         40.2653         6.18422 
        2.04941         40.0352         6.14008 
        2.05554         39.9172         6.09641 
        2.06167         39.7079          6.0531 
        2.06781         39.5337         6.01021 
        2.07396         39.3782         5.96768 
        2.08009         39.2152         5.92563 
        2.08622         38.9937         5.88404 
        2.09237         38.8542         5.84277 
        2.09851         38.6273         5.80189 
        2.10464          38.421         5.76147 
        2.11077         38.3391         5.72149 
        2.11691          38.103          5.6818 
        2.12305         37.9359         5.64248 
        2.12918         37.7878         5.60364 
        2.13531         37.6339         5.56516 
        2.14145         37.4823         5.52695 
         2.1476         37.2435         5.48906 
        2.15372         37.1677         5.45172 
        2.15985         36.9306         5.41469 
        2.16599          36.757          5.3779 
        2.17213         36.6262          5.3415 
        2.17827         36.4419         5.30544 
         2.1844         36.2966         5.26974 
        2.19054         36.1356         5.23437 
        2.19666         35.9324         5.19937 
         2.2028          35.844         5.16466 
        2.20893         35.6575         5.13026 
        2.21508         35.5374         5.09613 
        2.22122         35.3216          5.0623 
        2.22736         35.1351         5.02885 
        2.23349         34.9938         4.99571 
        2.23962         34.9032         4.96285 
        2.24577         34.7508         4.93026 
         2.2519         34.5636         4.89802 
        2.25802         34.4168         4.86611 
        2.26417         34.2281          4.8344 
        2.27031          34.164         4.80294 
        2.27644         34.0415         4.77186 
        2.28257         33.8058         4.74106 
        2.28872         33.7213         4.71047 
        2.29486         33.5284         4.68016 
        2.30099         33.3451         4.65017 
        2.30712         33.2607         4.62044 
        2.31326          33.093         4.59092 
         2.3194         32.9678         4.56168 
        2.32553         32.8222         4.53274 
        2.33166          32.673         4.50407 
         2.3378         32.5872         4.47561 
        2.34394         32.3773         4.44738 
        2.35007         32.2929         4.41944 
        2.35619         32.1466         4.39178 
        2.36233         31.9683         4.36429 
        2.36848         31.8297         4.33697 
        2.37462         31.7455         4.30995 
        2.38075         31.5684         4.28319 
        2.38689         31.4084         4.25663 
        2.39303         31.4003          4.2303 
        2.39916         31.1298         4.20423 
        2.40529         30.9669         4.17838 
        2.41143         30.9248         4.15272 
        2.41757         30.7566         4.12727 
         2.4237         30.6398         4.10209 
        2.42983         30.5223         4.07711 
        2.43598         30.3895         4.05228 
        2.44211         30.2707          4.0277 
        2.44823           30.08         4.00338 
        2.45437         30.0519         3.97919 
        2.46052          29.858         3.95519 
        2.46665         29.7218         3.93142 
        2.47279         29.5338         3.90786 
        2.47892           29.49         3.88448 
        2.48507          29.353         3.86127 
         2.4912         29.2781         3.83829 
