# k  (h/Mpc)    P(k)  (Mpc/h)^3    P_linear(k)  (Mpc/h)^3
     0.00783031         12832.3         13054.1 
       0.013688         16689.8         16588.9 
       0.019231         17150.2         17160.5 
      0.0249154         15833.5         16189.6 
      0.0312784         14144.4         14335.3 
      0.0375637         12428.6         12477.4 
      0.0433917           10827         11068.8 
      0.0492413          9902.1         10025.8 
      0.0555754         8896.29         9225.84 
      0.0619321         8549.75         8602.85 
       0.067871         7767.09         8044.17 
      0.0738098         7172.74         7431.35 
      0.0800417         6415.38         6723.37 
      0.0862327         5813.17         6006.05 
      0.0921407         5301.22         5375.49 
      0.0982031         4752.29         4835.61 
       0.104506         4469.37         4410.49 
       0.110769         4154.87         4110.71 
       0.116806         3918.66         3900.09 
       0.122832         3745.56         3722.53 
       0.129052         3481.72         3534.52 
       0.135211         3292.47         3322.31 
       0.141259         3134.66         3089.17 
       0.147318         2940.79         2847.16 
       0.153489         2692.17         2614.43 
       0.159709         2546.11         2412.91 
       0.165845         2454.61         2255.07 
       0.171974         2321.81         2135.57 
       0.178125         2215.75          2043.3 
       0.184229         2129.04         1965.05 
        0.19034         2010.09         1887.19 
       0.196428         1970.55          1802.2 
       0.202534         1894.69         1708.01 
       0.208729         1805.36         1607.43 
       0.214876         1725.25         1509.66 
       0.220989         1668.19         1421.13 
       0.227147         1594.38         1344.83 
        0.23329         1534.49         1282.29 
       0.239377         1512.16         1231.39 
       0.245482         1419.11         1187.27 
       0.251667         1411.77         1145.17 
       0.257832         1357.41         1102.44 
       0.263955         1313.05         1057.73 
       0.270079         1268.65         1011.19 
        0.27624         1254.68         964.384 
       0.282372         1201.54         919.947 
        0.28843         1191.96         879.938 
       0.294538         1133.53         844.269 
       0.300721            1129         812.768 
        0.30691         1083.04         784.792 
       0.313033         1062.76          759.23 
       0.319153         1043.67         734.481 
       0.325316         1009.77         709.548 
        0.33145         986.542         684.459 
       0.337538         971.462         659.597 
       0.343633          947.82         635.302 
       0.349808           916.4         611.968 
       0.355968         910.919          590.36 
       0.362074         900.572         570.776 
       0.368217         873.698         552.705 
       0.374374         839.643         535.874 
       0.380519         840.139         519.926 
       0.386598         818.263         504.588 
       0.392688         815.515         489.488 
        0.39888         791.901         474.345 
       0.405048          780.64         459.573 
       0.411186         769.583          445.38 
       0.417313          753.99          431.86 
       0.423458         741.456         419.045 
       0.429607         730.663         407.005 
       0.435692         715.015         395.761 
       0.441815         710.158         384.993 
       0.447964         695.027         374.615 
       0.454126         685.812         364.537 
       0.460267         671.369         354.736 
       0.466387         664.034         345.219 
        0.47254         655.654         335.932 
       0.478662         651.986         327.001 
       0.484765         632.843         318.443 
       0.490885         628.373         310.235 
       0.497035         615.897         302.357 
       0.503198         610.798         294.793 
       0.509342         604.852          287.54 
       0.515458         600.886         280.569 
       0.521598         586.656         273.791 
       0.527764         575.178         267.177 
       0.533884         574.129         260.794 
           0.54         567.037         254.607 
       0.546137         563.818         248.599 
       0.552299         554.461         242.776 
       0.558452           551.6         237.167 
       0.564573         543.481         231.779 
       0.570708         537.056         226.563 
       0.576825         522.956         221.534 
       0.582926         524.326         216.677 
       0.589034         519.552         211.958 
       0.595184         514.521         207.339 
       0.601379          507.66         202.818 
       0.607522         500.629         198.463 
       0.613639         500.304         194.255 
       0.619772         487.944         190.164 
       0.625918         486.538         186.191 
       0.632068         479.614         182.335 
       0.638161          477.95         178.627 
         0.6443         469.036         174.998 
       0.650464         466.716         171.457 
       0.656582         464.407         168.039 
       0.662703         461.847         164.714 
       0.668861         453.603         161.461 
       0.675024         450.058         158.293 
       0.681124         447.067         155.244 
       0.687237         442.908         152.269 
       0.693381         437.282          149.36 
       0.699536         431.373         146.523 
       0.705665         429.791         143.773 
       0.711789         426.962         141.098 
       0.717957         423.095         138.473 
        0.72409         420.249         135.931 
       0.730186         414.879         133.469 
       0.736317         411.633         131.056 
       0.742472         409.982         128.694 
       0.748622         405.042         126.394 
        0.75476         400.236         124.155 
       0.760888         396.094         121.974 
       0.767043         396.806         119.837 
       0.773185         391.713         117.757 
       0.779291         386.824         115.739 
       0.785407         385.009         113.765 
       0.791564         380.323         111.826 
       0.797719          378.07         109.933 
       0.803834         374.819         108.097 
       0.809972         373.405         106.296 
       0.816124         372.688         104.533 
       0.822261         367.021         102.816 
       0.828378         364.913         101.142 
       0.834502         361.913         99.5054 
       0.840667          358.23         97.8945 
       0.846816         356.663         96.3242 
       0.852925         353.725         94.7987 
       0.859047         352.299         93.3035 
       0.865192          348.26         91.8359 
       0.871341         345.546         90.3994 
       0.877463         344.094         89.0004 
       0.883569         341.746          87.635 
       0.889708         338.718         86.2915 
       0.895864         335.772         84.9731 
       0.902008         333.928         83.6853 
       0.908149         331.422         82.4253 
       0.914301          327.96         81.1895 
       0.920448          325.93         79.9804 
       0.926574         322.044         78.8005 
       0.932687         322.607         77.6471 
       0.938823         318.683          76.513 
       0.944975         318.229         75.3991 
       0.951105         314.947         74.3117 
       0.957225          312.77         73.2478 
       0.963368         309.066         72.2013 
       0.969511         307.818         71.1754 
       0.975621         305.314         70.1752 
       0.981748         304.948         69.1919 
       0.987916         302.447         68.2214 
        0.99406         297.729         67.2734 
        1.00019         297.526         66.3454 
        1.00632          295.73         65.4359 
        1.01246         293.184         64.5423 
        1.01859         293.625          63.667 
        1.02471         289.098         62.8091 
        1.03085         287.021         61.9642 
        1.03698         286.238         61.1369 
        1.04314         283.242         60.3212 
        1.04929         281.154         59.5225 
        1.05541         281.471         58.7416 
        1.06154         277.012         57.9729 
        1.06769         276.304          57.217 
        1.07382         274.539         56.4771 
        1.07993         272.513         55.7521 
        1.08607         271.672          55.037 
        1.09222         269.392         54.3338 
        1.09836         267.423         53.6439 
        1.10449         264.619         52.9668 
        1.11063         262.448         52.3008 
        1.11677          262.16         51.6466 
         1.1229         260.298         51.0049 
        1.12903         258.448         50.3735 
        1.13518         256.614         49.7525 
        1.14131         254.834         49.1424 
        1.14745         254.257         48.5429 
        1.15359         251.952         47.9534 
        1.15973         250.484         47.3736 
        1.16584         248.364          46.806 
        1.17197         248.145          46.247 
        1.17811         245.408         45.6955 
        1.18424         243.829         45.1547 
        1.19038         242.943         44.6211 
        1.19652         241.019         44.0965 
        1.20267         240.429         43.5803 
        1.20881          238.23         43.0726 
        1.21495         236.638         42.5739 
        1.22108         235.352         42.0832 
         1.2272         233.642         41.6014 
        1.23334         232.356         41.1262 
        1.23949         231.062         40.6573 
        1.24562         229.847          40.197 
        1.25174         227.674         39.7447 
        1.25789         226.065         39.2979 
        1.26402           224.7         38.8589 
        1.27014         223.276         38.4277 
        1.27628         222.134         38.0018 
        1.28244         221.774         37.5815 
        1.28858         219.278         37.1683 
        1.29471         217.551         36.7622 
        1.30084         216.726         36.3626 
        1.30697         215.178         35.9684 
        1.31312         213.355         35.5796 
        1.31925         213.084         35.1977 
        1.32537         211.791         34.8219 
        1.33151         209.683         34.4502 
        1.33765         208.375         34.0843 
        1.34378         207.588         33.7244 
        1.34992         206.466         33.3695 
        1.35606         206.289          33.019 
         1.3622          204.28         32.6742 
        1.36833         202.143         32.3352 
        1.37445         201.307         32.0012 
        1.38059         199.752          31.671 
        1.38675         199.028         31.3446 
        1.39288         197.584         31.0242 
        1.39901         197.328         30.7084 
        1.40515         195.262         30.3964 
         1.4113         194.094         30.0888 
        1.41742         192.891         29.7867 
        1.42355         191.632         29.4883 
         1.4297         190.385          29.193 
        1.43585         189.313         28.9019 
        1.44198         188.236          28.616 
        1.44809         187.494         28.3344 
        1.45423         186.088         28.0556 
        1.46036         185.146         27.7812 
        1.46649         183.661         27.5103 
        1.47263         182.408         27.2428 
        1.47877         181.601          26.979 
        1.48491         179.976         26.7183 
        1.49104          179.62         26.4617 
        1.49718         177.671         26.2082 
        1.50333         177.101         25.9577 
        1.50947         176.279          25.711 
         1.5156         174.667         25.4679 
        1.52172         173.891          25.228 
        1.52787         172.425         24.9907 
          1.534         172.041         24.7567 
        1.54013         170.643          24.526 
        1.54627         169.791         24.2979 
        1.55241         168.596         24.0726 
        1.55855         167.587         23.8505 
        1.56467         166.444         23.6319 
         1.5708         165.886         23.4153 
        1.57695         164.656         23.2012 
        1.58308         163.941         22.9903 
        1.58922          162.71         22.7819 
        1.59535         161.431         22.5761 
         1.6015         161.097         22.3727 
        1.60764         159.846         22.1718 
        1.61376         158.738          21.974 
        1.61989          157.92         21.7784 
        1.62604         156.969         21.5848 
        1.63218         156.167         21.3937 
        1.63831         155.095         21.2054 
        1.64444         154.482         21.0193 
        1.65059         153.335          20.835 
        1.65673          152.16         20.6531 
        1.66285          151.77         20.4739 
        1.66898         150.567         20.2968 
        1.67512          150.27         20.1214 
        1.68127         148.624          19.948 
         1.6874         147.617          19.777 
        1.69353          147.31         19.6081 
        1.69967         146.108         19.4408 
        1.70581          145.39         19.2755 
        1.71193         144.279         19.1128 
        1.71806         143.886         18.9517 
        1.72421         142.819         18.7921 
        1.73035         142.472         18.6345 
        1.73649         141.497         18.4788 
        1.74262         140.327          18.325 
        1.74876         139.816         18.1728 
        1.75489         138.671         18.0227 
        1.76101         137.857         17.8744 
        1.76715         137.335         17.7275 
        1.77329         136.877         17.5821 
        1.77943         135.598         17.4383 
        1.78557         134.976         17.2963 
        1.79171         134.206         17.1559 
        1.79785         133.226          17.017 
        1.80399         132.517         16.8797 
        1.81012          131.77         16.7441 
        1.81625         131.091         16.6101 
        1.82239         130.476         16.4773 
        1.82853         129.794         16.3461 
        1.83466         128.843         16.2164 
        1.84078         128.351         16.0883 
        1.84692         127.119         15.9613 
        1.85306         126.926         15.8356 
         1.8592         125.899         15.7115 
        1.86533         124.969         15.5887 
        1.87147         124.294         15.4671 
        1.87761         123.869         15.3468 
        1.88375          122.64         15.2279 
        1.88988         122.199         15.1104 
        1.89601         121.383         14.9941 
        1.90215         120.834         14.8789 
        1.90829         120.249          14.765 
        1.91442         119.544         14.6523 
        1.92056         118.811         14.5408 
         1.9267         118.329         14.4305 
        1.93284         117.629         14.3212 
        1.93897         116.746         14.2132 
        1.94509         116.314         14.1066 
        1.95123          115.65         14.0008 
        1.95737         115.085          13.896 
        1.96349         114.376         13.7926 
        1.96964         113.373           13.69 
        1.97578         112.743         13.5883 
        1.98192         112.471         13.4879 
        1.98805         111.463         13.3885 
        1.99419         111.111         13.2901 
        2.00033         110.384         13.1927 
        2.00647          109.94         13.0962 
         2.0126         109.014         13.0009 
        2.01874          108.53         12.9064 
        2.02488         108.062         12.8128 
        2.03101         107.169         12.7202 
        2.03714          106.65         12.6287 
        2.04328         106.166          12.538 
        2.04941         105.475         12.4482 
        2.05554          104.75         12.3594 
        2.06167         104.475         12.2714 
        2.06781         103.805         12.1841 
        2.07396         103.022         12.0977 
        2.08009         102.613         12.0122 
        2.08622         102.116         11.9276 
        2.09237         101.281         11.8437 
        2.09851         100.884         11.7606 
        2.10464         100.315         11.6784 
        2.11077         99.9287         11.5971 
        2.11691         99.3859         11.5164 
        2.12305          98.449         11.4365 
        2.12918           97.99         11.3575 
        2.13531         97.5951         11.2793 
        2.14145         96.8329         11.2017 
         2.1476         96.2172         11.1246 
        2.15372         95.9016         11.0487 
        2.15985         95.4941         10.9735 
        2.16599         94.9186         10.8987 
        2.17213         94.2115         10.8247 
        2.17827         93.9129         10.7514 
         2.1844          93.164         10.6789 
        2.19054         92.8609          10.607 
        2.19666         92.3942         10.5358 
         2.2028         91.8308         10.4653 
        2.20893         91.2721         10.3954 
        2.21508          90.687          10.326 
        2.22122         90.2504         10.2573 
        2.22736         89.8602         10.1893 
        2.23349         89.4329         10.1219 
        2.23962         88.7479         10.0552 
        2.24577         88.4516         9.98897 
         2.2519         88.0449         9.92344 
        2.25802         87.2049          9.8586 
        2.26417         86.9404         9.79417 
        2.27031         86.4528         9.73026 
        2.27644          85.953          9.6671 
        2.28257         85.4387         9.60452 
        2.28872         84.9901         9.54237 
        2.29486         84.5011         9.48079 
        2.30099         84.1459         9.41987 
        2.30712         83.6914         9.35947 
        2.31326         83.2049          9.2995 
         2.3194         82.6564          9.2401 
        2.32553         82.3396         9.18131 
        2.33166         81.8249         9.12306 
         2.3378         81.3881         9.06524 
        2.34394              81         9.00791 
        2.35007         80.5138         8.95115 
        2.35619         80.1199         8.89496 
        2.36233         79.6624         8.83911 
        2.36848         79.1487         8.78363 
        2.37462           78.73         8.72875 
        2.38075         78.4445         8.67439 
        2.38689          77.925         8.62045 
        2.39303         77.4108         8.56698 
        2.39916         77.0509         8.51402 
        2.40529         76.7935         8.46152 
        2.41143         76.2676         8.40942 
        2.41757         75.9314         8.35774 
         2.4237         75.5631         8.30659 
        2.42983         75.0478         8.25587 
        2.43598         74.7055         8.20545 
        2.44211          74.415         8.15553 
        2.44823         73.9468         8.10614 
        2.45437         73.3983         8.05703 
        2.46052         73.0202         8.00828 
        2.46665         72.7724         7.96003 
        2.47279         72.3427         7.91219 
        2.47892         72.0136         7.86471 
        2.48507         71.5175         7.81758 
         2.4912         71.2478         7.77093 
