# k  (h/Mpc)    Pcb(k)  (Mpc/h)^3    Pcb_linear(k)  (Mpc/h)^3
     0.00783031         13805.2         13861.2 
       0.013688         17841.6         18328.1 
       0.019231         19292.7         19626.8 
      0.0249154         19088.4         19146.1 
      0.0312784         17199.1         17503.6 
      0.0375637         15145.6           15566 
      0.0433917         13702.7         13932.5 
      0.0492413         12280.3         12622.1 
      0.0555754         11321.8         11576.3 
      0.0619321         10210.4           10804 
       0.067871          9766.5         10197.1 
      0.0738098         9250.09         9590.45 
      0.0800417         8567.62         8889.71 
      0.0862327         7794.38         8127.17 
      0.0921407         7117.11         7382.36 
      0.0982031         6529.08         6663.52 
       0.104506         5843.27         6021.78 
       0.110769          5400.1         5519.33 
       0.116806         5155.67         5158.49 
       0.122832         4845.78         4891.74 
       0.129052         4606.64         4673.05 
       0.135211         4494.35         4471.35 
       0.141259         4203.49         4257.93 
       0.147318         3926.28         4016.62 
       0.153489         3726.29         3747.79 
       0.159709         3585.61         3471.56 
       0.165845         3275.53         3215.47 
       0.171974         3180.69         2993.12 
       0.178125         3077.81         2811.68 
       0.184229         2837.72         2671.38 
        0.19034         2803.91         2561.61 
       0.196428         2733.55         2469.84 
       0.202534         2588.54         2382.44 
       0.208729         2539.95         2288.57 
       0.214876         2441.07         2185.92 
       0.220989         2331.19         2075.81 
       0.227147         2270.29         1962.27 
        0.23329         2183.48         1853.39 
       0.239377         2171.56         1755.79 
       0.245482         2075.55         1671.55 
       0.251667         2000.86          1600.4 
       0.257832         1970.82         1541.29 
       0.263955         1891.28         1490.22 
       0.270079         1852.42         1442.33 
        0.27624          1776.5         1393.88 
       0.282372         1762.34         1343.42 
        0.28843         1729.66         1291.25 
       0.294538            1658          1237.7 
       0.300721          1631.7         1184.59 
        0.30691         1591.13         1134.71 
       0.313033         1536.93         1089.97 
       0.319153         1523.43         1050.39 
       0.325316         1505.51         1015.16 
        0.33145         1476.11         983.677 
       0.337538         1432.66         954.493 
       0.343633         1402.53         926.129 
       0.349808          1381.1         897.368 
       0.355968         1352.52         868.344 
       0.362074         1318.94         839.468 
       0.368217         1315.12          810.84 
       0.374374         1294.61          783.27 
       0.380519          1254.3         757.378 
       0.386598         1251.64         733.683 
       0.392688         1219.73         711.844 
        0.39888         1198.65         691.296 
       0.405048         1177.34         672.107 
       0.411186         1170.69         653.798 
       0.417313         1170.44          635.95 
       0.423458         1134.83         618.312 
       0.429607         1106.18         600.842 
       0.435692         1099.22         583.867 
       0.441815         1078.46         567.277 
       0.447964         1070.14         551.273 
       0.454126         1055.21         536.028 
       0.460267         1044.27         521.696 
       0.466387         1028.68         508.194 
        0.47254         1009.88         495.291 
       0.478662         1000.14         483.006 
       0.484765         991.378         471.168 
       0.490885         979.311         459.588 
       0.497035          963.67         448.207 
       0.503198          962.82         437.074 
       0.509342         945.367         426.262 
       0.515458         926.903         415.824 
       0.521598         928.006         405.722 
       0.527764         905.708         395.993 
       0.533884         897.132         386.738 
           0.54         891.019         377.854 
       0.546137         881.214         369.268 
       0.552299         874.121         360.942 
       0.558452         866.376         352.883 
       0.564573         860.609         345.079 
       0.570708         851.703         337.448 
       0.576825         834.805         330.038 
       0.582926         833.158         322.856 
       0.589034         824.489         315.882 
       0.595184         814.365         309.081 
       0.601379         801.955          302.45 
       0.607522         792.655          296.09 
       0.613639           791.8         289.961 
       0.619772         783.981          284.01 
       0.625918         775.364         278.222 
       0.632068         769.466          272.59 
       0.638161         758.917         267.153 
         0.6443         752.815         261.814 
       0.650464         747.842         256.594 
       0.656582         742.458         251.553 
       0.662703         731.954         246.649 
       0.668861         725.314         241.855 
       0.675024         721.119         237.192 
       0.681124         709.107         232.703 
       0.687237         709.714         228.326 
       0.693381         697.148         224.045 
       0.699536         698.462         219.868 
       0.705665         689.402         215.817 
       0.711789         686.821         211.873 
       0.717957         678.774         208.001 
        0.72409         673.059         204.248 
       0.730186         670.451         200.609 
       0.736317         662.666          197.04 
       0.742472         654.183         193.544 
       0.748622         652.496         190.138 
        0.75476         644.587         186.823 
       0.760888         641.565         183.594 
       0.767043         639.108         180.431 
       0.773185         634.378         177.351 
       0.779291         626.927         174.362 
       0.785407         622.352         171.439 
       0.791564         618.319         168.565 
       0.797719         609.408          165.76 
       0.803834         610.107         163.037 
       0.809972         602.182         160.365 
       0.816124         598.121         157.748 
       0.822261         594.403         155.197 
       0.828378         592.073         152.711 
       0.834502         582.605         150.278 
       0.840667          581.34         147.883 
       0.846816           576.9         145.548 
       0.852925         574.318         143.278 
       0.859047          568.95         141.053 
       0.865192         565.436         138.869 
       0.871341         559.278          136.73 
       0.877463         558.493         134.647 
       0.883569         552.279         132.613 
       0.889708         546.469          130.61 
       0.895864         541.526         128.645 
       0.902008         540.825         126.725 
       0.908149         535.692         124.845 
       0.914301         533.768         123.001 
       0.920448         527.218         121.197 
       0.926574         524.854         119.435 
       0.932687         523.267         117.713 
       0.938823           516.8         116.019 
       0.944975         513.704         114.354 
       0.951105         510.624         112.729 
       0.957225         503.526         111.139 
       0.963368         504.602         109.574 
       0.969511         497.387         108.039 
       0.975621         495.722         106.543 
       0.981748         492.512         105.072 
       0.987916         489.667         103.619 
        0.99406         485.027           102.2 
        1.00019         480.491          100.81 
        1.00632         478.521         99.4477 
        1.01246         475.028         98.1089 
        1.01859         471.107         96.7973 
        1.02471         469.408         95.5115 
        1.03085         465.544          94.245 
        1.03698          463.74         93.0043 
        1.04314         459.045         91.7811 
        1.04929           457.9         90.5829 
        1.05541         451.409         89.4112 
        1.06154         450.591         88.2576 
        1.06769         446.393         87.1228 
        1.07382         442.641         86.0119 
        1.07993         442.267         84.9231 
        1.08607         438.918         83.8489 
        1.09222         435.026         82.7923 
        1.09836         432.003         81.7554 
        1.10449         428.206         80.7376 
        1.11063         426.746         79.7362 
        1.11677         422.263         78.7524 
         1.1229         420.681          77.787 
        1.12903         416.835         76.8371 
        1.13518         415.349         75.9025 
        1.14131         413.059         74.9841 
        1.14745         408.335         74.0815 
        1.15359         405.725         73.1939 
        1.15973         403.813         72.3205 
        1.16584         401.972         71.4654 
        1.17197         398.909         70.6231 
        1.17811         394.245         69.7919 
        1.18424         393.359         68.9767 
        1.19038         390.881         68.1722 
        1.19652         386.902          67.381 
        1.20267         385.734         66.6026 
        1.20881           383.8         65.8367 
        1.21495         379.008         65.0842 
        1.22108         378.863         64.3436 
         1.2272         373.216         63.6165 
        1.23334         372.541         62.8991 
        1.23949         369.396         62.1911 
        1.24562         369.317         61.4961 
        1.25174         365.443         60.8129 
        1.25789         362.556         60.1381 
        1.26402           360.7         59.4748 
        1.27014         358.903         58.8233 
        1.27628         355.629         58.1797 
        1.28244         353.187         57.5445 
        1.28858         351.696         56.9198 
        1.29471         350.006         56.3059 
        1.30084         347.962         55.7017 
        1.30697         344.232         55.1055 
        1.31312          342.29         54.5172 
        1.31925         340.456         53.9395 
        1.32537         338.733         53.3708 
        1.33151         335.466         52.8083 
        1.33765         333.153         52.2543 
        1.34378          331.03         51.7094 
        1.34992          328.41          51.172 
        1.35606          326.52         50.6411 
         1.3622         324.958         50.1188 
        1.36833          323.96         49.6051 
        1.37445         321.963          49.099 
        1.38059          318.19         48.5984 
        1.38675         316.918         48.1037 
        1.39288         315.495         47.6179 
        1.39901         312.622         47.1391 
        1.40515          311.23         46.6658 
         1.4113          308.89         46.1993 
        1.41742         306.136          45.741 
        1.42355         305.616         45.2882 
         1.4297         303.437         44.8401 
        1.43585         299.902         44.3983 
        1.44198         299.303         43.9643 
        1.44809         297.627         43.5369 
        1.45423         295.285         43.1136 
        1.46036         294.056         42.6968 
        1.46649         292.016         42.2854 
        1.47263         289.057         41.8792 
        1.47877         288.113         41.4785 
        1.48491         285.611         41.0825 
        1.49104         283.498         40.6925 
        1.49718         282.226         40.3073 
        1.50333         280.262         39.9266 
        1.50947         279.197         39.5516 
         1.5156         276.363          39.182 
        1.52172         274.861         38.8172 
        1.52787         272.998         38.4563 
          1.534         272.528         38.1005 
        1.54013         269.956         37.7496 
        1.54627          268.23         37.4025 
        1.55241         266.898         37.0597 
        1.55855         264.934         36.7218 
        1.56467         263.236          36.389 
         1.5708          261.91         36.0595 
        1.57695         260.507         35.7335 
        1.58308         259.367         35.4124 
        1.58922         257.105          35.095 
        1.59535         254.858         34.7817 
         1.6015          253.82         34.4718 
        1.60764         252.272         34.1658 
        1.61376         250.319         33.8645 
        1.61989         248.894         33.5665 
        1.62604         247.155         33.2715 
        1.63218         245.693         32.9803 
        1.63831         244.681         32.6932 
        1.64444         242.656         32.4095 
        1.65059         241.854         32.1285 
        1.65673         239.834         31.8511 
        1.66285          238.49         31.5778 
        1.66898         237.027         31.3077 
        1.67512         235.242         31.0402 
        1.68127         233.991         30.7757 
         1.6874          232.24         30.5148 
        1.69353          231.57         30.2571 
        1.69967         229.953         30.0018 
        1.70581          228.16         29.7496 
        1.71193         227.062         29.5013 
        1.71806         225.007         29.2553 
        1.72421         224.169         29.0117 
        1.73035         222.229         28.7711 
        1.73649         220.739         28.5333 
        1.74262         219.949         28.2984 
        1.74876         218.387          28.066 
        1.75489         217.448         27.8367 
        1.76101         216.266         27.6101 
        1.76715         214.548         27.3857 
        1.77329         212.573         27.1636 
        1.77943         211.529         26.9438 
        1.78557         210.625         26.7268 
        1.79171         209.887         26.5122 
        1.79785         208.187         26.2998 
        1.80399         206.914         26.0899 
        1.81012         205.653         25.8826 
        1.81625         204.106         25.6776 
        1.82239         203.025         25.4746 
        1.82853         202.153         25.2739 
        1.83466         200.554         25.0755 
        1.84078         199.373         24.8795 
        1.84692         198.432         24.6853 
        1.85306         196.784         24.4929 
         1.8592         196.069         24.3029 
        1.86533         194.152         24.1151 
        1.87147         193.525          23.929 
        1.87761         192.215         23.7448 
        1.88375         190.868         23.5628 
        1.88988         189.984         23.3829 
        1.89601          189.37         23.2048 
        1.90215         187.814         23.0285 
        1.90829         186.443          22.854 
        1.91442         185.592         22.6814 
        1.92056          184.07         22.5107 
         1.9267           183.5         22.3416 
        1.93284          182.28         22.1741 
        1.93897         180.808         22.0087 
        1.94509         180.308         21.8454 
        1.95123         178.888         21.6833 
        1.95737         178.306         21.5227 
        1.96349         176.876         21.3642 
        1.96964         175.672         21.2069 
        1.97578         174.915          21.051 
        1.98192         174.205         20.8971 
        1.98805         172.874         20.7447 
        1.99419         171.728         20.5938 
        2.00033         170.975         20.4444 
        2.00647         169.562         20.2965 
         2.0126         168.655         20.1503 
        2.01874         167.712         20.0053 
        2.02488         166.599         19.8617 
        2.03101         166.169         19.7197 
        2.03714         165.129         19.5793 
        2.04328         163.838           19.44 
        2.04941         163.088         19.3023 
        2.05554         162.133          19.166 
        2.06167         161.062         19.0308 
        2.06781         160.471          18.897 
        2.07396         159.082         18.7642 
        2.08009         158.404         18.6329 
        2.08622         157.449         18.5031 
        2.09237         156.302         18.3742 
        2.09851         155.745         18.2466 
        2.10464         154.928         18.1204 
        2.11077         153.908         17.9955 
        2.11691         153.124         17.8716 
        2.12305         152.035         17.7488 
        2.12918         151.087         17.6275 
        2.13531         150.152         17.5073 
        2.14145         149.556         17.3879 
         2.1476         148.481         17.2696 
        2.15372         147.711         17.1529 
        2.15985         146.904         17.0372 
        2.16599          146.22         16.9223 
        2.17213         145.127         16.8085 
        2.17827          144.53         16.6959 
         2.1844         143.453         16.5843 
        2.19054         142.773         16.4738 
        2.19666         141.876         16.3644 
         2.2028         141.283         16.2559 
        2.20893         140.433         16.1484 
        2.21508         139.426         16.0417 
        2.22122         138.491          15.936 
        2.22736         137.803         15.8314 
        2.23349          137.19         15.7278 
        2.23962         136.593         15.6251 
        2.24577         135.542         15.5232 
         2.2519         134.684         15.4223 
        2.25802         134.406         15.3226 
        2.26417         133.589         15.2234 
        2.27031         132.597          15.125 
        2.27644         131.847         15.0278 
        2.28257         131.432         14.9315 
        2.28872         130.434         14.8358 
        2.29486         129.811          14.741 
        2.30099         128.797         14.6472 
        2.30712         128.355         14.5542 
        2.31326         127.542         14.4619 
         2.3194             127         14.3704 
        2.32553         126.247         14.2798 
        2.33166          125.72         14.1901 
         2.3378         124.865         14.1011 
        2.34394         123.871         14.0127 
        2.35007         123.388         13.9253 
        2.35619         122.602         13.8387 
        2.36233         122.223         13.7527 
        2.36848         121.512         13.6672 
        2.37462          120.99         13.5826 
        2.38075         120.223         13.4988 
        2.38689         119.326         13.4157 
        2.39303         118.786         13.3333 
        2.39916         118.279         13.2517 
        2.40529         117.482         13.1707 
        2.41143         116.691         13.0904 
        2.41757         116.017         13.0107 
         2.4237         115.634         12.9318 
        2.42983         115.013         12.8536 
        2.43598         114.142         12.7759 
        2.44211         113.719         12.6989 
        2.44823         113.107         12.6227 
        2.45437         112.558          12.547 
        2.46052         111.873         12.4718 
        2.46665         111.392         12.3973 
        2.47279         110.721         12.3235 
        2.47892         110.136         12.2503 
        2.48507         109.566         12.1776 
         2.4912         109.073         12.1056 
