# k  (h/Mpc)    Pcb(k)  (Mpc/h)^3    Pcb_linear(k)  (Mpc/h)^3
     0.00783031         1050.83         1057.32 
       0.013688         1386.34         1400.99 
       0.019231         1495.86         1502.88 
      0.0249154         1467.95         1468.57 
      0.0312784         1344.27         1347.22 
      0.0375637         1201.19         1205.73 
      0.0433917         1089.26         1088.43 
      0.0492413         992.935         995.539 
      0.0555754         922.145         920.988 
      0.0619321         854.842         863.138 
       0.067871         810.787         813.708 
      0.0738098          759.36         761.343 
      0.0800417         700.343         700.568 
      0.0862327         634.914         636.672 
      0.0921407         575.701         577.351 
      0.0982031         523.847         523.189 
       0.104506         475.048         477.431 
       0.110769         441.342         443.114 
       0.116806         420.038         418.619 
       0.122832         397.962         399.319 
       0.129052         381.194         381.175 
       0.135211          363.68         362.188 
       0.141259         341.251         341.368 
       0.147318         316.859         318.753 
       0.153489         295.408          295.43 
       0.159709         275.203         273.522 
       0.165845         253.826         254.916 
       0.171974         242.546         239.908 
       0.178125         230.868         228.158 
       0.184229         219.745         218.866 
        0.19034         213.331         210.745 
       0.196428         205.162         202.752 
       0.202534         194.349         194.144 
       0.208729         186.911         184.638 
       0.214876         178.366         174.745 
       0.220989         166.346          165.03 
       0.227147         160.144         155.963 
        0.23329         152.764         148.052 
       0.239377         146.747         141.455 
       0.245482         140.468         135.931 
       0.251667         134.859         131.115 
       0.257832         131.981         126.695 
       0.263955         126.226         122.336 
       0.270079          121.78          117.81 
        0.27624          116.34         113.065 
       0.282372          112.01         108.266 
        0.28843         109.194         103.639 
       0.294538         104.405          99.269 
       0.300721         99.7312         95.2775 
        0.30691         97.3652         91.7445 
       0.313033         93.7953         88.6548 
       0.319153         92.0766          85.854 
       0.325316         88.0862         83.1959 
        0.33145         85.4022         80.5992 
       0.337538         83.0204          78.013 
       0.343633          80.654         75.4009 
       0.349808         77.9087          72.773 
       0.355968         75.3616         70.2233 
       0.362074         73.6624         67.8288 
       0.368217         71.4057         65.5895 
       0.374374         69.9365          63.525 
       0.380519         67.1017          61.629 
       0.386598         65.2354         59.8751 
       0.392688         63.4567          58.202 
        0.39888         62.2058         56.5489 
       0.405048         60.7078         54.9267 
       0.411186         59.0929         53.3351 
       0.417313         57.4825         51.7744 
       0.423458         55.7801          50.255 
       0.429607         54.8147         48.7995 
       0.435692         53.7742         47.4332 
       0.441815         51.8203         46.1344 
       0.447964         50.3588         44.9049 
       0.454126         49.5053         43.7342 
       0.460267         48.9832         42.6142 
       0.466387         47.5873         41.5337 
        0.47254         46.8457         40.4756 
       0.478662         45.4742         39.4456 
       0.484765         44.5265         38.4438 
       0.490885         43.2877         37.4695 
       0.497035         42.5102         36.5247 
       0.503198         41.5716          35.615 
       0.509342          40.523         34.7461 
       0.515458         40.0071         33.9185 
       0.521598         39.1082         33.1209 
       0.527764         38.5922         32.3478 
       0.533884         37.6072          31.604 
           0.54          36.915         30.8821 
       0.546137         35.8532         30.1775 
       0.552299          35.274         29.4889 
       0.558452         34.5867         28.8206 
       0.564573         34.1997         28.1758 
       0.570708         33.3596         27.5508 
       0.576825         32.8583         26.9494 
       0.582926         32.2734           26.37 
       0.589034         31.6837         25.8086 
       0.595184         31.2834         25.2606 
       0.601379         30.4633         24.7251 
       0.607522         30.0176         24.2093 
       0.613639         29.4541         23.7099 
       0.619772         29.0259         23.2228 
       0.625918         28.4376         22.7477 
       0.632068         28.1847         22.2853 
       0.638161         27.6291         21.8399 
         0.6443         27.1786         21.4042 
       0.650464         26.5187         20.9798 
       0.656582         26.3726         20.5707 
       0.662703         26.0618         20.1731 
       0.668861         25.3734          19.784 
       0.675024          25.056         19.4048 
       0.681124         24.9345         19.0392 
       0.687237         24.4344          18.682 
       0.693381         23.8762         18.3323 
       0.699536         23.7957          17.991 
       0.705665         23.3639           17.66 
       0.711789         22.9302         17.3379 
       0.717957         22.4861         17.0219 
        0.72409         22.3062         16.7158 
       0.730186         22.1681         16.4193 
       0.736317         21.7217         16.1285 
       0.742472         21.4532         15.8437 
       0.748622         21.1338         15.5661 
        0.75476         20.6217         15.2958 
       0.760888         20.5226         15.0323 
       0.767043         20.1682         14.7741 
       0.773185         19.9542         14.5225 
       0.779291         19.8241         14.2784 
       0.785407         19.4574         14.0396 
       0.791564         19.2875         13.8048 
       0.797719         18.9071         13.5757 
       0.803834         18.7957         13.3533 
       0.809972         18.4579         13.1351 
       0.816124         18.2608         12.9215 
       0.822261         18.0567         12.7132 
       0.828378         17.8271         12.5102 
       0.834502         17.6606         12.3116 
       0.840667         17.4867         12.1159 
       0.846816         17.1301         11.9252 
       0.852925         17.0258         11.7398 
       0.859047         16.8255          11.558 
       0.865192         16.6039         11.3795 
       0.871341         16.3752         11.2048 
       0.877463         16.2192         11.0345 
       0.883569         16.1023         10.8683 
       0.889708         15.8515         10.7046 
       0.895864         15.6629          10.544 
       0.902008         15.4753         10.3871 
       0.908149         15.2822         10.2335 
       0.914301         15.1954         10.0827 
       0.920448         14.9775         9.93525 
       0.926574         14.9025         9.79126 
       0.932687         14.6753         9.65047 
       0.938823         14.4912         9.51197 
       0.944975         14.3722         9.37591 
       0.951105         14.1921         9.24303 
       0.957225         14.1148         9.11299 
       0.963368         13.9382         8.98504 
       0.969511         13.7881         8.85957 
       0.975621         13.6457          8.7372 
       0.981748         13.4505         8.61686 
       0.987916         13.3539         8.49805 
        0.99406          13.266         8.38196 
        1.00019         13.1404         8.26828 
        1.00632         13.0177         8.15685 
        1.01246         12.8691         8.04732 
        1.01859         12.7311         7.94001 
        1.02471         12.5693          7.8348 
        1.03085         12.5346         7.73117 
        1.03698         12.4073         7.62965 
        1.04314         12.2805         7.52954 
        1.04929         12.1105         7.43148 
        1.05541           12.05         7.33559 
        1.06154         11.9436         7.24117 
        1.06769         11.8935         7.14828 
        1.07382         11.6868         7.05735 
        1.07993         11.5765         6.96823 
        1.08607         11.5293         6.88029 
        1.09222         11.3829          6.7938 
        1.09836         11.3639         6.70892 
        1.10449         11.1533          6.6256 
        1.11063         11.1255         6.54362 
        1.11677         11.0428         6.46307 
         1.1229         10.9421         6.38404 
        1.12903         10.8697         6.30627 
        1.13518         10.7029         6.22975 
        1.14131         10.6353         6.15455 
        1.14745         10.5073         6.08065 
        1.15359          10.439         6.00797 
        1.15973         10.3459         5.93645 
        1.16584          10.271         5.86644 
        1.17197          10.182         5.79746 
        1.17811         10.0917          5.7294 
        1.18424         10.0178         5.66263 
        1.19038         9.95316         5.59675 
        1.19652         9.88365         5.53196 
        1.20267         9.80007          5.4682 
        1.20881         9.70852         5.40547 
        1.21495         9.62744         5.34383 
        1.22108         9.57534         5.28317 
         1.2272          9.4765          5.2236 
        1.23334         9.46188         5.16483 
        1.23949         9.35051         5.10682 
        1.24562         9.27942         5.04988 
        1.25174         9.22471          4.9939 
        1.25789         9.10149          4.9386 
        1.26402         9.06846         4.88425 
        1.27014          9.0142         4.83086 
        1.27628         8.91021         4.77811 
        1.28244          8.8905         4.72606 
        1.28858         8.83272         4.67486 
        1.29471         8.71385         4.62454 
        1.30084         8.65115         4.57501 
        1.30697         8.62605         4.52614 
        1.31312         8.54635         4.47793 
        1.31925         8.48751         4.43057 
        1.32537         8.43963         4.38395 
        1.33151         8.36799         4.33784 
        1.33765         8.30544         4.29243 
        1.34378         8.28506         4.24776 
        1.34992         8.20663         4.20371 
        1.35606         8.15099         4.16019 
         1.3622         8.09227         4.11737 
        1.36833          8.0295         4.07526 
        1.37445         7.96671         4.03377 
        1.38059         7.92735         3.99273 
        1.38675         7.86312         3.95217 
        1.39288         7.81875         3.91234 
        1.39901         7.74966         3.87309 
        1.40515         7.71093         3.83429 
         1.4113         7.65299         3.79604 
        1.41742         7.60941         3.75846 
        1.42355         7.54923         3.72132 
         1.4297         7.51633         3.68458 
        1.43585         7.46825         3.64836 
        1.44198         7.41412         3.61276 
        1.44809         7.38222         3.57771 
        1.45423         7.32418           3.543 
        1.46036         7.28246         3.50881 
        1.46649         7.22637         3.47507 
        1.47263         7.19778         3.44175 
        1.47877          7.1481         3.40889 
        1.48491         7.10952         3.37641 
        1.49104         7.05434         3.34442 
        1.49718         7.02633         3.31282 
        1.50333         6.97633         3.28159 
        1.50947         6.91139         3.25083 
         1.5156         6.90046         3.22051 
        1.52172         6.85952         3.19058 
        1.52787         6.81727         3.16097 
          1.534         6.77713         3.13178 
        1.54013         6.73413         3.10299 
        1.54627         6.69317         3.07451 
        1.55241         6.64238         3.04639 
        1.55855         6.62553         3.01866 
        1.56467         6.57703         2.99135 
         1.5708         6.54111         2.96431 
        1.57695         6.48304         2.93757 
        1.58308         6.44828         2.91122 
        1.58922         6.42972         2.88518 
        1.59535         6.39054         2.85946 
         1.6015         6.34114         2.83403 
        1.60764         6.31871         2.80893 
        1.61376         6.28383         2.78419 
        1.61989         6.22996         2.75974 
        1.62604         6.20364         2.73553 
        1.63218          6.1757         2.71163 
        1.63831         6.15629         2.68807 
        1.64444         6.10605         2.66479 
        1.65059         6.08134         2.64172 
        1.65673           6.044         2.61896 
        1.66285          6.0135         2.59653 
        1.66898         5.97591         2.57436 
        1.67512         5.93716          2.5524 
        1.68127         5.90322         2.53069 
         1.6874         5.89358         2.50927 
        1.69353         5.83476         2.48812 
        1.69967         5.81864         2.46717 
        1.70581         5.78459         2.44647 
        1.71193         5.75349         2.42608 
        1.71806         5.72819         2.40589 
        1.72421         5.69503         2.38589 
        1.73035         5.66331         2.36614 
        1.73649         5.63828         2.34662 
        1.74262         5.60876         2.32733 
        1.74876         5.58315         2.30825 
        1.75489         5.55767         2.28943 
        1.76101         5.51924         2.27082 
        1.76715         5.50785          2.2524 
        1.77329         5.47373         2.23416 
        1.77943         5.43833         2.21611 
        1.78557         5.41594         2.19829 
        1.79171         5.40039         2.18067 
        1.79785         5.36426         2.16324 
        1.80399         5.32782           2.146 
        1.81012         5.30737         2.12898 
        1.81625         5.28387         2.11214 
        1.82239         5.25936         2.09547 
        1.82853         5.23006         2.07899 
        1.83466         5.19334          2.0627 
        1.84078          5.1738          2.0466 
        1.84692           5.153         2.03065 
        1.85306         5.12891         2.01485 
         1.8592         5.11203         1.99925 
        1.86533         5.08033         1.98382 
        1.87147         5.05957         1.96854 
        1.87761         5.04488         1.95341 
        1.88375         5.01414         1.93846 
        1.88988         4.99137         1.92369 
        1.89601         4.95789         1.90906 
        1.90215         4.92902         1.89457 
        1.90829         4.92843         1.88025 
        1.91442         4.89035         1.86606 
        1.92056         4.87944         1.85204 
         1.9267         4.85326         1.83815 
        1.93284         4.84097          1.8244 
        1.93897         4.79766         1.81081 
        1.94509          4.7882         1.79739 
        1.95123         4.76378         1.78408 
        1.95737         4.74568         1.77089 
        1.96349          4.7142         1.75787 
        1.96964         4.69594         1.74494 
        1.97578         4.68148         1.73214 
        1.98192         4.65208         1.71949 
        1.98805         4.64344         1.70697 
        1.99419         4.61948         1.69458 
        2.00033         4.58463          1.6823 
        2.00647         4.58356         1.67015 
         2.0126         4.55752         1.65814 
        2.01874         4.54423         1.64623 
        2.02488         4.51559         1.63442 
        2.03101         4.49337         1.62276 
        2.03714         4.48644         1.61122 
        2.04328         4.46099         1.59978 
        2.04941         4.44485         1.58846 
        2.05554         4.42916         1.57726 
        2.06167         4.40099         1.56616 
        2.06781         4.38934         1.55516 
        2.07396          4.3644         1.54425 
        2.08009         4.35514         1.53346 
        2.08622         4.33448         1.52279 
        2.09237         4.32711          1.5122 
        2.09851          4.2915         1.50171 
        2.10464          4.2854         1.49134 
        2.11077         4.27442         1.48108 
        2.11691         4.24757          1.4709 
        2.12305         4.22803         1.46081 
        2.12918         4.21337         1.45084 
        2.13531         4.19158         1.44096 
        2.14145         4.18213         1.43115 
         2.1476          4.1534         1.42143 
        2.15372         4.14455         1.41184 
        2.15985         4.12706         1.40233 
        2.16599         4.11531         1.39288 
        2.17213         4.09715         1.38353 
        2.17827         4.07533         1.37427 
         2.1844         4.05725         1.36511 
        2.19054         4.04561         1.35602 
        2.19666         4.03035         1.34703 
         2.2028         4.00522         1.33811 
        2.20893          3.9989         1.32927 
        2.21508          3.9904         1.32051 
        2.22122         3.96349         1.31181 
        2.22736         3.95046         1.30322 
        2.23349         3.93186          1.2947 
        2.23962         3.92443         1.28626 
        2.24577         3.90248         1.27788 
         2.2519         3.88771         1.26959 
        2.25802         3.87611         1.26139 
        2.26417         3.85914         1.25324 
        2.27031         3.84205         1.24515 
        2.27644         3.83448         1.23716 
        2.28257         3.81346         1.22924 
        2.28872         3.80189         1.22138 
        2.29486         3.78335         1.21358 
        2.30099         3.76848         1.20587 
        2.30712         3.76129         1.19823 
        2.31326         3.74446         1.19063 
         2.3194         3.72942         1.18311 
        2.32553         3.72228         1.17567 
        2.33166          3.7106         1.16829 
         2.3378         3.69299         1.16097 
        2.34394         3.67635         1.15371 
        2.35007         3.65759         1.14652 
        2.35619         3.65168          1.1394 
        2.36233         3.63819         1.13232 
        2.36848         3.62697          1.1253 
        2.37462         3.61353         1.11834 
        2.38075         3.60206         1.11145 
        2.38689         3.58976         1.10462 
        2.39303         3.57714         1.09784 
        2.39916         3.55708         1.09113 
        2.40529         3.54941         1.08447 
        2.41143         3.54356         1.07787 
        2.41757         3.53085         1.07132 
         2.4237         3.51393         1.06483 
        2.42983         3.50545          1.0584 
        2.43598         3.49272         1.05201 
        2.44211         3.47654         1.04568 
        2.44823         3.46589         1.03941 
        2.45437         3.45173         1.03318 
        2.46052         3.44115           1.027 
        2.46665         3.43203         1.02088 
        2.47279         3.40994         1.01481 
        2.47892         3.40743         1.00878 
        2.48507         3.39002          1.0028 
         2.4912         3.38696        0.996885 
