# k  (h/Mpc)    P(k)  (Mpc/h)^3    P_linear(k)  (Mpc/h)^3
     0.00783031         1357.84         1368.14 
       0.013688         1789.45         1811.25 
       0.019231         1931.27         1942.26 
      0.0249154         1896.37         1897.54 
      0.0312784         1735.59         1740.51 
      0.0375637          1550.2         1557.59 
      0.0433917         1406.43         1405.98 
      0.0492413         1281.46         1285.94 
      0.0555754         1190.53         1189.61 
      0.0619321         1102.11         1114.86 
       0.067871         1046.06            1051 
      0.0738098         979.932          983.35 
      0.0800417         903.923         904.844 
      0.0862327         819.254          822.31 
      0.0921407           742.9         745.687 
      0.0982031         676.363         675.729 
       0.104506         612.942         616.627 
       0.110769         569.561         572.302 
       0.116806         542.632         540.663 
       0.122832         513.668         515.735 
       0.129052         492.144           492.3 
       0.135211         469.916         467.777 
       0.141259         440.682         440.886 
       0.147318         408.876         411.678 
       0.153489         381.525         381.555 
       0.159709         355.942         353.259 
       0.165845         327.879         329.229 
       0.171974         314.021         309.846 
       0.178125         299.064         294.669 
       0.184229         284.217         282.668 
        0.19034         276.208          272.18 
       0.196428         265.767         261.856 
       0.202534         251.405         250.739 
       0.208729         242.236         238.461 
       0.214876         231.397         225.685 
       0.220989         215.568         213.137 
       0.227147          208.02         201.428 
        0.23329          198.65          191.21 
       0.239377         191.116         182.689 
       0.245482         182.757         175.555 
       0.251667         175.471         169.336 
       0.257832         172.072         163.628 
       0.263955          164.29         157.997 
       0.270079         158.567         152.152 
        0.27624         151.482         146.025 
       0.282372         146.036         139.826 
        0.28843         142.793          133.85 
       0.294538         136.461         128.206 
       0.300721          130.38         123.051 
        0.30691         127.512         118.488 
       0.313033          122.78         114.498 
       0.319153         120.632         110.881 
       0.325316         115.511         107.448 
        0.33145          112.03         104.094 
       0.337538         108.891         100.754 
       0.343633         105.788         97.3803 
       0.349808         102.276         93.9863 
       0.355968         99.0509         90.6934 
       0.362074         96.9511         87.6008 
       0.368217         94.1063          84.709 
       0.374374         92.1935         82.0425 
       0.380519         88.3868         79.5938 
       0.386598         86.0393         77.3287 
       0.392688         83.7263         75.1678 
        0.39888         82.1545         73.0331 
       0.405048         80.2349         70.9377 
       0.411186         78.2101         68.8823 
       0.417313         76.0964         66.8666 
       0.423458         73.9492         64.9042 
       0.429607         72.7123         63.0245 
       0.435692         71.4074         61.2599 
       0.441815         68.8143         59.5825 
       0.447964         66.9031         57.9947 
       0.454126         65.7667         56.4827 
       0.460267         65.1791         55.0361 
       0.466387         63.3785         53.6407 
        0.47254          62.483         52.2742 
       0.478662         60.5876         50.9439 
       0.484765         59.3968         49.6501 
       0.490885         57.7681         48.3917 
       0.497035         56.9264         47.1716 
       0.503198         55.5972         45.9967 
       0.509342         54.2332         44.8744 
       0.515458         53.6003         43.8058 
       0.521598           52.38         42.7755 
       0.527764         51.7316         41.7771 
       0.533884         50.5811         40.8165 
           0.54         49.6027         39.8842 
       0.546137         48.1837         38.9742 
       0.552299         47.4361         38.0848 
       0.558452         46.5323         37.2217 
       0.564573         46.1223         36.3889 
       0.570708         44.9074         35.5817 
       0.576825         44.3249         34.8051 
       0.582926         43.6067         34.0568 
       0.589034         42.8092         33.3317 
       0.595184         42.2726          32.624 
       0.601379         41.1641         31.9324 
       0.607522         40.6107         31.2662 
       0.613639          39.945         30.6213 
       0.619772         39.3359         29.9922 
       0.625918         38.5655         29.3785 
       0.632068          38.267         28.7813 
       0.638161         37.5102         28.2062 
         0.6443         36.9621         27.6435 
       0.650464         36.0711         27.0953 
       0.656582         35.8872          26.567 
       0.662703         35.5024         26.0535 
       0.668861         34.5867         25.5509 
       0.675024         34.2148         25.0612 
       0.681124         33.9869          24.589 
       0.687237         33.3336         24.1278 
       0.693381         32.6568         23.6761 
       0.699536         32.5542         23.2353 
       0.705665         31.9682         22.8078 
       0.711789         31.4094         22.3918 
       0.717957         30.8211         21.9838 
        0.72409         30.5771         21.5884 
       0.730186         30.4247         21.2055 
       0.736317         29.8358         20.8299 
       0.742472          29.472         20.4621 
       0.748622         29.0302         20.1035 
        0.75476         28.3469         19.7544 
       0.760888         28.2495         19.4141 
       0.767043         27.8013         19.0806 
       0.773185           27.54         18.7558 
       0.779291         27.3085         18.4404 
       0.785407         26.8352          18.132 
       0.791564         26.6612         17.8289 
       0.797719         26.1306         17.5329 
       0.803834         26.0034         17.2457 
       0.809972         25.5417          16.964 
       0.816124         25.2825          16.688 
       0.822261         25.0214         16.4191 
       0.828378         24.7436         16.1569 
       0.834502         24.5263         15.9003 
       0.840667         24.2793         15.6477 
       0.846816         23.7752         15.4013 
       0.852925         23.6978         15.1619 
       0.859047          23.423         14.9271 
       0.865192         23.1203         14.6966 
       0.871341         22.8215         14.4709 
       0.877463         22.6216          14.251 
       0.883569         22.4947         14.0363 
       0.889708          22.141          13.825 
       0.895864         21.8797         13.6175 
       0.902008         21.6298         13.4148 
       0.908149         21.3817         13.2165 
       0.914301         21.2857         13.0218 
       0.920448         20.9741         12.8313 
       0.926574         20.8458         12.6454 
       0.932687          20.571         12.4635 
       0.938823         20.3335         12.2847 
       0.944975         20.1643         12.1089 
       0.951105         19.9515         11.9373 
       0.957225         19.8492         11.7694 
       0.963368         19.5726         11.6041 
       0.969511         19.3801         11.4421 
       0.975621         19.2014         11.2841 
       0.981748         18.9611         11.1286 
       0.987916         18.8375         10.9752 
        0.99406         18.6794         10.8253 
        1.00019         18.5217         10.6784 
        1.00632         18.3627         10.5345 
        1.01246         18.1948         10.3931 
        1.01859          17.988         10.2545 
        1.02471         17.7904         10.1186 
        1.03085         17.7395         9.98476 
        1.03698         17.5719         9.85365 
        1.04314         17.3775         9.72436 
        1.04929         17.1634         9.59772 
        1.05541         17.1073         9.47387 
        1.06154         16.9625         9.35193 
        1.06769         16.8603         9.23197 
        1.07382         16.5892         9.11454 
        1.07993         16.4545         8.99943 
        1.08607          16.393         8.88586 
        1.09222         16.1955         8.77416 
        1.09836           16.15         8.66453 
        1.10449         15.9098         8.55693 
        1.11063         15.8611         8.45105 
        1.11677         15.7615         8.34702 
         1.1229         15.6162         8.24495 
        1.12903         15.5173         8.14451 
        1.13518         15.2903         8.04569 
        1.14131          15.224         7.94857 
        1.14745         15.0279         7.85313 
        1.15359         14.9316         7.75926 
        1.15973         14.8057          7.6669 
        1.16584         14.7019         7.57647 
        1.17197         14.5834         7.48739 
        1.17811         14.4633         7.39949 
        1.18424         14.3741         7.31326 
        1.19038         14.2969         7.22818 
        1.19652         14.1823         7.14449 
        1.20267         14.0754         7.06215 
        1.20881         13.9414         6.98113 
        1.21495         13.8279         6.90152 
        1.22108         13.7863         6.82318 
         1.2272         13.6602         6.74625 
        1.23334          13.611         6.67035 
        1.23949         13.4739         6.59543 
        1.24562         13.3679         6.52189 
        1.25174         13.2963         6.44959 
        1.25789         13.1369         6.37818 
        1.26402         13.1085         6.30798 
        1.27014         13.0347         6.23903 
        1.27628         12.8747          6.1709 
        1.28244         12.8671         6.10368 
        1.28858         12.7643         6.03755 
        1.29471         12.5963         5.97257 
        1.30084         12.5246          5.9086 
        1.30697          12.512         5.84549 
        1.31312         12.3783         5.78322 
        1.31925         12.3125         5.72206 
        1.32537         12.2404         5.66185 
        1.33151         12.1485          5.6023 
        1.33765          12.056         5.54365 
        1.34378         12.0411         5.48596 
        1.34992         11.9228         5.42907 
        1.35606         11.8342         5.37286 
         1.3622         11.7515         5.31756 
        1.36833         11.6918         5.26318 
        1.37445         11.6158         5.20959 
        1.38059         11.5608         5.15659 
        1.38675         11.4683         5.10421 
        1.39288         11.3775         5.05277 
        1.39901         11.3146         5.00207 
        1.40515         11.2481         4.95196 
         1.4113         11.1625         4.90256 
        1.41742         11.1201         4.85403 
        1.42355         11.0224         4.80607 
         1.4297         10.9845         4.75862 
        1.43585         10.9217         4.71183 
        1.44198         10.8522         4.66586 
        1.44809         10.8001         4.62059 
        1.45423           10.71         4.57576 
        1.46036         10.6613         4.53162 
        1.46649         10.5935         4.48804 
        1.47263         10.5448         4.44501 
        1.47877         10.4745         4.40256 
        1.48491         10.4277         4.36061 
        1.49104         10.3401          4.3193 
        1.49718         10.3137          4.2785 
        1.50333         10.2419         4.23816 
        1.50947         10.1554         4.19843 
         1.5156         10.1423         4.15927 
        1.52172         10.0846         4.12062 
        1.52787         10.0236         4.08238 
          1.534         9.97161         4.04468 
        1.54013         9.91795         4.00749 
        1.54627          9.8567         3.97071 
        1.55241         9.78039         3.93439 
        1.55855         9.77208         3.89858 
        1.56467         9.69224         3.86332 
         1.5708         9.65203          3.8284 
        1.57695         9.57456         3.79385 
        1.58308         9.52032         3.75982 
        1.58922         9.48618         3.72619 
        1.59535         9.43171         3.69298 
         1.6015         9.36501         3.66014 
        1.60764         9.34091         3.62771 
        1.61376         9.30538         3.59577 
        1.61989         9.21438         3.56419 
        1.62604         9.19003         3.53293 
        1.63218         9.14494         3.50206 
        1.63831          9.1066         3.47163 
        1.64444         9.03007         3.44156 
        1.65059         8.99453         3.41177 
        1.65673         8.96336         3.38237 
        1.66285          8.9199          3.3534 
        1.66898         8.86133         3.32477 
        1.67512         8.80972         3.29641 
        1.68127         8.76074         3.26837 
         1.6874         8.74017         3.24071 
        1.69353         8.67693          3.2134 
        1.69967         8.64485         3.18634 
        1.70581          8.5822          3.1596 
        1.71193         8.56718         3.13327 
        1.71806         8.52913         3.10719 
        1.72421          8.4674         3.08136 
        1.73035         8.42915         3.05585 
        1.73649         8.39442         3.03064 
        1.74262         8.34015         3.00574 
        1.74876          8.3259          2.9811 
        1.75489         8.28053         2.95679 
        1.76101         8.22251         2.93276 
        1.76715         8.20989         2.90896 
        1.77329         8.17115          2.8854 
        1.77943         8.10809          2.8621 
        1.78557         8.09547         2.83909 
        1.79171         8.06317         2.81632 
        1.79785         8.01286         2.79381 
        1.80399         7.94641         2.77155 
        1.81012         7.93413         2.74956 
        1.81625         7.89306         2.72782 
        1.82239         7.85806         2.70629 
        1.82853         7.81514           2.685 
        1.83466          7.7687         2.66396 
        1.84078         7.74558         2.64317 
        1.84692         7.71697         2.62258 
        1.85306         7.68341         2.60217 
         1.8592         7.65887         2.58202 
        1.86533         7.62322          2.5621 
        1.87147         7.57597         2.54236 
        1.87761          7.5663         2.52282 
        1.88375         7.51676         2.50352 
        1.88988         7.47945         2.48443 
        1.89601         7.45383         2.46554 
        1.90215         7.39871         2.44683 
        1.90829         7.39603         2.42833 
        1.91442         7.34336         2.41001 
        1.92056          7.3339          2.3919 
         1.9267         7.28458         2.37396 
        1.93284         7.27958          2.3562 
        1.93897         7.22516         2.33865 
        1.94509         7.18908         2.32132 
        1.95123         7.16864         2.30413 
        1.95737         7.14257         2.28709 
        1.96349         7.08746         2.27028 
        1.96964         7.06955         2.25358 
        1.97578         7.04601         2.23705 
        1.98192         7.00771         2.22072 
        1.98805         6.98824         2.20454 
        1.99419         6.96755         2.18854 
        2.00033         6.91302         2.17268 
        2.00647         6.90966         2.15698 
         2.0126         6.87289         2.14147 
        2.01874         6.85339         2.12609 
        2.02488         6.81796         2.11085 
        2.03101         6.77419         2.09578 
        2.03714         6.75857         2.08088 
        2.04328         6.73353         2.06611 
        2.04941         6.70268         2.05149 
        2.05554         6.68503         2.03703 
        2.06167         6.64892         2.02268 
        2.06781         6.62669         2.00847 
        2.07396         6.59378         1.99438 
        2.08009         6.57788         1.98046 
        2.08622          6.5506         1.96668 
        2.09237         6.54094           1.953 
        2.09851         6.48837         1.93946 
        2.10464          6.4731         1.92606 
        2.11077         6.45823         1.91281 
        2.11691         6.43808         1.89966 
        2.12305         6.40093         1.88662 
        2.12918         6.38207         1.87375 
        2.13531         6.34748         1.86099 
        2.14145         6.33532         1.84833 
         2.1476         6.29926         1.83576 
        2.15372         6.28336         1.82338 
        2.15985         6.26265          1.8111 
        2.16599         6.23789          1.7989 
        2.17213         6.22023         1.78683 
        2.17827         6.17902         1.77487 
         2.1844          6.1564         1.76303 
        2.19054         6.13964         1.75129 
        2.19666          6.1208         1.73968 
         2.2028         6.08023         1.72817 
        2.20893         6.07743         1.71675 
        2.21508         6.06322         1.70543 
        2.22122         6.01174          1.6942 
        2.22736         6.00871          1.6831 
        2.23349         5.98034          1.6721 
        2.23962         5.96712         1.66119 
        2.24577         5.92697         1.65038 
         2.2519         5.91835         1.63967 
        2.25802         5.88801         1.62908 
        2.26417         5.86921         1.61855 
        2.27031         5.84604         1.60811 
        2.27644         5.82741         1.59779 
        2.28257         5.80883         1.58756 
        2.28872         5.79114          1.5774 
        2.29486         5.76415         1.56733 
        2.30099         5.73984         1.55738 
        2.30712         5.72623          1.5475 
        2.31326         5.70279          1.5377 
         2.3194         5.68267         1.52798 
        2.32553         5.66069         1.51837 
        2.33166          5.6475         1.50884 
         2.3378         5.62622         1.49939 
        2.34394         5.60431         1.49001 
        2.35007         5.57548         1.48072 
        2.35619         5.56903         1.47153 
        2.36233         5.54218         1.46239 
        2.36848          5.5336         1.45331 
        2.37462         5.50993         1.44433 
        2.38075         5.49706         1.43544 
        2.38689         5.47625         1.42661 
        2.39303         5.45332         1.41785 
        2.39916         5.43387         1.40919 
        2.40529         5.41412         1.40059 
        2.41143         5.40443         1.39206 
        2.41757         5.39016          1.3836 
         2.4237         5.36332         1.37522 
        2.42983         5.35541         1.36692 
        2.43598         5.33765         1.35866 
        2.44211         5.30927         1.35048 
        2.44823         5.28686         1.34239 
        2.45437         5.27198         1.33435 
        2.46052         5.25901         1.32636 
        2.46665         5.24668         1.31846 
        2.47279         5.20558         1.31062 
        2.47892         5.20362         1.30284 
        2.48507         5.19127         1.29512 
         2.4912         5.17367         1.28747 
