# k  (h/Mpc)    P(k)  (Mpc/h)^3    P_linear(k)  (Mpc/h)^3
     0.00783031         2892.68         2928.69 
       0.013688         3573.82         3571.71 
       0.019231         3587.93         3586.14 
      0.0249154         3264.69         3292.85 
      0.0312784         2832.84         2839.01 
      0.0375637         2426.83         2419.71 
      0.0433917         2109.31         2117.71 
      0.0492413         1902.54         1902.33 
      0.0555754         1725.18         1740.82 
      0.0619321         1622.72         1614.17 
       0.067871         1487.57         1497.86 
      0.0738098         1359.15         1369.29 
      0.0800417         1209.14         1222.87 
      0.0862327         1073.85         1078.81 
      0.0921407         958.388         956.756 
      0.0982031         854.673         856.468 
       0.104506         790.162         780.858 
       0.110769         736.353         729.282 
       0.116806         694.072         692.773 
       0.122832         664.692         659.991 
       0.129052         621.492         622.861 
       0.135211         579.712         580.043 
       0.141259         539.205          533.82 
       0.147318         496.609          487.62 
       0.153489         452.223         445.284 
       0.159709         419.939         410.527 
       0.165845         398.496         384.655 
       0.171974         375.315         365.668 
       0.178125         360.542         350.729 
       0.184229         347.406         337.028 
        0.19034         326.779         322.219 
       0.196428         314.822         305.477 
       0.202534         300.278         287.123 
       0.208729         280.371         268.253 
       0.214876         261.654         250.821 
       0.220989         250.439         235.871 
       0.227147         235.436         223.621 
        0.23329         225.817         213.885 
       0.239377         219.239         205.884 
       0.245482         207.716         198.561 
       0.251667         203.346         191.054 
       0.257832         195.511         183.047 
       0.263955         187.099         174.602 
       0.270079         178.922         166.008 
        0.27624         173.314         157.695 
       0.282372         165.771         150.174 
        0.28843         158.615         143.678 
       0.294538         152.249         138.063 
       0.300721         149.205         133.118 
        0.30691         142.766          128.61 
       0.313033         138.612         124.291 
       0.319153         132.276         119.933 
       0.325316         129.709         115.441 
        0.33145         124.567          110.94 
       0.337538          121.44         106.569 
       0.343633         116.891         102.438 
       0.349808         113.196         98.5904 
       0.355968         110.211          95.128 
       0.362074         106.755         92.0165 
       0.368217         103.701         89.1281 
       0.374374         100.639         86.3785 
       0.380519         98.1882         83.6938 
       0.386598         95.4532          81.065 
       0.392688         93.4579         78.4509 
        0.39888         90.6868         75.8448 
       0.405048         88.4216          73.348 
       0.411186         86.2892         70.9935 
       0.417313         83.6243          68.793 
       0.423458         81.5666         66.7382 
       0.429607         79.4374         64.8067 
       0.435692          76.862         62.9908 
       0.441815         75.8982         61.2324 
       0.447964         74.5742         59.5119 
       0.454126          71.384         57.8228 
       0.460267         70.2986         56.1816 
       0.466387         68.5157          54.596 
        0.47254         67.3576         53.0609 
       0.478662         66.2512         51.6014 
       0.484765         64.3203         50.2196 
       0.490885         62.9586         48.9006 
       0.497035         62.1165         47.6321 
       0.503198          60.421         46.4097 
       0.509342         58.9111         45.2322 
       0.515458         57.8364         44.0945 
       0.521598         56.9402         42.9821 
       0.527764         55.8315         41.8964 
       0.533884         54.8668         40.8536 
           0.54         53.7032         39.8493 
       0.546137         52.9636         38.8795 
       0.552299          52.141         37.9421 
       0.558452         50.6015         37.0407 
       0.564573         49.7619         36.1758 
       0.570708         49.0765         35.3381 
       0.576825         48.0134          34.529 
       0.582926         47.0616         33.7453 
       0.589034         45.9296         32.9821 
       0.595184         45.3669         32.2358 
       0.601379         44.6393          31.507 
       0.607522         43.6527         30.8075 
       0.613639         43.3871         30.1339 
       0.619772         42.2789         29.4803 
       0.625918         42.0242         28.8458 
       0.632068         41.3702         28.2299 
       0.638161         40.6033         27.6374 
         0.6443         39.8573         27.0573 
       0.650464         39.2102         26.4916 
       0.656582         38.9178          25.946 
       0.662703         38.1354         25.4156 
       0.668861         37.5304         24.8971 
       0.675024         36.9323         24.3927 
       0.681124         36.2932         23.9076 
       0.687237         35.6724         23.4349 
       0.693381         35.4009         22.9728 
       0.699536         34.5754         22.5225 
       0.705665         34.5948         22.0864 
       0.711789         33.7394         21.6623 
       0.717957         33.3468         21.2465 
        0.72409         32.8793         20.8441 
       0.730186         32.3866         20.4545 
       0.736317         32.1085         20.0729 
       0.742472         31.5416         19.6996 
       0.748622          31.269         19.3362 
        0.75476         30.7706         18.9827 
       0.760888         30.3038         18.6387 
       0.767043         29.9714         18.3019 
       0.773185         29.4841         17.9741 
       0.779291         29.3427         17.6563 
       0.785407         29.0167         17.3457 
       0.791564         28.4918         17.0406 
       0.797719         27.9019         16.7431 
       0.803834         27.8691         16.4547 
       0.809972         27.5697          16.172 
       0.816124         26.9686         15.8954 
       0.822261         26.7793          15.626 
       0.828378         26.5437         15.3637 
       0.834502         26.2492         15.1073 
       0.840667         25.9336         14.8551 
       0.846816         25.4993         14.6094 
       0.852925          25.276         14.3709 
       0.859047         24.9852         14.1372 
       0.865192          24.745         13.9079 
       0.871341         24.5923         13.6837 
       0.877463         24.1215         13.4654 
       0.883569          23.869         13.2524 
       0.889708         23.5853          13.043 
       0.895864         23.3916         12.8376 
       0.902008           23.21         12.6371 
       0.908149         22.9588         12.4409 
       0.914301         22.8588         12.2487 
       0.920448         22.4007         12.0607 
       0.926574         22.2428         11.8773 
       0.932687          22.002         11.6982 
       0.938823         21.7127         11.5221 
       0.944975         21.5291         11.3492 
       0.951105         21.3445         11.1805 
       0.957225         21.1061         11.0155 
       0.963368         20.9715         10.8534 
       0.969511          20.782         10.6944 
       0.975621         20.6076         10.5396 
       0.981748         20.3167         10.3874 
       0.987916         20.2052         10.2373 
        0.99406         19.9667         10.0907 
        1.00019         19.7138         9.94723 
        1.00632         19.6347         9.80673 
        1.01246         19.4709         9.66874 
        1.01859         19.1754         9.53363 
        1.02471         19.1249         9.40127 
        1.03085         18.9427         9.27098 
        1.03698          18.638         9.14345 
        1.04314         18.5349         9.01777 
        1.04929         18.3308         8.89477 
        1.05541         18.1429         8.77455 
        1.06154         18.0462         8.65628 
        1.06769         17.9384         8.54001 
        1.07382         17.7258         8.42626 
        1.07993          17.631         8.31485 
        1.08607         17.4137         8.20501 
        1.09222         17.3176         8.09704 
        1.09836         17.1024         7.99115 
        1.10449         17.0064         7.88728 
        1.11063         16.8122         7.78515 
        1.11677         16.7543         7.68487 
         1.1229          16.661         7.58654 
        1.12903         16.4409         7.48984 
        1.13518         16.2648         7.39475 
        1.14131         16.2167         7.30138 
        1.14745         16.0825         7.20966 
        1.15359         15.9833         7.11951 
        1.15973         15.8242         7.03087 
        1.16584         15.6172         6.94414 
        1.17197         15.5992         6.85874 
        1.17811         15.4387         6.77453 
        1.18424         15.3081         6.69197 
        1.19038         15.2521         6.61055 
        1.19652         15.1142         6.53053 
        1.20267          14.983         6.45182 
        1.20881         14.9165         6.37444 
        1.21495         14.8099         6.29844 
        1.22108         14.6585          6.2237 
         1.2272         14.5329         6.15035 
        1.23334         14.4394         6.07801 
        1.23949         14.3052         6.00666 
        1.24562         14.2624         5.93666 
        1.25174         14.1712         5.86787 
        1.25789         14.0557         5.79997 
        1.26402         14.0015         5.73327 
        1.27014         13.8598         5.66777 
        1.27628         13.7009         5.60311 
        1.28244         13.6494         5.53933 
        1.28858         13.6179         5.47663 
        1.29471         13.4756         5.41505 
        1.30084         13.3565         5.35447 
        1.30697          13.297         5.29472 
        1.31312         13.1545         5.23581 
        1.31925         13.0672         5.17797 
        1.32537         13.0279         5.12107 
        1.33151         12.9232         5.06482 
        1.33765         12.8454         5.00945 
        1.34378         12.7636         4.95502 
        1.34992         12.6318         4.90136 
        1.35606         12.6061         4.84838 
         1.3622         12.5249         4.79628 
        1.36833           12.41         4.74507 
        1.37445         12.3654         4.69464 
        1.38059          12.287         4.64478 
        1.38675         12.1592         4.59553 
        1.39288         12.1268         4.54719 
        1.39901         12.0177         4.49957 
        1.40515         11.9669         4.45252 
         1.4113         11.8841         4.40617 
        1.41742          11.803         4.36065 
        1.42355         11.7319         4.31568 
         1.4297         11.6771         4.27122 
        1.43585         11.6301          4.2274 
        1.44198         11.5375         4.18436 
        1.44809         11.4711           4.142 
        1.45423         11.3923         4.10007 
        1.46036         11.3309         4.05879 
        1.46649         11.2818         4.01807 
        1.47263         11.1763         3.97788 
        1.47877         11.1216         3.93825 
        1.48491         11.0713          3.8991 
        1.49104          11.011         3.86057 
        1.49718           10.94         3.82252 
        1.50333         10.8861         3.78493 
        1.50947         10.8181         3.74793 
         1.5156         10.7437         3.71147 
        1.52172         10.6982         3.67549 
        1.52787         10.6264         3.63993 
          1.534         10.5584         3.60487 
        1.54013         10.4954         3.57031 
        1.54627         10.4271         3.53615 
        1.55241         10.3883         3.50242 
        1.55855         10.3363         3.46919 
        1.56467         10.2633         3.43647 
         1.5708         10.2521         3.40409 
        1.57695         10.1558         3.37207 
        1.58308         10.1048         3.34054 
        1.58922         10.0638         3.30939 
        1.59535          10.016         3.27865 
         1.6015         9.93787         3.24826 
        1.60764         9.87995         3.21826 
        1.61376         9.86188         3.18873 
        1.61989         9.77942         3.15955 
        1.62604         9.75395         3.13066 
        1.63218         9.69906         3.10216 
        1.63831         9.65756         3.07407 
        1.64444         9.58453         3.04632 
        1.65059         9.52347         3.01885 
        1.65673         9.51263         2.99174 
        1.66285         9.41329         2.96504 
        1.66898         9.39478         2.93866 
        1.67512         9.35157         2.91255 
        1.68127         9.29416         2.88673 
         1.6874         9.25525         2.86128 
        1.69353         9.19401         2.83616 
        1.69967         9.15293         2.81127 
        1.70581         9.11404         2.78669 
        1.71193         9.05282         2.76251 
        1.71806         9.03397         2.73855 
        1.72421          8.9652         2.71484 
        1.73035         8.94253         2.69143 
        1.73649         8.89907          2.6683 
        1.74262         8.85255         2.64546 
        1.74876         8.81977         2.62287 
        1.75489         8.77398          2.6006 
        1.76101          8.7046         2.57858 
        1.76715         8.69975          2.5568 
        1.77329         8.62901         2.53523 
        1.77943         8.58771         2.51391 
        1.78557         8.57175         2.49286 
        1.79171         8.53324         2.47205 
        1.79785         8.46787         2.45148 
        1.80399         8.43192         2.43114 
        1.81012         8.40382         2.41106 
        1.81625         8.35299         2.39121 
        1.82239         8.32152         2.37156 
        1.82853         8.26667         2.35214 
        1.83466         8.23525         2.33296 
        1.84078         8.18739           2.314 
        1.84692         8.17903         2.29523 
        1.85306         8.12503         2.27665 
         1.8592         8.08367         2.25829 
        1.86533         8.05559         2.24016 
        1.87147         8.02128         2.22219 
        1.87761         7.99145         2.20442 
        1.88375         7.93298         2.18686 
        1.88988          7.9292         2.16952 
        1.89601         7.88216         2.15235 
        1.90215         7.83896         2.13535 
        1.90829          7.8044         2.11854 
        1.91442         7.77126         2.10192 
        1.92056         7.74738         2.08548 
         1.9267         7.70436         2.06921 
        1.93284         7.66595         2.05309 
        1.93897         7.62548         2.03718 
        1.94509         7.60441         2.02148 
        1.95123         7.57124          2.0059 
        1.95737         7.53444         1.99047 
        1.96349         7.50723         1.97524 
        1.96964         7.46627         1.96013 
        1.97578         7.43483         1.94516 
        1.98192         7.40416         1.93039 
        1.98805         7.38218         1.91577 
        1.99419         7.34355         1.90129 
        2.00033         7.32784         1.88696 
        2.00647         7.28995         1.87278 
         2.0126         7.25242         1.85877 
        2.01874         7.22686         1.84489 
        2.02488         7.18971         1.83113 
        2.03101         7.16323         1.81753 
        2.03714         7.12602         1.80409 
        2.04328         7.10648         1.79077 
        2.04941         7.06637         1.77759 
        2.05554         7.04838         1.76456 
        2.06167         7.00795         1.75163 
        2.06781         6.99561         1.73884 
        2.07396         6.97108         1.72615 
        2.08009         6.93463         1.71362 
        2.08622         6.89506         1.70122 
        2.09237         6.88564         1.68892 
        2.09851         6.86585         1.67674 
        2.10464         6.82598         1.66469 
        2.11077         6.78286         1.65279 
        2.11691         6.75963         1.64097 
        2.12305         6.73971         1.62926 
        2.12918         6.72424          1.6177 
        2.13531         6.68812         1.60625 
        2.14145         6.66678         1.59488 
         2.1476         6.63226         1.58362 
        2.15372         6.61186         1.57251 
        2.15985         6.60182          1.5615 
        2.16599         6.55918         1.55057 
        2.17213         6.54469         1.53975 
        2.17827         6.52133         1.52903 
         2.1844         6.48953         1.51843 
        2.19054         6.44624         1.50792 
        2.19666         6.43765         1.49753 
         2.2028           6.413         1.48723 
        2.20893         6.39512         1.47702 
        2.21508         6.35945         1.46689 
        2.22122         6.33236         1.45685 
        2.22736         6.31548         1.44693 
        2.23349         6.29202         1.43711 
        2.23962         6.27695         1.42736 
        2.24577         6.24197          1.4177 
         2.2519         6.22788         1.40815 
        2.25802         6.19539         1.39869 
        2.26417         6.17426          1.3893 
        2.27031         6.14829         1.37998 
        2.27644         6.12584         1.37078 
        2.28257          6.1061         1.36166 
        2.28872         6.08453         1.35261 
        2.29486         6.06445         1.34364 
        2.30099         6.04761         1.33477 
        2.30712         6.02384         1.32597 
        2.31326         5.98509         1.31725 
         2.3194         5.97064          1.3086 
        2.32553         5.95983         1.30004 
        2.33166         5.93588         1.29157 
         2.3378         5.90961         1.28316 
        2.34394         5.88978         1.27482 
        2.35007         5.86045         1.26657 
        2.35619         5.84259          1.2584 
        2.36233         5.82231         1.25028 
        2.36848         5.80581         1.24222 
        2.37462          5.7876         1.23424 
        2.38075          5.7675         1.22634 
        2.38689         5.74605         1.21851 
        2.39303         5.71764         1.21074 
        2.39916         5.70309         1.20305 
        2.40529         5.68359         1.19543 
        2.41143          5.6595         1.18787 
        2.41757         5.65888         1.18037 
         2.4237         5.63025         1.17295 
        2.42983         5.60756         1.16559 
        2.43598         5.59347         1.15828 
        2.44211         5.56845         1.15104 
        2.44823         5.55551         1.14387 
        2.45437         5.53564         1.13675 
        2.46052         5.50691         1.12969 
        2.46665         5.49298          1.1227 
        2.47279         5.46896         1.11576 
        2.47892         5.44647         1.10889 
        2.48507         5.43541         1.10206 
         2.4912         5.41125          1.0953 
