# k  (h/Mpc)    P(k)  (Mpc/h)^3    P_linear(k)  (Mpc/h)^3
     0.00783031         3994.28         4029.53 
       0.013688         4655.65         4732.57 
       0.019231          4526.6         4562.09 
      0.0249154          4006.2         3994.74 
      0.0312784         3254.29         3255.94 
      0.0375637         2629.36         2639.21 
      0.0433917         2241.37         2234.17 
      0.0492413         1971.99            1974 
      0.0555754         1810.27         1802.26 
      0.0619321         1657.04         1678.17 
       0.067871         1553.11         1558.17 
      0.0738098         1413.03         1412.97 
      0.0800417         1244.31         1238.18 
      0.0862327         1067.58         1064.04 
      0.0921407          925.51         919.713 
      0.0982031         820.181         807.196 
       0.104506         733.729         729.998 
       0.110769         689.663         684.712 
       0.116806         667.636         657.261 
       0.122832         635.763         632.233 
       0.129052         604.133         598.691 
       0.135211         565.035         554.322 
       0.141259          511.04         503.212 
       0.147318         457.261         451.435 
       0.153489         414.713         405.111 
       0.159709         383.431         369.294 
       0.165845         352.939         345.245 
       0.171974         344.404         330.012 
       0.178125         332.304         319.455 
       0.184229          317.16         309.413 
        0.19034         307.441         296.706 
       0.196428         291.847          280.33 
       0.202534         268.237         261.113 
       0.208729         254.206         240.986 
       0.214876         238.423         222.746 
       0.220989         219.848         207.898 
       0.227147         212.577         196.715 
        0.23329         204.422         188.731 
       0.239377         199.361         182.714 
       0.245482         191.188         177.181 
       0.251667         183.148         170.938 
       0.257832         179.197         163.547 
       0.263955         168.052         155.214 
       0.270079         159.518         146.499 
        0.27624         150.992         138.138 
       0.282372         144.805         130.836 
        0.28843         141.853         124.888 
       0.294538         135.411         120.102 
       0.300721         129.948         116.123 
        0.30691         127.698         112.551 
       0.313033         122.486         108.981 
       0.319153         120.042         105.146 
       0.325316         114.901         100.958 
        0.33145         110.522         96.6369 
       0.337538         106.317         92.4177 
       0.343633         102.725         88.5013 
       0.349808         99.0254         84.9849 
       0.355968         96.0313         81.9544 
       0.362074         94.0485          79.344 
       0.368217         91.5063         76.9595 
       0.374374         89.2238         74.6711 
       0.380519          85.484          72.365 
       0.386598         83.1943         70.0193 
       0.392688          80.424         67.6308 
        0.39888         78.8153         65.2158 
       0.405048         76.6962         62.9122 
       0.411186         74.7124         60.7844 
       0.417313         72.5624         58.8397 
       0.423458         70.5215          57.071 
       0.429607         69.1104         55.4399 
       0.435692         67.9868         53.9072 
       0.441815         65.5036         52.4052 
       0.447964         63.3858         50.9141 
       0.454126         62.2145         49.4208 
       0.460267          61.523         47.9497 
       0.466387         59.7541         46.5274 
        0.47254         58.8742         45.1618 
       0.478662         56.7667         43.8764 
       0.484765         55.6747         42.6741 
       0.490885         54.1009         41.5441 
       0.497035           53.44         40.4654 
       0.503198         52.2183         39.4227 
       0.509342         50.7487         38.4085 
       0.515458         49.9854         37.4218 
       0.521598         48.7265         36.4525 
       0.527764          48.042         35.5013 
       0.533884         47.2568          34.586 
           0.54         46.0855          33.707 
       0.546137         44.7477         32.8662 
       0.552299         43.9286         32.0614 
       0.558452         43.0032         31.2911 
       0.564573         42.6659         30.5517 
       0.570708         41.4328         29.8331 
       0.576825         40.9546         29.1373 
       0.582926         40.2989         28.4627 
       0.589034         39.4464         27.8054 
       0.595184         38.9034         27.1616 
       0.601379         37.8677         26.5323 
       0.607522         37.1781         25.9284 
       0.613639         36.7212         25.3478 
       0.619772          35.967         24.7871 
       0.625918         35.3863         24.2452 
       0.632068         34.9881         23.7205 
       0.638161         34.2479         23.2161 
         0.6443         33.8227         22.7215 
       0.650464         32.9633         22.2376 
       0.656582         32.7684         21.7698 
       0.662703         32.2804         21.3146 
       0.668861         31.4738         20.8698 
       0.675024          31.161         20.4381 
       0.681124         30.8763          20.024 
       0.687237         30.2362         19.6215 
       0.693381         29.7159         19.2287 
       0.699536         29.4748         18.8463 
       0.705665          28.932         18.4758 
       0.711789         28.4615         18.1154 
       0.717957         27.9236         17.7616 
        0.72409         27.6223          17.419 
       0.730186         27.4643         17.0873 
       0.736317          26.899         16.7624 
       0.742472         26.5839         16.4447 
       0.748622         26.1487         16.1358 
        0.75476         25.5757         15.8357 
       0.760888         25.5252         15.5438 
       0.767043         25.0213         15.2584 
       0.773185         24.7215         14.9808 
       0.779291         24.4084         14.7117 
       0.785407         24.0707          14.449 
       0.791564          23.962         14.1909 
       0.797719            23.4         13.9393 
       0.803834         23.2961         13.6954 
       0.809972         22.8723         13.4563 
       0.816124         22.6235         13.2225 
       0.822261         22.3456         12.9948 
       0.828378         22.1528         12.7732 
       0.834502          21.899         12.5566 
       0.840667         21.6572         12.3437 
       0.846816         21.2256         12.1363 
       0.852925         21.1321          11.935 
       0.859047         20.9308         11.7379 
       0.865192         20.6038         11.5446 
       0.871341         20.3551         11.3556 
       0.877463         20.1139         11.1717 
       0.883569         19.9947         10.9923 
       0.889708          19.694          10.816 
       0.895864         19.4443         10.6431 
       0.902008         19.2453         10.4744 
       0.908149         18.9945         10.3094 
       0.914301         18.8614         10.1477 
       0.920448         18.6243         9.98968 
       0.926574         18.4441         9.83557 
       0.932687         18.2077         9.68504 
       0.938823         17.9586         9.53713 
       0.944975         17.8391         9.39198 
       0.951105         17.6716         9.25037 
       0.957225         17.5222         9.11193 
       0.963368         17.2655         8.97586 
       0.969511         17.1085         8.84257 
       0.975621         16.9694         8.71271 
       0.981748         16.7451         8.58512 
       0.987916         16.6417          8.4593 
        0.99406         16.4066         8.33647 
        1.00019         16.3041         8.21633 
        1.00632         16.1784         8.09867 
        1.01246         15.9845         7.98314 
        1.01859         15.8243         7.87006 
        1.02471         15.6713         7.75931 
        1.03085         15.5834         7.65031 
        1.03698         15.4578         7.54365 
        1.04314         15.2561         7.43856 
        1.04929         15.0695         7.33573 
        1.05541         14.9991         7.23526 
        1.06154         14.8731         7.13643 
        1.06769          14.693          7.0393 
        1.07382         14.5498          6.9443 
        1.07993         14.4304         6.85128 
        1.08607         14.3264         6.75958 
        1.09222         14.1765         6.66947 
        1.09836         14.0471         6.58111 
        1.10449         13.9612         6.49446 
        1.11063         13.8596         6.40927 
        1.11677         13.7789         6.32565 
         1.1229         13.6233         6.24367 
        1.12903         13.4936         6.16307 
        1.13518         13.3952         6.08383 
        1.14131         13.2985         6.00603 
        1.14745          13.118         5.92964 
        1.15359         12.9935         5.85456 
        1.15973         12.9225         5.78075 
        1.16584         12.7977         5.70855 
        1.17197         12.6672         5.63747 
        1.17811          12.601         5.56739 
        1.18424         12.4936          5.4987 
        1.19038         12.4428         5.43098 
        1.19652         12.2858         5.36442 
        1.20267         12.2391         5.29897 
        1.20881         12.0834         5.23463 
        1.21495         12.0203         5.17146 
        1.22108         11.9528         5.10934 
         1.2272         11.8449         5.04839 
        1.23334         11.7794         4.98829 
        1.23949         11.6715         4.92903 
        1.24562         11.5502          4.8709 
        1.25174         11.5157         4.81379 
        1.25789         11.4195         4.75742 
        1.26402         11.3362         4.70206 
        1.27014         11.2809         4.64772 
        1.27628         11.1499         4.59407 
        1.28244         11.1307         4.54116 
        1.28858         11.0021         4.48916 
        1.29471         10.8915         4.43809 
        1.30084         10.8191         4.38786 
        1.30697         10.7761         4.33834 
        1.31312          10.692          4.2895 
        1.31925         10.6298         4.24158 
        1.32537         10.5289         4.19443 
        1.33151         10.4616         4.14783 
        1.33765          10.412         4.10197 
        1.34378         10.3575         4.05689 
        1.34992         10.2609         4.01246 
        1.35606         10.1587          3.9686 
         1.3622         10.0967         3.92547 
        1.36833         10.0708         3.88309 
        1.37445         9.99501         3.84135 
        1.38059         9.91682          3.8001 
        1.38675         9.86886         3.75935 
        1.39288          9.7771         3.71936 
        1.39901         9.70849         3.67998 
        1.40515         9.65545         3.64107 
         1.4113         9.59035         3.60275 
        1.41742         9.54577         3.56512 
        1.42355         9.45719         3.52795 
         1.4297          9.4022         3.49121 
        1.43585         9.35146           3.455 
        1.44198            9.32         3.41944 
        1.44809         9.24208         3.38445 
        1.45423         9.17667         3.34982 
        1.46036         9.11461         3.31574 
        1.46649         9.06139         3.28212 
        1.47263         9.01299         3.24893 
        1.47877         8.94395         3.21622 
        1.48491         8.90737         3.18391 
        1.49104         8.84455         3.15211 
        1.49718         8.80378         3.12072 
        1.50333         8.75405          3.0897 
        1.50947         8.69754         3.05917 
         1.5156         8.65714          3.0291 
        1.52172         8.57828         2.99943 
        1.52787         8.56974          2.9701 
          1.534         8.49841          2.9412 
        1.54013         8.45775         2.91271 
        1.54627          8.3916         2.88455 
        1.55241         8.32395         2.85675 
        1.55855         8.30346         2.82936 
        1.56467         8.27186         2.80241 
         1.5708         8.21206         2.77573 
        1.57695         8.16399         2.74935 
        1.58308         8.11131         2.72338 
        1.58922          8.0754         2.69773 
        1.59535         8.03718         2.67241 
         1.6015         7.94896         2.64739 
        1.60764         7.91949         2.62269 
        1.61376         7.89249         2.59838 
        1.61989         7.83394         2.57436 
        1.62604         7.81497         2.55059 
        1.63218         7.76979         2.52713 
        1.63831         7.71384         2.50402 
        1.64444         7.66017         2.48119 
        1.65059         7.61832         2.45859 
        1.65673         7.59919          2.4363 
        1.66285         7.54067         2.41434 
        1.66898         7.52599         2.39265 
        1.67512         7.49317         2.37118 
        1.68127         7.41691         2.34996 
         1.6874         7.41043         2.32904 
        1.69353          7.3297         2.30839 
        1.69967         7.31507         2.28794 
        1.70581         7.27507         2.26774 
        1.71193         7.23672         2.24787 
        1.71806         7.19938         2.22819 
        1.72421         7.16045          2.2087 
        1.73035         7.13871         2.18948 
        1.73649         7.10738         2.17048 
        1.74262         7.03571         2.15172 
        1.74876         7.02921         2.13318 
        1.75489         6.99832         2.11489 
        1.76101         6.93208         2.09681 
        1.76715         6.93525         2.07893 
        1.77329         6.88037         2.06123 
        1.77943         6.83385         2.04373 
        1.78557         6.83706         2.02646 
        1.79171          6.7844         2.00938 
        1.79785         6.75831          1.9925 
        1.80399         6.71779         1.97581 
        1.81012         6.68227         1.95934 
        1.81625         6.64784         1.94306 
        1.82239         6.61921         1.92694 
        1.82853         6.57129         1.91102 
        1.83466         6.53552         1.89528 
        1.84078         6.51267         1.87975 
        1.84692         6.49886         1.86435 
        1.85306         6.46426         1.84912 
         1.8592         6.43923         1.83407 
        1.86533         6.39672         1.81921 
        1.87147         6.37356         1.80449 
        1.87761         6.34757         1.78992 
        1.88375         6.31757         1.77553 
        1.88988         6.28179         1.76132 
        1.89601         6.25244         1.74726 
        1.90215         6.22318         1.73333 
        1.90829         6.19564         1.71957 
        1.91442         6.16773         1.70595 
        1.92056         6.15835         1.69249 
         1.9267         6.12214         1.67916 
        1.93284         6.09416         1.66597 
        1.93897         6.05181         1.65295 
        1.94509         6.01818         1.64009 
        1.95123         6.00966         1.62733 
        1.95737         5.98928         1.61471 
        1.96349         5.94137         1.60224 
        1.96964         5.91414         1.58988 
        1.97578         5.90101         1.57763 
        1.98192         5.88005         1.56554 
        1.98805         5.84398         1.55358 
        1.99419         5.82589         1.54174 
        2.00033         5.79549         1.53002 
        2.00647         5.77424         1.51842 
         2.0126         5.74996         1.50696 
        2.01874         5.71479         1.49561 
        2.02488         5.70213         1.48435 
        2.03101          5.6814         1.47324 
        2.03714         5.64105         1.46225 
        2.04328         5.61335         1.45136 
        2.04941         5.59469         1.44059 
        2.05554         5.57515         1.42993 
        2.06167         5.56333         1.41937 
        2.06781         5.53063         1.40891 
        2.07396         5.50465         1.39855 
        2.08009         5.46731          1.3883 
        2.08622          5.4715         1.37817 
        2.09237         5.44437         1.36812 
        2.09851         5.41174         1.35817 
        2.10464         5.39893         1.34834 
        2.11077         5.35706         1.33861 
        2.11691          5.3516         1.32896 
        2.12305         5.32922          1.3194 
        2.12918         5.29564         1.30995 
        2.13531         5.28683          1.3006 
        2.14145         5.25966         1.29132 
         2.1476          5.2454         1.28212 
        2.15372         5.22094         1.27305 
        2.15985         5.19662         1.26407 
        2.16599         5.18371         1.25514 
        2.17213         5.17757         1.24631 
        2.17827         5.14226         1.23757 
         2.1844         5.13103         1.22891 
        2.19054         5.10857         1.22034 
        2.19666         5.08246         1.21186 
         2.2028          5.0614         1.20345 
        2.20893         5.04807         1.19512 
        2.21508         5.01998         1.18686 
        2.22122         4.99555         1.17867 
        2.22736         4.97507         1.17058 
        2.23349         4.95582         1.16257 
        2.23962         4.94305         1.15462 
        2.24577         4.92963         1.14674 
         2.2519         4.92116         1.13895 
        2.25802         4.87079         1.13124 
        2.26417         4.86445         1.12358 
        2.27031         4.84831         1.11599 
        2.27644         4.83747         1.10848 
        2.28257         4.80182         1.10105 
        2.28872         4.78778         1.09367 
        2.29486         4.77439         1.08636 
        2.30099         4.76341         1.07913 
        2.30712         4.73099         1.07196 
        2.31326         4.72093         1.06485 
         2.3194         4.69877          1.0578 
        2.32553         4.68527         1.05083 
        2.33166         4.66284         1.04393 
         2.3378         4.65122         1.03708 
        2.34394         4.62944         1.03028 
        2.35007         4.61581         1.02356 
        2.35619         4.60324         1.01691 
        2.36233         4.57805          1.0103 
        2.36848         4.56391         1.00373 
        2.37462         4.54955        0.997234 
        2.38075         4.53014        0.990804 
        2.38689         4.52273        0.984424 
        2.39303         4.49636        0.978102 
        2.39916         4.48849        0.971841 
        2.40529         4.46715        0.965635 
        2.41143         4.45983         0.95948 
        2.41757         4.43255        0.953374 
         2.4237         4.42423        0.947333 
        2.42983         4.40439        0.941345 
        2.43598         4.39458        0.935392 
        2.44211         4.37167        0.929501 
        2.44823         4.35449        0.923673 
        2.45437         4.34232        0.917879 
        2.46052         4.33616         0.91213 
        2.46665         4.31638         0.90644 
        2.47279         4.29608        0.900801 
        2.47892         4.27982        0.895205 
        2.48507         4.26792        0.889652 
         2.4912         4.25353        0.884156 
