# k  (h/Mpc)    P(k)  (Mpc/h)^3    P_linear(k)  (Mpc/h)^3
     0.00783031         6549.56         6608.08 
       0.013688         7812.52         7971.02 
       0.019231         7781.95         7863.39 
      0.0249154         7093.92         7076.52 
      0.0312784         5959.32         5981.29 
      0.0375637         4995.64         5038.23 
      0.0433917         4400.44         4400.37 
      0.0492413         3946.32         3969.15 
      0.0555754         3652.13         3651.17 
      0.0619321         3313.86         3384.66 
       0.067871         3088.33         3117.06 
      0.0738098         2802.47         2812.28 
      0.0800417         2479.79         2473.58 
      0.0862327         2160.35         2158.77 
      0.0921407          1919.9         1910.63 
      0.0982031          1748.7         1722.33 
       0.104506         1592.72         1590.71 
       0.110769         1507.54         1502.72 
       0.116806         1454.47         1433.03 
       0.122832         1363.86         1358.13 
       0.129052         1277.66         1265.34 
       0.135211         1192.87         1160.36 
       0.141259         1081.01         1055.16 
       0.147318         979.391         959.588 
       0.153489           910.2         880.577 
       0.159709          864.32         821.719 
       0.165845         802.096         780.369 
       0.171974         788.449         748.638 
       0.178125         758.256         718.914 
       0.184229         709.537         686.179 
        0.19034         684.173         648.368 
       0.196428         649.539         607.244 
       0.202534         597.881         566.064 
       0.208729         577.056         528.073 
       0.214876         549.274          496.49 
       0.220989          513.27         471.517 
       0.227147         502.517         451.585 
        0.23329         484.948         434.717 
       0.239377         474.559         418.738 
       0.245482         450.673         401.913 
       0.251667         430.448         383.577 
       0.257832         422.199         364.497 
       0.263955          396.38          345.83 
       0.270079         379.644         328.531 
        0.27624          362.61         313.196 
       0.282372         352.592         300.142 
        0.28843         349.329         289.018 
       0.294538         332.575         278.945 
       0.300721         320.675         269.221 
        0.30691         315.074          259.47 
       0.313033         300.859          249.63 
       0.319153         294.897         239.725 
       0.325316         285.944         229.976 
        0.33145         277.519         220.821 
       0.337538         267.474         212.473 
       0.343633          258.97         204.922 
       0.349808         251.509         197.974 
       0.355968         245.781         191.564 
       0.362074         239.362         185.503 
       0.368217         235.292         179.545 
       0.374374          229.48         173.648 
       0.380519         219.923         167.841 
       0.386598         215.839          162.26 
       0.392688         209.767         156.912 
        0.39888         205.277         151.784 
       0.405048         200.735          147.02 
       0.411186         198.116          142.58 
       0.417313         193.633         138.397 
       0.423458         188.537          134.39 
       0.429607         184.083         130.511 
       0.435692         180.934         126.769 
       0.441815         176.578         123.104 
       0.447964         171.297         119.536 
       0.454126         168.361          116.09 
       0.460267         166.574         112.807 
       0.466387          162.73         109.695 
        0.47254          160.73         106.714 
       0.478662         155.475         103.878 
       0.484765         153.337         101.165 
       0.490885         150.468         98.5401 
       0.497035         148.934         95.9826 
       0.503198         146.266         93.4946 
       0.509342         142.401         91.0925 
       0.515458         140.465         88.7834 
       0.521598         137.055         86.5493 
       0.527764         135.661          84.389 
       0.533884         134.815         82.3255 
           0.54         131.228         80.3414 
       0.546137           128.2         78.4214 
       0.552299         126.507         76.5581 
       0.558452         124.254         74.7556 
       0.564573         123.631         73.0152 
       0.570708         120.265         71.3238 
       0.576825          118.87         69.6902 
       0.582926         117.581         68.1136 
       0.589034         115.591         66.5861 
       0.595184         114.304         65.0976 
       0.601379         111.724         63.6463 
       0.607522         109.709          62.252 
       0.613639         108.838         60.9062 
       0.619772         107.085         59.5976 
       0.625918         106.204         58.3253 
       0.632068         103.974         57.0895 
       0.638161          102.56         55.9004 
         0.6443          101.99         54.7365 
       0.650464          99.802         53.6016 
       0.656582         99.4174         52.5074 
       0.662703         98.1083         51.4439 
       0.668861         95.9834         50.4046 
       0.675024         95.9311         49.3939 
       0.681124         94.3143         48.4218 
       0.687237         92.7072         47.4744 
       0.693381         92.0257         46.5482 
       0.699536         90.8701         45.6454 
       0.705665         89.6233         44.7705 
       0.711789         88.3854         43.9194 
       0.717957         87.3244         43.0847 
        0.72409         86.5419         42.2766 
       0.730186         86.0946         41.4943 
       0.736317         84.6089         40.7277 
       0.742472         83.4295         39.9779 
       0.748622         82.1926         39.2479 
        0.75476         81.9154         38.5379 
       0.760888         81.3601         37.8468 
       0.767043         79.7262         37.1701 
       0.773185         78.7618         36.5115 
       0.779291         77.8997         35.8727 
       0.785407          77.058         35.2485 
       0.791564          76.851         34.6354 
       0.797719         75.6874         34.0373 
       0.803834          75.208         33.4572 
       0.809972         74.5346         32.8888 
       0.816124         73.5619         32.3324 
       0.822261          72.621         31.7905 
       0.828378          72.457         31.2629 
       0.834502         71.4102         30.7468 
       0.840667         70.9277         30.2392 
       0.846816          70.202         29.7447 
       0.852925         69.3937         29.2644 
       0.859047         69.1797         28.7938 
       0.865192         68.1468         28.3321 
       0.871341         67.3964         27.8804 
       0.877463         66.8627         27.4406 
       0.883569         66.7495         27.0115 
       0.889708         66.0343         26.5896 
       0.895864         65.5002         26.1756 
       0.902008         64.7901         25.7714 
       0.908149         64.0162         25.3761 
       0.914301         63.7336         24.9885 
       0.920448         63.5278         24.6094 
       0.926574         62.2315         24.2396 
       0.932687         62.0076         23.8782 
       0.938823         61.4795          23.523 
       0.944975         60.7396         23.1743 
       0.951105         60.2846         22.8339 
       0.957225         60.0801          22.501 
       0.963368         59.4646         22.1736 
       0.969511          58.971         21.8529 
       0.975621         58.4921         21.5402 
       0.981748         57.9466         21.2329 
       0.987916         57.5048         20.9297 
        0.99406         57.1939         20.6336 
        1.00019          56.513         20.3439 
        1.00632         56.1294           20.06 
        1.01246         55.7538         19.7812 
        1.01859         55.4754         19.5081 
        1.02471         54.8473         19.2406 
        1.03085         54.4839         18.9772 
        1.03698         54.1571         18.7194 
        1.04314         53.7173         18.4653 
        1.04929         53.2402         18.2165 
        1.05541         52.9903         17.9733 
        1.06154         52.6288          17.734 
        1.06769          52.021         17.4988 
        1.07382         51.6472         17.2686 
        1.07993         51.4498         17.0432 
        1.08607         51.0219         16.8208 
        1.09222         50.8061         16.6022 
        1.09836         50.3696         16.3878 
        1.10449         50.0879         16.1775 
        1.11063         49.6235         15.9707 
        1.11677         49.4921         15.7676 
         1.1229         48.9564         15.5684 
        1.12903         48.7652         15.3724 
        1.13518         48.6144         15.1798 
        1.14131         48.0905         14.9905 
        1.14745         47.7203         14.8046 
        1.15359         47.2112         14.6219 
        1.15973         47.2093         14.4422 
        1.16584         46.8298         14.2663 
        1.17197         46.3194         14.0931 
        1.17811         46.1333         13.9223 
        1.18424         45.5158         13.7549 
        1.19038         45.4404         13.5897 
        1.19652         45.2318         13.4273 
        1.20267         44.9079         13.2676 
        1.20881         44.6114         13.1105 
        1.21495         44.4285         12.9563 
        1.22108         44.2866         12.8045 
         1.2272         43.8056         12.6556 
        1.23334         43.5893         12.5087 
        1.23949         43.3109         12.3638 
        1.24562         43.0092         12.2216 
        1.25174         42.7337         12.0819 
        1.25789         42.6607         11.9439 
        1.26402         42.3168         11.8084 
        1.27014         42.1608         11.6753 
        1.27628         41.7039         11.5438 
        1.28244         41.6834         11.4142 
        1.28858         41.3154         11.2867 
        1.29471         41.0392         11.1615 
        1.30084         40.7005         11.0383 
        1.30697          40.723         10.9167 
        1.31312         40.3415         10.7969 
        1.31925          39.995         10.6792 
        1.32537         39.8158         10.5635 
        1.33151         39.5619          10.449 
        1.33765         39.4299         10.3363 
        1.34378         39.2582         10.2255 
        1.34992         38.9462         10.1163 
        1.35606         38.6566         10.0084 
         1.3622         38.5179         9.90229 
        1.36833         38.3603           9.798 
        1.37445         37.9752         9.69527 
        1.38059         37.8902         9.59371 
        1.38675         37.5367         9.49337 
        1.39288         37.4723         9.39487 
        1.39901          37.189         9.29783 
        1.40515         37.0408         9.20194 
         1.4113         36.9891         9.10745 
        1.41742         36.7093         9.01466 
        1.42355         36.3995         8.92299 
         1.4297         36.2815         8.83232 
        1.43585         36.0387         8.74296 
        1.44198         35.8171         8.65518 
        1.44809         35.5857         8.56877 
        1.45423         35.4954         8.48323 
        1.46036         35.3594         8.39902 
        1.46649          35.128         8.31592 
        1.47263         34.9071         8.23389 
        1.47877         34.7454           8.153 
        1.48491         34.6015         8.07308 
        1.49104         34.3152          7.9944 
        1.49718          34.259         7.91672 
        1.50333          34.099         7.83995 
        1.50947         33.8499         7.76437 
         1.5156         33.7178         7.68989 
        1.52172         33.4756          7.6164 
        1.52787         33.3863         7.54373 
          1.534         33.1391         7.47209 
        1.54013         33.1466         7.40147 
        1.54627         32.8146         7.33164 
        1.55241         32.6499          7.2627 
        1.55855         32.5691         7.19475 
        1.56467         32.3592         7.12786 
         1.5708          32.253         7.06163 
        1.57695         32.1014         6.99615 
        1.58308         31.8182         6.93166 
        1.58922         31.6882         6.86794 
        1.59535         31.5799         6.80505 
         1.6015         31.5257         6.74286 
        1.60764         31.2604         6.68149 
        1.61376         31.1008         6.62105 
        1.61989         30.8829         6.56131 
        1.62604          30.774         6.50218 
        1.63218         30.6203         6.44382 
        1.63831         30.5198         6.38632 
        1.64444          30.361         6.32949 
        1.65059         30.1989         6.27323 
        1.65673         30.0774         6.21771 
        1.66285         30.0004         6.16303 
        1.66898         29.7541         6.10898 
        1.67512          29.693         6.05548 
        1.68127         29.5168         6.00258 
         1.6874         29.3779         5.95042 
        1.69353          29.292         5.89892 
        1.69967         29.1506         5.84791 
        1.70581         28.9413         5.79753 
        1.71193         28.8093         5.74793 
        1.71806         28.7349         5.69881 
        1.72421         28.5952         5.65017 
        1.73035          28.433         5.60215 
        1.73649         28.2462         5.55471 
        1.74262         28.0907         5.50785 
        1.74876          28.081         5.46151 
        1.75489         27.8799          5.4158 
        1.76101          27.788         5.37062 
        1.76715         27.6765          5.3259 
        1.77329         27.4517         5.28164 
        1.77943         27.4217         5.23787 
        1.78557          27.322         5.19465 
        1.79171         27.1818         5.15192 
        1.79785          27.054         5.10967 
        1.80399          26.911         5.06789 
        1.81012          26.845         5.02665 
        1.81625         26.6057         4.98588 
        1.82239         26.5359          4.9455 
        1.82853         26.4236          4.9056 
        1.83466         26.2921         4.86617 
        1.84078         26.1594         4.82722 
        1.84692         26.0773         4.78864 
        1.85306         25.9151         4.75043 
         1.8592         25.8834          4.7127 
        1.86533         25.7183         4.67541 
        1.87147         25.5891         4.63847 
        1.87761         25.4587         4.60192 
        1.88375         25.4161         4.56581 
        1.88988         25.2743         4.53013 
        1.89601         25.1201         4.49481 
        1.90215         25.0361         4.45984 
        1.90829         24.9702         4.42526 
        1.91442         24.7879         4.39105 
        1.92056         24.7194         4.35722 
         1.9267         24.6399         4.32373 
        1.93284         24.5458         4.29056 
        1.93897         24.4429         4.25781 
        1.94509         24.3262         4.22547 
        1.95123         24.2279         4.19338 
        1.95737         24.0923         4.16161 
        1.96349         24.0147         4.13024 
        1.96964         23.9671         4.09912 
        1.97578         23.7607          4.0683 
        1.98192         23.6908         4.03786 
        1.98805         23.5248         4.00772 
        1.99419         23.4933          3.9779 
        2.00033         23.3677         3.94837 
        2.00647         23.3164         3.91914 
         2.0126         23.1623         3.89026 
        2.01874          23.082         3.86163 
        2.02488         22.9537         3.83327 
        2.03101         22.8372         3.80524 
        2.03714         22.7951         3.77752 
        2.04328          22.684         3.75004 
        2.04941         22.5813         3.72286 
        2.05554          22.514         3.69598 
        2.06167         22.4028         3.66932 
        2.06781         22.3394         3.64292 
        2.07396         22.2473         3.61674 
        2.08009         22.1101         3.59087 
        2.08622         22.0466         3.56528 
        2.09237         21.9921         3.53989 
        2.09851         21.8485         3.51475 
        2.10464         21.7124         3.48989 
        2.11077          21.702          3.4653 
        2.11691         21.5809         3.44089 
        2.12305         21.5108         3.41672 
        2.12918         21.4178         3.39285 
        2.13531         21.3387         3.36919 
        2.14145         21.2266         3.34571 
         2.1476          21.097         3.32243 
        2.15372         21.0767         3.29949 
        2.15985         20.9767         3.27674 
        2.16599         20.8582         3.25414 
        2.17213         20.8074         3.23178 
        2.17827         20.6924         3.20963 
         2.1844         20.6261         3.18772 
        2.19054         20.6019           3.166 
        2.19666         20.4581         3.14451 
         2.2028         20.4398         3.12321 
        2.20893         20.2915         3.10209 
        2.21508         20.2163         3.08115 
        2.22122         20.1135         3.06039 
        2.22736         20.1065         3.03987 
        2.23349         19.9448         3.01954 
        2.23962         19.9082         2.99938 
        2.24577         19.8109          2.9794 
         2.2519         19.7438         2.95962 
        2.25802         19.6149         2.94005 
        2.26417         19.5667         2.92061 
        2.27031         19.5013         2.90133 
        2.27644         19.4463         2.88228 
        2.28257         19.3456          2.8634 
        2.28872         19.3242         2.84465 
        2.29486         19.2179         2.82608 
        2.30099         19.1013         2.80771 
        2.30712         19.0636         2.78949 
        2.31326         18.9503         2.77141 
         2.3194         18.8921          2.7535 
        2.32553          18.846         2.73578 
        2.33166          18.723         2.71822 
         2.3378         18.6819         2.70079 
        2.34394         18.5912         2.68351 
        2.35007         18.5392         2.66641 
        2.35619         18.4991         2.64947 
        2.36233         18.3458         2.63265 
        2.36848         18.2955         2.61593 
        2.37462          18.255          2.5994 
        2.38075         18.1871         2.58303 
        2.38689         18.0751         2.56678 
        2.39303         18.0252         2.55068 
        2.39916         17.9234         2.53473 
        2.40529         17.8951         2.51892 
        2.41143         17.7915         2.50323 
        2.41757         17.7081         2.48767 
         2.4237         17.6619         2.47227 
        2.42983         17.6071           2.457 
        2.43598         17.5103         2.44183 
        2.44211         17.4693          2.4268 
        2.44823         17.3795         2.41194 
        2.45437         17.3645         2.39716 
        2.46052         17.2578         2.38249 
        2.46665         17.2372         2.36797 
        2.47279         17.1192         2.35358 
        2.47892         17.0578          2.3393 
        2.48507         17.0074         2.32512 
         2.4912         16.9263         2.31109 
