# k  (h/Mpc)    P(k)  (Mpc/h)^3    P_linear(k)  (Mpc/h)^3
     0.00783031         15053.9         15097.3 
       0.013688         19236.5         19773.3 
       0.019231         20746.9         21119.6 
      0.0249154         20568.8         20638.6 
      0.0312784           18632         18993.8 
      0.0375637         16561.1         17065.6 
      0.0433917           15143         15440.8 
      0.0492413         13687.3         14122.1 
      0.0555754         12679.9         13030.6 
      0.0619321         11426.7         12164.7 
       0.067871           10883         11432.1 
      0.0738098         10254.5         10680.7 
      0.0800417         9438.71         9835.32 
      0.0862327         8568.69         8961.96 
      0.0921407          7838.9         8153.58 
      0.0982031         7234.96         7409.05 
       0.104506         6531.87         6767.51 
       0.110769         6086.02         6271.69 
       0.116806         5841.44         5905.71 
       0.122832            5499         5611.64 
       0.129052         5210.03          5339.2 
       0.135211         5061.37         5065.73 
       0.141259         4708.47         4777.18 
       0.147318            4384         4470.44 
       0.153489         4160.12          4155.7 
       0.159709         4018.21         3857.41 
       0.165845         3686.14         3598.86 
       0.171974         3591.68         3384.07 
       0.178125         3496.46          3210.1 
       0.184229         3228.76            3069 
        0.19034         3192.94         2945.92 
       0.196428         3113.53          2828.7 
       0.202534          2948.9         2707.77 
       0.208729         2885.07         2578.44 
       0.214876         2770.87         2445.79 
       0.220989          2654.7         2315.31 
       0.227147         2585.85         2191.79 
        0.23329         2489.48         2081.33 
       0.239377         2481.83         1986.39 
       0.245482          2379.1         1904.71 
       0.251667         2294.04         1832.51 
       0.257832         2258.54         1766.81 
       0.263955         2171.94         1703.93 
       0.270079         2131.23         1640.79 
        0.27624         2043.34         1576.23 
       0.282372         2030.09         1511.71 
        0.28843         1985.98          1449.3 
       0.294538         1910.29         1389.62 
       0.300721         1884.09          1333.9 
        0.30691         1833.87         1283.46 
       0.313033         1776.95         1238.45 
       0.319153         1763.49         1197.38 
       0.325316         1742.13         1158.66 
        0.33145         1708.03         1121.61 
       0.337538            1661         1085.47 
       0.343633         1627.32         1049.68 
       0.349808         1605.74         1013.93 
       0.355968         1569.76         979.263 
       0.362074         1536.32          946.38 
       0.368217         1530.82         915.188 
       0.374374         1505.39         886.001 
       0.380519         1461.92         858.827 
       0.386598         1461.55         833.618 
       0.392688         1422.76         809.637 
        0.39888          1402.9         786.191 
       0.405048         1376.42         763.531 
       0.411186         1366.47         741.502 
       0.417313         1367.01         720.069 
       0.423458         1327.33         699.224 
       0.429607         1295.51          679.13 
       0.435692         1287.68         660.122 
       0.441815         1263.66         641.916 
       0.447964         1256.52         624.518 
       0.454126         1239.35         607.908 
       0.460267         1226.38         592.061 
       0.466387         1208.19         576.841 
        0.47254         1186.02          562.02 
       0.478662         1176.24         547.714 
       0.484765         1165.89         533.863 
       0.490885         1152.07         520.389 
       0.497035         1133.53         507.295 
       0.503198         1133.72         494.656 
       0.509342         1111.99         482.534 
       0.515458          1091.4         470.923 
       0.521598         1095.58         459.706 
       0.527764         1068.21          448.85 
       0.533884         1057.66         438.436 
           0.54         1051.23         428.352 
       0.546137         1040.59          418.53 
       0.552299         1030.21          408.96 
       0.558452         1023.23         399.692 
       0.564573         1018.18         390.751 
       0.570708         1005.77         382.065 
       0.576825         987.179          373.68 
       0.582926         984.716         365.587 
       0.589034         976.239         357.745 
       0.595184         963.218         350.094 
       0.601379         948.666         342.623 
       0.607522         939.534         335.428 
       0.613639         937.465         328.468 
       0.619772         925.806         321.686 
       0.625918         919.581         315.082 
       0.632068         911.084          308.66 
       0.638161         897.868         302.475 
         0.6443         891.022         296.418 
       0.650464         885.799         290.508 
       0.656582         880.181         284.807 
       0.662703         866.622         279.263 
       0.668861         858.894          273.84 
       0.675024         853.861          268.56 
       0.681124         840.203         263.475 
       0.687237         841.183         258.511 
       0.693381         824.891         253.652 
       0.699536         828.104          248.91 
       0.705665         816.626          244.31 
       0.711789          812.95         239.831 
       0.717957         804.994         235.437 
        0.72409         798.004         231.179 
       0.730186         793.842         227.056 
       0.736317         785.906         223.012 
       0.742472         775.218         219.054 
       0.748622         773.457         215.197 
        0.75476         763.242         211.442 
       0.760888         759.591         207.784 
       0.767043         756.929         204.198 
       0.773185         751.548         200.705 
       0.779291         742.713         197.314 
       0.785407         736.684         193.999 
       0.791564         731.962         190.739 
       0.797719         720.995         187.557 
       0.803834         721.046         184.469 
       0.809972         712.419          181.44 
       0.816124         708.581         178.474 
       0.822261         703.437         175.584 
       0.828378         701.241         172.766 
       0.834502         689.757         170.009 
       0.840667         688.034         167.295 
       0.846816         683.888         164.649 
       0.852925         678.575         162.077 
       0.859047         672.637         159.555 
       0.865192         668.399          157.08 
       0.871341         662.533         154.655 
       0.877463         661.519         152.294 
       0.883569         654.373         149.988 
       0.889708         646.563         147.719 
       0.895864          641.31         145.492 
       0.902008         639.708         143.316 
       0.908149         633.463         141.186 
       0.914301         630.811         139.096 
       0.920448         624.287         137.051 
       0.926574         620.431         135.055 
       0.932687         617.255         133.103 
       0.938823         611.005         131.184 
       0.944975         606.973         129.298 
       0.951105         603.431         127.457 
       0.957225         595.366         125.654 
       0.963368         596.025         123.882 
       0.969511         588.916         122.143 
       0.975621         585.642         120.448 
       0.981748         581.322         118.781 
       0.987916         578.496         117.135 
        0.99406         573.186         115.527 
        1.00019         568.159         113.953 
        1.00632         563.916          112.41 
        1.01246          560.62         110.894 
        1.01859         556.478         109.408 
        1.02471          554.78         107.952 
        1.03085         548.302         106.517 
        1.03698          547.44         105.112 
        1.04314         540.699         103.726 
        1.04929         539.436         102.369 
        1.05541         532.397         101.042 
        1.06154         530.744         99.7351 
        1.06769         526.809         98.4498 
        1.07382         521.584         97.1917 
        1.07993         521.613         95.9585 
        1.08607         517.107         94.7419 
        1.09222         513.097         93.5453 
        1.09836         507.952          92.371 
        1.10449         503.345         91.2184 
        1.11063         501.889         90.0844 
        1.11677         497.266         88.9702 
         1.1229         494.196          87.877 
        1.12903         489.401         86.8014 
        1.13518         488.878         85.7431 
        1.14131          485.18         84.7032 
        1.14745         480.078         83.6813 
        1.15359         477.538         82.6762 
        1.15973         474.842         81.6874 
        1.16584         472.495         80.7193 
        1.17197         468.843         79.7657 
        1.17811         463.257         78.8247 
        1.18424         461.741         77.9018 
        1.19038         458.988         76.9911 
        1.19652         454.312         76.0955 
        1.20267         452.425         75.2143 
        1.20881         449.572         74.3473 
        1.21495         444.352         73.4955 
        1.22108         444.881         72.6573 
         1.2272         438.772         71.8343 
        1.23334         437.557         71.0222 
        1.23949         433.011         70.2209 
        1.24562          432.39         69.4343 
        1.25174          428.68         68.6611 
        1.25789          425.68         67.8973 
        1.26402         422.918         67.1466 
        1.27014         420.484         66.4092 
        1.27628         416.544         65.6808 
        1.28244         414.177          64.962 
        1.28858         411.633          64.255 
        1.29471           410.1         63.5602 
        1.30084         406.989         62.8764 
        1.30697         403.224         62.2017 
        1.31312         400.946         61.5361 
        1.31925         398.139         60.8823 
        1.32537         396.429         60.2388 
        1.33151         392.424         59.6023 
        1.33765         389.672         58.9755 
        1.34378         387.763          58.359 
        1.34992         384.316         57.7509 
        1.35606          381.88         57.1502 
         1.3622         380.007         56.5593 
        1.36833         378.574         55.9781 
        1.37445         375.974         55.4055 
        1.38059          371.97         54.8392 
        1.38675         369.967         54.2795 
        1.39288         367.757         53.7299 
        1.39901         365.397         53.1883 
        1.40515         363.654         52.6529 
         1.4113         361.059         52.1252 
        1.41742         357.984         51.6068 
        1.42355           356.7         51.0945 
         1.4297         354.818         50.5877 
        1.43585         350.354         50.0881 
        1.44198         349.807         49.5971 
        1.44809         347.334         49.1137 
        1.45423         344.319          48.635 
        1.46036         342.988         48.1636 
        1.46649         340.626         47.6984 
        1.47263         337.478         47.2389 
        1.47877         336.675         46.7858 
        1.48491         333.027         46.3379 
        1.49104         330.678          45.897 
        1.49718           328.7         45.4614 
        1.50333         327.279         45.0309 
        1.50947         325.279         44.6068 
         1.5156         321.911         44.1889 
        1.52172         320.508         43.7764 
        1.52787         318.086         43.3683 
          1.534         317.278          42.966 
        1.54013         314.478         42.5692 
        1.54627         312.259         42.1768 
        1.55241         311.137         41.7893 
        1.55855         308.029         41.4072 
        1.56467         306.235         41.0309 
         1.5708          304.65         40.6584 
        1.57695         302.813         40.2899 
        1.58308         301.498         39.9268 
        1.58922         299.004          39.568 
        1.59535         296.073         39.2138 
         1.6015         295.198         38.8634 
        1.60764         293.295         38.5176 
        1.61376         291.341         38.1769 
        1.61989          289.64         37.8401 
        1.62604         287.764         37.5066 
        1.63218         285.744         37.1774 
        1.63831          284.22         36.8529 
        1.64444         282.397         36.5322 
        1.65059         280.843         36.2146 
        1.65673         278.795         35.9011 
        1.66285         277.037         35.5923 
        1.66898         275.324          35.287 
        1.67512         272.817         34.9847 
        1.68127         271.402         34.6857 
         1.6874          269.78         34.3909 
        1.69353         269.472         34.0997 
        1.69967         267.057         33.8112 
        1.70581         264.537         33.5262 
        1.71193          263.64         33.2456 
        1.71806         261.731         32.9676 
        1.72421         260.296         32.6923 
        1.73035         258.256         32.4204 
        1.73649         256.863         32.1518 
        1.74262         255.383         31.8864 
        1.74876         253.384         31.6238 
        1.75489         252.335         31.3648 
        1.76101         250.532         31.1087 
        1.76715         248.894         30.8552 
        1.77329         246.965         30.6042 
        1.77943         245.455         30.3559 
        1.78557         244.413         30.1108 
        1.79171         242.921         29.8683 
        1.79785         240.678         29.6285 
        1.80399         240.042         29.3913 
        1.81012         238.254         29.1571 
        1.81625         236.939         28.9255 
        1.82239         235.093         28.6962 
        1.82853         234.061         28.4694 
        1.83466         232.336         28.2454 
        1.84078         230.926          28.024 
        1.84692         229.709         27.8046 
        1.85306         228.135         27.5873 
         1.8592         227.166         27.3727 
        1.86533         225.183         27.1605 
        1.87147         224.663         26.9504 
        1.87761          222.73         26.7423 
        1.88375         221.354         26.5368 
        1.88988         220.227         26.3336 
        1.89601         218.759         26.1324 
        1.90215         217.454         25.9333 
        1.90829          215.85         25.7363 
        1.91442         214.734         25.5413 
        1.92056         213.322         25.3485 
         1.9267         212.651         25.1576 
        1.93284         211.175         24.9685 
        1.93897         209.439         24.7817 
        1.94509         208.324         24.5973 
        1.95123         207.165         24.4142 
        1.95737         206.097         24.2329 
        1.96349         204.481          24.054 
        1.96964         203.489         23.8763 
        1.97578         202.439         23.7003 
        1.98192         201.605         23.5265 
        1.98805         200.194         23.3545 
        1.99419         198.719         23.1841 
        2.00033         198.162         23.0154 
        2.00647         196.443         22.8484 
         2.0126         195.299         22.6834 
        2.01874         194.076         22.5197 
        2.02488         192.678         22.3576 
        2.03101         191.733         22.1973 
        2.03714         190.989         22.0388 
        2.04328         189.714         21.8816 
        2.04941         188.528         21.7261 
        2.05554          187.68         21.5723 
        2.06167          185.97         21.4197 
        2.06781         185.294         21.2686 
        2.07396         183.587         21.1187 
        2.08009         182.907         20.9706 
        2.08622         182.175          20.824 
        2.09237         180.576         20.6786 
        2.09851         179.913         20.5345 
        2.10464         178.985         20.3921 
        2.11077         177.847         20.2512 
        2.11691         176.667         20.1113 
        2.12305         175.585         19.9727 
        2.12918         174.621         19.8358 
        2.13531         173.565         19.7002 
        2.14145         172.584         19.5655 
         2.1476         171.465         19.4319 
        2.15372           170.6         19.3003 
        2.15985         169.834         19.1697 
        2.16599         168.842           19.04 
        2.17213         167.504         18.9117 
        2.17827         166.935         18.7845 
         2.1844          165.76         18.6587 
        2.19054          164.64         18.5339 
        2.19666          163.77         18.4105 
         2.2028         163.155         18.2881 
        2.20893         162.146         18.1668 
        2.21508         160.979         18.0464 
        2.22122         160.149         17.9271 
        2.22736         159.288         17.8091 
        2.23349         158.303         17.6922 
        2.23962         157.562         17.5763 
        2.24577         156.206         17.4614 
         2.2519         155.441         17.3476 
        2.25802         154.679         17.2351 
        2.26417         153.902         17.1232 
        2.27031         152.938         17.0122 
        2.27644         152.082         16.9026 
        2.28257         151.514         16.7939 
        2.28872         150.373         16.6859 
        2.29486         149.626          16.579 
        2.30099         148.622         16.4732 
        2.30712         148.123         16.3683 
        2.31326         146.984         16.2641 
         2.3194         146.359         16.1609 
        2.32553         145.478         16.0588 
        2.33166         144.819         15.9576 
         2.3378         143.831         15.8572 
        2.34394         142.968         15.7576 
        2.35007         142.058         15.6589 
        2.35619         141.246         15.5613 
        2.36233         140.947         15.4642 
        2.36848         139.968         15.3678 
        2.37462         139.212         15.2725 
        2.38075         138.355          15.178 
        2.38689         137.256         15.0842 
        2.39303          137.06         14.9913 
        2.39916         136.077         14.8992 
        2.40529         135.275         14.8079 
        2.41143         134.628         14.7174 
        2.41757         133.543         14.6275 
         2.4237         133.189         14.5386 
        2.42983         132.382         14.4504 
        2.43598          131.55         14.3627 
        2.44211         130.971         14.2759 
        2.44823         130.188           14.19 
        2.45437         129.694         14.1046 
        2.46052         128.773         14.0198 
        2.46665         128.151         13.9359 
        2.47279         127.419         13.8527 
        2.47892         126.728         13.7701 
        2.48507          126.17         13.6881 
         2.4912           125.4          13.607 
