# k  (h/Mpc)    P(k)  (Mpc/h)^3    P_linear(k)  (Mpc/h)^3
     0.00783031         768.537         775.172 
       0.013688         973.066         983.504 
       0.019231         1004.34          1008.9 
      0.0249154         936.992         937.239 
      0.0312784         809.972          810.47 
      0.0375637         686.393         687.421 
      0.0433917         598.606         597.177 
      0.0492413         533.461         533.583 
      0.0555754         490.327           488.8 
      0.0619321         454.722         457.557 
       0.067871         430.106         430.667 
      0.0738098         399.503         399.768 
      0.0800417         362.054         361.476 
      0.0862327         320.361         320.384 
      0.0921407         283.042         282.952 
      0.0982031         251.571         250.438 
       0.104506         224.949         225.154 
       0.110769         208.344          208.35 
       0.116806         198.986         197.959 
       0.122832         190.372         190.446 
       0.129052         183.215         182.811 
       0.135211         174.264         173.393 
       0.141259         162.095         161.816 
       0.147318         148.424         148.672 
       0.153489         135.644         135.216 
       0.159709         124.131          123.15 
       0.165845          113.72         113.687 
       0.171974         108.142         106.861 
       0.178125         103.307         102.183 
       0.184229         99.3569         98.8272 
        0.19034         96.8543         95.7862 
       0.196428         93.2077         92.3051 
       0.202534         88.0928          87.989 
       0.208729         83.7152         82.8484 
       0.214876         78.7639         77.4167 
       0.220989         72.8753         72.2328 
       0.227147         69.2213         67.6853 
        0.23329         65.7006         64.0499 
       0.239377         63.0759          61.314 
       0.245482         60.7613         59.2223 
       0.251667         58.6016          57.443 
       0.257832         57.3249         55.6856 
       0.263955         54.9173         53.7389 
       0.270079         52.7031         51.5156 
        0.27624         50.0651         49.0731 
       0.282372         47.7367         46.6018 
        0.28843         45.9801          44.294 
       0.294538         43.8245         42.2406 
       0.300721         41.8153         40.4946 
        0.30691         40.7357         39.0614 
       0.313033         39.3612         37.8617 
       0.319153         38.6225         36.7703 
       0.325316         37.0009         35.6719 
        0.33145          35.798         34.5197 
       0.337538         34.6708         33.2977 
       0.343633          33.549         32.0317 
       0.349808         32.2076         30.7576 
       0.355968         30.9945         29.5575 
       0.362074         30.1541         28.4789 
       0.368217         29.1363         27.5198 
       0.374374         28.4821         26.6753 
       0.380519         27.4292         25.9139 
       0.386598         26.6285         25.2054 
       0.392688         25.8668         24.5059 
        0.39888         25.2786         23.7825 
       0.405048          24.593         23.0501 
       0.411186         23.8333          22.316 
       0.417313         23.1141         21.5982 
       0.423458          22.331         20.9139 
       0.429607         21.8742         20.2754 
       0.435692         21.3831         19.6941 
       0.441815         20.6442         19.1572 
       0.447964         20.0324          18.653 
       0.454126          19.674         18.1698 
       0.460267         19.3629         17.7004 
       0.466387         18.7978         17.2375 
        0.47254         18.4192          16.773 
       0.478662         17.8793         16.3173 
       0.484765         17.4497         15.8755 
       0.490885         16.9385         15.4496 
       0.497035         16.5151         15.0422 
       0.503198         16.1921         14.6572 
       0.509342         15.7348         14.2957 
       0.515458         15.4829          13.953 
       0.521598         15.1373         13.6213 
       0.527764         14.8871          13.297 
       0.533884         14.4397         12.9826 
           0.54         14.1772         12.6748 
       0.546137         13.7674         12.3717 
       0.552299         13.5091         12.0752 
       0.558452         13.2108         11.7889 
       0.564573         12.9915         11.5158 
       0.570708         12.7015         11.2538 
       0.576825         12.4574         11.0029 
       0.582926         12.1911         10.7616 
       0.589034          11.969         10.5277 
       0.595184         11.7947          10.299 
       0.601379         11.4846         10.0751 
       0.607522         11.2665          9.8587 
       0.613639         11.0182         9.64839 
       0.619772         10.8523         9.44279 
       0.625918         10.6271         9.24247 
       0.632068         10.4748         9.04815 
       0.638161         10.2634         8.86203 
         0.6443         10.0645         8.68096 
       0.650464         9.83819         8.50508 
       0.656582         9.74582         8.33572 
       0.662703         9.58676         8.17091 
       0.668861         9.33344         8.00923 
       0.675024         9.18282         7.85128 
       0.681124          9.1502         7.69886 
       0.687237         8.93489         7.55003 
       0.693381         8.70802         7.40449 
       0.699536         8.64605         7.26274 
       0.705665         8.48583         7.12564 
       0.711789         8.30536         6.99245 
       0.717957          8.1474         6.86194 
        0.72409         8.05401         6.73559 
       0.730186         7.98222         6.61321 
       0.736317         7.80094         6.49315 
       0.742472         7.70434         6.37554 
       0.748622         7.58702          6.2609 
        0.75476         7.40067         6.14929 
       0.760888         7.33918         6.04058 
       0.767043         7.17026         5.93409 
       0.773185         7.08497         5.83046 
       0.779291         7.04087         5.72997 
       0.785407         6.89786         5.63178 
       0.791564         6.80506         5.53535 
       0.797719         6.68318         5.44128 
       0.803834         6.60902         5.35003 
       0.809972         6.49302         5.26058 
       0.816124         6.40914         5.17301 
       0.822261         6.32365         5.08766 
       0.828378         6.22691          5.0045 
       0.834502          6.1469         4.92314 
       0.840667         6.08175         4.84307 
       0.846816         5.96388         4.76501 
       0.852925         5.89141         4.68918 
       0.859047         5.81216         4.61486 
       0.865192         5.73236         4.54193 
       0.871341         5.65345         4.47055 
       0.877463         5.57219         4.40104 
       0.883569         5.51165         4.33322 
       0.889708         5.43755         4.26649 
       0.895864         5.36711         4.20102 
       0.902008         5.28381         4.13708 
       0.908149         5.21826         4.07452 
       0.914301         5.16487         4.01317 
       0.920448         5.10065         3.95316 
       0.926574         5.06346          3.8946 
       0.932687         4.97873         3.83736 
       0.938823         4.89545         3.78108 
       0.944975         4.86022          3.7258 
       0.951105         4.77075         3.67185 
       0.957225         4.73768         3.61906 
       0.963368         4.68593         3.56714 
       0.969511         4.63086         3.51625 
       0.975621         4.56616         3.46664 
       0.981748         4.48631         3.41786 
       0.987916          4.4474         3.36973 
        0.99406         4.41715         3.32271 
        1.00019         4.36379         3.27669 
        1.00632         4.32071         3.23159 
        1.01246          4.2578         3.18729 
        1.01859         4.21104         3.14389 
        1.02471         4.14554         3.10136 
        1.03085         4.11693         3.05948 
        1.03698         4.07312         3.01847 
        1.04314         4.03162         2.97805 
        1.04929         3.98001         2.93846 
        1.05541         3.92996         2.89976 
        1.06154         3.90062         2.86168 
        1.06769         3.87444         2.82422 
        1.07382         3.81017         2.78756 
        1.07993         3.76339         2.75165 
        1.08607         3.73978         2.71622 
        1.09222         3.68724         2.68139 
        1.09836         3.67573         2.64722 
        1.10449         3.60032         2.61369 
        1.11063         3.57662          2.5807 
        1.11677         3.54663         2.54831 
         1.1229         3.50134         2.51653 
        1.12903         3.47996         2.48527 
        1.13518         3.42854         2.45452 
        1.14131          3.3973         2.42432 
        1.14745         3.35911         2.39464 
        1.15359          3.3291         2.36546 
        1.15973         3.29289         2.33676 
        1.16584         3.26322         2.30866 
        1.17197         3.22649           2.281 
        1.17811         3.19511          2.2537 
        1.18424         3.16392         2.22694 
        1.19038         3.13448         2.20053 
        1.19652         3.11136         2.17457 
        1.20267         3.08567         2.14903 
        1.20881         3.04996         2.12391 
        1.21495         3.02293         2.09923 
        1.22108         2.99744         2.07495 
         1.2272         2.95561         2.05112 
        1.23334         2.94542          2.0276 
        1.23949         2.91166         2.00441 
        1.24562         2.88759         1.98164 
        1.25174         2.86573         1.95926 
        1.25789         2.82747         1.93716 
        1.26402         2.80158         1.91545 
        1.27014         2.77621         1.89413 
        1.27628         2.75325         1.87306 
        1.28244         2.73265         1.85228 
        1.28858         2.70869         1.83185 
        1.29471         2.67474         1.81177 
        1.30084         2.65558         1.79202 
        1.30697          2.6396         1.77253 
        1.31312         2.61469         1.75331 
        1.31925         2.59134         1.73443 
        1.32537         2.57288         1.71585 
        1.33151         2.54512         1.69748 
        1.33765         2.52639         1.67939 
        1.34378         2.50686         1.66161 
        1.34992         2.48718         1.64407 
        1.35606         2.46534         1.62675 
         1.3622          2.4469         1.60971 
        1.36833         2.42032         1.59296 
        1.37445         2.39912         1.57645 
        1.38059         2.38108         1.56014 
        1.38675         2.36256         1.54401 
        1.39288         2.34916         1.52818 
        1.39901         2.32289         1.51258 
        1.40515         2.30526         1.49716 
         1.4113         2.29264         1.48197 
        1.41742         2.26624         1.46704 
        1.42355         2.24735          1.4523 
         1.4297         2.23672         1.43771 
        1.43585         2.21673         1.42334 
        1.44198         2.19927         1.40921 
        1.44809         2.18505          1.3953 
        1.45423         2.16808         1.38154 
        1.46036         2.15192         1.36798 
        1.46649         2.12554          1.3546 
        1.47263         2.11973         1.34139 
        1.47877         2.10766         1.32837 
        1.48491         2.08126          1.3155 
        1.49104         2.07001         1.30282 
        1.49718         2.05352         1.29031 
        1.50333         2.03742         1.27794 
        1.50947         2.02452         1.26576 
         1.5156          2.0085         1.25376 
        1.52172         1.99539         1.24191 
        1.52787         1.98021          1.2302 
          1.534         1.96871         1.21865 
        1.54013         1.95081         1.20726 
        1.54627         1.93712           1.196 
        1.55241         1.91948         1.18488 
        1.55855         1.90904         1.17392 
        1.56467         1.89577         1.16313 
         1.5708         1.88244         1.15244 
        1.57695         1.86549         1.14187 
        1.58308         1.85039         1.13146 
        1.58922         1.84467         1.12118 
        1.59535         1.82513         1.11103 
         1.6015         1.81191         1.10099 
        1.60764          1.8033         1.09108 
        1.61376         1.78698         1.08131 
        1.61989         1.77685         1.07167 
        1.62604         1.75996         1.06211 
        1.63218         1.75586         1.05269 
        1.63831         1.74237         1.04339 
        1.64444         1.72887         1.03421 
        1.65059         1.72083         1.02512 
        1.65673         1.70343         1.01614 
        1.66285         1.69335          1.0073 
        1.66898         1.68512        0.998567 
        1.67512         1.66783        0.989917 
        1.68127         1.65733        0.981363 
         1.6874         1.65356        0.972929 
        1.69353         1.63634        0.964599 
        1.69967         1.62758        0.956349 
        1.70581         1.62161        0.948199 
        1.71193         1.60219        0.940175 
        1.71806         1.59553        0.932227 
        1.72421         1.58793        0.924357 
        1.73035         1.57132        0.916586 
        1.73649         1.56938        0.908907 
        1.74262         1.55538        0.901323 
        1.74876         1.54519         0.89382 
        1.75489         1.53641        0.886419 
        1.76101         1.52305        0.879105 
        1.76715         1.51658        0.871863 
        1.77329         1.50715        0.864694 
        1.77943         1.49823        0.857604 
        1.78557         1.49096        0.850604 
        1.79171         1.48189        0.843681 
        1.79785         1.47163        0.836834 
        1.80399         1.46102        0.830065 
        1.81012         1.45205        0.823381 
        1.81625         1.44102        0.816773 
        1.82239         1.43493        0.810229 
        1.82853         1.42599         0.80376 
        1.83466         1.41502        0.797368 
        1.84078         1.40714        0.791053 
        1.84692         1.40003        0.784796 
        1.85306          1.3947          0.7786 
         1.8592         1.38221        0.772481 
        1.86533         1.37598        0.766431 
        1.87147         1.36482        0.760439 
        1.87761          1.3597         0.75451 
        1.88375         1.35077         0.74865 
        1.88988         1.34219         0.74286 
        1.89601         1.33428        0.737127 
        1.90215         1.32738        0.731451 
        1.90829         1.32088        0.725838 
        1.91442         1.31146        0.720284 
        1.92056         1.30676        0.714793 
         1.9267         1.29895        0.709354 
        1.93284         1.28871        0.703968 
        1.93897         1.28135        0.698649 
        1.94509         1.27721        0.693397 
        1.95123         1.26633        0.688185 
        1.95737         1.26171        0.683024 
        1.96349         1.25372        0.677929 
        1.96964         1.24936        0.672872 
        1.97578         1.23807        0.667864 
        1.98192         1.23103        0.662918 
        1.98805         1.22578        0.658022 
        1.99419         1.21914        0.653175 
        2.00033          1.2127        0.648374 
        2.00647         1.20731        0.643624 
         2.0126         1.20232        0.638929 
        2.01874         1.19365        0.634274 
        2.02488         1.18493        0.629662 
        2.03101         1.17991        0.625105 
        2.03714          1.1754        0.620596 
        2.04328         1.16744        0.616128 
        2.04941         1.16065        0.611707 
        2.05554         1.15487        0.607333 
        2.06167         1.14882        0.602997 
        2.06781         1.14102        0.598702 
        2.07396         1.13778        0.594443 
        2.08009         1.13123        0.590233 
        2.08622         1.12458        0.586069 
        2.09237         1.11994        0.581937 
        2.09851         1.11236        0.577844 
        2.10464          1.1089        0.573798 
        2.11077         1.10075        0.569796 
        2.11691         1.09512        0.565823 
        2.12305         1.09204        0.561888 
        2.12918         1.08354           0.558 
        2.13531         1.07871        0.554149 
        2.14145         1.07316        0.550325 
         2.1476         1.06819        0.546533 
        2.15372         1.06231        0.542796 
        2.15985         1.05685         0.53909 
        2.16599          1.0532        0.535409 
        2.17213         1.04686        0.531766 
        2.17827         1.04026        0.528158 
         2.1844         1.03611        0.524587 
        2.19054         1.03105        0.521047 
        2.19666         1.02679        0.517546 
         2.2028         1.02068        0.514073 
        2.20893         1.01591        0.510631 
        2.21508         1.01083        0.507217 
        2.22122         1.00731        0.503833 
        2.22736        0.998765        0.500487 
        2.23349        0.994952        0.497172 
        2.23962         0.99172        0.493886 
        2.24577        0.986386        0.490627 
         2.2519        0.981036        0.487402 
        2.25802        0.978674        0.484211 
        2.26417        0.971435         0.48104 
        2.27031        0.967758        0.477894 
        2.27644        0.964327        0.474786 
        2.28257        0.956824        0.471706 
        2.28872        0.955679        0.468648 
        2.29486        0.949094        0.465617 
        2.30099        0.944861         0.46262 
        2.30712        0.941684        0.459648 
        2.31326        0.936956        0.456696 
         2.3194        0.931959        0.453773 
        2.32553        0.926855         0.45088 
        2.33166        0.924834        0.448014 
         2.3378        0.919498        0.445169 
        2.34394        0.915221        0.442348 
        2.35007         0.90853        0.439555 
        2.35619        0.905492         0.43679 
        2.36233        0.901505        0.434042 
        2.36848        0.899371        0.431313 
        2.37462        0.894693        0.428612 
        2.38075        0.889495        0.425938 
        2.38689        0.886651        0.423284 
        2.39303         0.88231        0.420653 
        2.39916        0.878025        0.418048 
        2.40529          0.8762        0.415465 
        2.41143        0.868647        0.412902 
        2.41757        0.866786        0.410359 
         2.4237         0.86264        0.407843 
        2.42983        0.857834        0.405348 
        2.43598         0.85509        0.402867 
        2.44211        0.850628        0.400412 
        2.44823        0.847741        0.397982 
        2.45437        0.844656        0.395567 
        2.46052        0.841549        0.393169 
        2.46665        0.837129        0.390795 
        2.47279        0.833288        0.388442 
        2.47892        0.829223        0.386107 
        2.48507        0.827384        0.383789 
         2.4912         0.82193        0.381494 
