# k  (h/Mpc)    Pcb(k)  (Mpc/h)^3    Pcb_linear(k)  (Mpc/h)^3
     0.00783031           22184         22305.2 
       0.013688         24834.6         25573.7 
       0.019231         23933.4           24348 
      0.0249154         21319.8         21207.9 
      0.0312784         17114.5         17255.7 
      0.0375637         13744.1         13950.7 
      0.0433917         11720.1         11735.4 
      0.0492413         10191.3         10266.9 
      0.0555754         9280.53         9270.84 
      0.0619321         8301.41         8574.34 
       0.067871         7828.22         7960.25 
      0.0738098         7225.74         7257.73 
      0.0800417         6429.88          6416.3 
      0.0862327         5573.11         5555.75 
      0.0921407         4917.61         4811.12 
      0.0982031         4397.91         4197.15 
       0.104506         3879.29         3744.31 
       0.110769          3616.7         3456.97 
       0.116806         3473.18         3281.35 
       0.122832         3292.12         3145.92 
       0.129052         3101.52         2995.25 
       0.135211         2994.04         2805.87 
       0.141259         2729.14         2580.85 
       0.147318         2497.02         2338.01 
       0.153489         2305.54          2102.6 
       0.159709         2187.74         1902.46 
       0.165845            1997         1752.82 
       0.171974         1939.64          1648.3 
       0.178125         1875.34         1576.17 
       0.184229         1733.13         1520.37 
        0.19034            1709         1464.62 
       0.196428         1653.51         1399.03 
       0.202534         1543.58         1320.57 
       0.208729         1506.45          1232.3 
       0.214876         1423.55         1144.27 
       0.220989         1346.85         1064.37 
       0.227147         1303.12         996.888 
        0.23329         1248.07         943.909 
       0.239377         1241.16         903.411 
       0.245482         1178.67         870.554 
       0.251667         1136.92         840.271 
       0.257832         1114.27         809.079 
       0.263955         1060.99         775.163 
       0.270079         1027.55         738.404 
        0.27624         984.472         700.305 
       0.282372         969.768         663.654 
        0.28843         949.154          630.63 
       0.294538         904.602         601.704 
       0.300721         886.311         576.861 
        0.30691         862.245         555.626 
       0.313033         827.616         536.805 
       0.319153         818.582         518.863 
       0.325316         805.715         500.662 
        0.33145         785.254         482.072 
       0.337538         757.742         463.263 
       0.343633         740.218         444.646 
       0.349808         724.294         426.601 
       0.355968          710.15         409.948 
       0.362074         684.905          394.98 
       0.368217         681.635         381.409 
       0.374374         671.432         369.011 
       0.380519         646.023          357.42 
       0.386598         640.888         346.387 
       0.392688         623.587         335.505 
        0.39888         611.126         324.526 
       0.405048          596.67         313.755 
       0.411186         596.388         303.317 
       0.417313          588.61         293.347 
       0.423458         573.084         283.931 
       0.429607         556.535         275.107 
       0.435692         550.122         266.942 
       0.441815         539.472         259.211 
       0.447964         531.507         251.805 
       0.454126          524.67         244.641 
       0.460267         517.381         237.703 
       0.466387         505.745         230.957 
        0.47254          500.73         224.344 
       0.478662         490.876          217.98 
       0.484765         484.165         211.887 
       0.490885         480.795         206.045 
       0.497035          469.13         200.443 
       0.503198         468.537         195.098 
       0.509342          459.47         190.004 
       0.515458         450.312         185.127 
       0.521598         448.421         180.391 
       0.527764         438.552         175.779 
       0.533884         432.948         171.341 
           0.54         429.922          167.04 
       0.546137         422.368         162.859 
       0.552299         419.876         158.802 
       0.558452         413.228         154.902 
       0.564573         411.812         151.169 
       0.570708         404.989         147.566 
       0.576825         397.987         144.099 
       0.582926         396.811         140.755 
       0.589034         389.383         137.511 
       0.595184         386.527         134.345 
       0.601379         380.099         131.253 
       0.607522         373.331          128.28 
       0.613639         372.618         125.407 
       0.619772         370.492         122.614 
       0.625918         363.453         119.901 
       0.632068         361.984         117.273 
       0.638161         357.882         114.752 
         0.6443         352.721         112.291 
       0.650464         350.092         109.895 
       0.656582         346.376         107.586 
       0.662703          344.61         105.341 
       0.668861         338.388         103.146 
       0.675024         337.568         101.011 
       0.681124         330.156         98.9571 
       0.687237         329.943         96.9565 
       0.693381         325.116         95.0029 
       0.699536         324.862          93.101 
       0.705665         320.038         91.2604 
       0.711789         317.881          89.472 
       0.717957         315.018         87.7199 
        0.72409         311.149         86.0245 
       0.730186          311.66         84.3842 
       0.736317         306.447         82.7775 
       0.742472         304.177         81.2067 
       0.748622         302.995         79.6783 
        0.75476         299.266         78.1926 
       0.760888         297.465         76.7473 
       0.767043         294.165         75.3332 
       0.773185         291.455          73.958 
       0.779291         289.331         72.6253 
       0.785407         287.335         71.3239 
       0.791564         285.751         70.0463 
       0.797719         281.203          68.801 
       0.803834         281.385         67.5939 
       0.809972         277.206         66.4116 
       0.816124         275.297          65.255 
       0.822261          273.13         64.1291 
       0.828378         271.724         63.0333 
       0.834502         267.822         61.9623 
       0.840667         267.451         60.9092 
       0.846816         264.051         59.8838 
       0.852925          264.28         58.8884 
       0.859047         260.604         57.9137 
       0.865192         259.663          56.958 
       0.871341         257.091         56.0233 
       0.877463         255.748         55.1139 
       0.883569         254.189          54.227 
       0.889708         251.885         53.3552 
       0.895864         248.597         52.5004 
       0.902008         247.489         51.6662 
       0.908149         244.929         50.8506 
       0.914301         244.263         50.0514 
       0.920448         241.615         49.2702 
       0.926574         240.036         48.5084 
       0.932687         239.771         47.7643 
       0.938823         237.208         47.0333 
       0.944975          236.82         46.3159 
       0.951105         234.568         45.6161 
       0.957225         232.205         44.9321 
       0.963368          232.31         44.2598 
       0.969511         229.083         43.6012 
       0.975621         226.515         42.9597 
       0.981748         226.411         42.3295 
       0.987916         224.934          41.708 
        0.99406         223.006         41.1013 
        1.00019         221.217          40.508 
        1.00632         220.429          39.927 
        1.01246         218.785         39.3565 
        1.01859         216.748         38.7982 
        1.02471         215.348         38.2514 
        1.03085         214.414         37.7133 
        1.03698         213.345         37.1867 
        1.04314         212.207          36.668 
        1.04929         210.633         36.1604 
        1.05541         210.082         35.6645 
        1.06154         207.921         35.1766 
        1.06769         206.546         34.6972 
        1.07382         204.494         34.2284 
        1.07993         204.171         33.7692 
        1.08607         203.019         33.3166 
        1.09222         201.121         32.8719 
        1.09836         200.051         32.4358 
        1.10449         199.166         32.0082 
        1.11063         197.741         31.5878 
        1.11677         195.956         31.1751 
         1.1229         195.857         30.7705 
        1.12903         193.472         30.3727 
        1.13518         192.614         29.9816 
        1.14131         191.647         29.5977 
        1.14745         190.285         29.2206 
        1.15359         189.002         28.8501 
        1.15973         188.197         28.4859 
        1.16584         186.978         28.1296 
        1.17197         186.358         27.7789 
        1.17811         184.244         27.4331 
        1.18424         183.464         27.0942 
        1.19038         182.711         26.7601 
        1.19652         180.837         26.4317 
        1.20267         180.047         26.1089 
        1.20881         179.131         25.7915 
        1.21495         178.206         25.4799 
        1.22108         176.958         25.1735 
         1.2272           176.1         24.8729 
        1.23334         174.608         24.5765 
        1.23949         174.136         24.2843 
        1.24562         172.792         23.9976 
        1.25174         172.382          23.716 
        1.25789         170.783          23.438 
        1.26402         170.063         23.1651 
        1.27014         169.101         22.8971 
        1.27628         168.395         22.6326 
        1.28244         166.881         22.3717 
        1.28858         166.046         22.1154 
        1.29471         164.827         21.8636 
        1.30084         164.473         21.6159 
        1.30697          163.22         21.3718 
        1.31312         162.554          21.131 
        1.31925         161.488         20.8947 
        1.32537          160.91         20.6623 
        1.33151         159.289         20.4326 
        1.33765          158.92         20.2065 
        1.34378         158.139         19.9843 
        1.34992         156.882         19.7653 
        1.35606         156.299          19.549 
         1.3622         155.045         19.3364 
        1.36833         154.686         19.1275 
        1.37445         153.776         18.9218 
        1.38059         152.426         18.7184 
        1.38675         151.466         18.5176 
        1.39288         150.958         18.3205 
        1.39901         149.899         18.1263 
        1.40515         149.019         17.9345 
         1.4113         148.652         17.7456 
        1.41742         147.609         17.5601 
        1.42355         146.398         17.3769 
         1.4297         145.883         17.1958 
        1.43585          145.45         17.0174 
        1.44198         144.236         16.8421 
        1.44809         143.811         16.6697 
        1.45423         142.923          16.499 
        1.46036         142.124          16.331 
        1.46649         140.964         16.1653 
        1.47263         140.635         16.0018 
        1.47877         139.709         15.8406 
        1.48491         138.785         15.6814 
        1.49104          137.86         15.5247 
        1.49718         137.225           15.37 
        1.50333         136.145         15.2172 
        1.50947          135.77         15.0668 
         1.5156         134.861         14.9186 
        1.52172         134.127         14.7725 
        1.52787         133.595          14.628 
          1.534         132.996         14.4856 
        1.54013         132.338         14.3452 
        1.54627         131.498         14.2065 
        1.55241         130.843         14.0696 
        1.55855         129.994         13.9346 
        1.56467         129.244         13.8018 
         1.5708         128.784         13.6704 
        1.57695         128.131         13.5405 
        1.58308         127.005         13.4125 
        1.58922         126.438         13.2862 
        1.59535         125.868         13.1615 
         1.6015          125.04         13.0382 
        1.60764         124.325         12.9165 
        1.61376         123.885         12.7968 
        1.61989         123.154         12.6784 
        1.62604         122.675         12.5613 
        1.63218         121.743         12.4457 
        1.63831         121.232         12.3319 
        1.64444          120.41         12.2194 
        1.65059         119.854         12.1081 
        1.65673         119.182         11.9983 
        1.66285         118.844         11.8901 
        1.66898          118.07         11.7833 
        1.67512         116.945         11.6775 
        1.68127         116.804          11.573 
         1.6874         116.194         11.4699 
        1.69353          115.37         11.3682 
        1.69967         114.946         11.2675 
        1.70581           114.2          11.168 
        1.71193         113.836         11.0701 
        1.71806         112.951         10.9732 
        1.72421         112.237         10.8772 
        1.73035         111.966         10.7825 
        1.73649         111.429          10.689 
        1.74262         110.467         10.5966 
        1.74876         109.911         10.5052 
        1.75489         109.803         10.4152 
        1.76101         109.032         10.3262 
        1.76715         108.375         10.2381 
        1.77329         107.844         10.1509 
        1.77943         107.121         10.0648 
        1.78557         106.492          9.9797 
        1.79171         105.927         9.89562 
        1.79785         105.359         9.81248 
        1.80399         104.753         9.73032 
        1.81012         104.357          9.6492 
        1.81625         103.592         9.56905 
        1.82239         103.362         9.48968 
        1.82853         102.548         9.41125 
        1.83466         101.938         9.33378 
        1.84078         101.717         9.25727 
        1.84692          101.01         9.18148 
        1.85306         100.494         9.10645 
         1.8592         100.003         9.03237 
        1.86533         99.4241         8.95916 
        1.87147          98.896         8.88667 
        1.87761         98.4915         8.81495 
        1.88375         97.8937         8.74411 
        1.88988         97.3524         8.67411 
        1.89601         96.9057         8.60485 
        1.90215         96.4314         8.53629 
        1.90829         95.8077          8.4685 
        1.91442         95.3109         8.40144 
        1.92056         95.0404         8.33517 
         1.9267         94.3039         8.26955 
        1.93284         93.7829         8.20459 
        1.93897         93.5436         8.14045 
        1.94509         92.9298         8.07714 
        1.95123         92.2627         8.01434 
        1.95737         91.8987         7.95215 
        1.96349         91.5902         7.89079 
        1.96964         91.1905          7.8299 
        1.97578         90.5624         7.76962 
        1.98192         90.0968          7.7101 
        1.98805         89.6853         7.65119 
        1.99419         89.3375          7.5929 
        2.00033         88.7293         7.53518 
        2.00647         88.3565         7.47808 
         2.0126         87.8485         7.42166 
        2.01874         87.1905         7.36574 
        2.02488         86.9409         7.31035 
        2.03101         86.5732         7.25563 
        2.03714         86.0698         7.20152 
        2.04328         85.6657          7.1479 
        2.04941         85.0173         7.09487 
        2.05554         85.0093         7.04241 
        2.06167         84.2885         6.99041 
        2.06781         84.0918         6.93893 
        2.07396         83.3719          6.8879 
        2.08009         83.0562         6.83746 
        2.08622         82.6775         6.78759 
        2.09237         82.2078         6.73811 
        2.09851         81.8093         6.68912 
        2.10464         81.4191          6.6407 
        2.11077         81.0173         6.59281 
        2.11691          80.414         6.54529 
        2.12305         79.9816         6.49823 
        2.12918         79.6774         6.45175 
        2.13531         79.4648         6.40572 
        2.14145         79.0263         6.36003 
         2.1476         78.4724         6.31473 
        2.15372          78.131          6.2701 
        2.15985         77.7231         6.22585 
        2.16599         77.1991          6.1819 
        2.17213         77.0836         6.13843 
        2.17827         76.6095         6.09538 
         2.1844         76.1283         6.05278 
        2.19054          75.708         6.01057 
        2.19666         75.3224         5.96883 
         2.2028         75.0991         5.92744 
        2.20893         74.6191         5.88643 
        2.21508         74.1838         5.84575 
        2.22122         73.9016         5.80545 
        2.22736         73.5624         5.76561 
        2.23349         73.1418         5.72615 
        2.23962         72.8665         5.68704 
        2.24577         72.4842         5.64826 
         2.2519         72.0411          5.6099 
        2.25802         71.6516         5.57195 
        2.26417         71.3819         5.53425 
        2.27031         70.9537         5.49686 
        2.27644         70.5886         5.45992 
        2.28257          70.392         5.42333 
        2.28872         69.9977           5.387 
        2.29486         69.5459         5.35101 
        2.30099         69.2867         5.31542 
        2.30712         69.0363         5.28014 
        2.31326         68.5837         5.24511 
         2.3194         68.2167         5.21043 
        2.32553         67.9623         5.17612 
        2.33166         67.6714         5.14213 
         2.3378         67.2857         5.10839 
        2.34394         66.9793         5.07495 
        2.35007          66.587         5.04186 
        2.35619         66.1192          5.0091 
        2.36233         65.8235         4.97655 
        2.36848         65.7414         4.94423 
        2.37462         65.2147         4.91226 
        2.38075         64.9592          4.8806 
        2.38689         64.7506          4.8492 
        2.39303         64.3677         4.81807 
        2.39916         64.0237         4.78725 
        2.40529         63.7665         4.75671 
        2.41143         63.3954          4.7264 
        2.41757          62.994         4.69635 
         2.4237         62.8143         4.66661 
        2.42983         62.5022         4.63713 
        2.43598         62.2831         4.60783 
        2.44211         61.8582         4.57883 
        2.44823         61.5207         4.55014 
        2.45437          61.294         4.52162 
        2.46052         61.0106         4.49332 
        2.46665          60.632         4.46531 
        2.47279         60.2472         4.43755 
        2.47892         60.1087         4.41001 
        2.48507         59.7613         4.38267 
         2.4912         59.5774         4.35562 
