# k  (h/Mpc)    Pcb(k)  (Mpc/h)^3    Pcb_linear(k)  (Mpc/h)^3
     0.00783031         3297.17         3326.86 
       0.013688         3484.42         3530.35 
       0.019231         3089.27         3105.55 
      0.0249154         2482.65         2469.67 
      0.0312784         1813.15         1805.62 
      0.0375637         1333.23         1331.18 
      0.0433917         1068.81         1061.26 
      0.0492413         917.156         914.832 
      0.0555754         846.193         839.311 
      0.0619321         787.279         793.972 
       0.067871         742.064         741.663 
      0.0738098         665.697         664.468 
      0.0800417         566.783         562.823 
      0.0862327         463.144         460.288 
      0.0921407         382.353         378.328 
      0.0982031         325.591         319.154 
       0.104506         286.621         284.048 
       0.110769         271.931         269.009 
       0.116806         268.028         264.019 
       0.122832         260.929         259.294 
       0.129052         250.392         247.802 
       0.135211         231.687         227.649 
       0.141259         205.077         201.971 
       0.147318          178.11         175.408 
       0.153489         156.243         152.247 
       0.159709         140.577         135.544 
       0.165845         128.816         125.786 
       0.171974         126.198         121.132 
       0.178125          123.15         119.073 
       0.184229         119.877         117.022 
        0.19034         116.599         113.054 
       0.196428         110.245         106.537 
       0.202534         100.315         98.0378 
       0.208729         92.9278         88.8175 
       0.214876         85.4446         80.5257 
       0.220989         78.0633         74.0581 
       0.227147         74.4732          69.587 
        0.23329         71.4973         66.8359 
       0.239377         69.9307         65.1143 
       0.245482         67.8083         63.6081 
       0.251667         65.1334         61.6611 
       0.257832         63.4685         58.9981 
       0.263955         59.3488         55.7103 
       0.270079         55.7445         52.1236 
        0.27624         52.3471         48.6538 
       0.282372         49.5902          45.671 
        0.28843         47.9443         43.3497 
       0.294538         45.8204         41.5989 
       0.300721         44.0056         40.2602 
        0.30691          43.156         39.1119 
       0.313033         41.6597         37.9485 
       0.319153         40.7062         36.6231 
       0.325316         38.7658         35.1022 
        0.33145         36.9986         33.4703 
       0.337538         35.4164         31.8555 
       0.343633         34.1652          30.353 
       0.349808         32.7439         29.0294 
       0.355968         31.5642         27.9177 
       0.362074         30.8697         26.9963 
       0.368217           29.89         26.1796 
       0.374374         29.1499         25.4016 
       0.380519          28.013         24.6145 
       0.386598         27.1166         23.7938 
       0.392688         26.1325         22.9424 
        0.39888          25.506         22.0721 
       0.405048         24.7441          21.234 
       0.411186         23.8971         20.4625 
       0.417313         23.1342         19.7664 
       0.423458         22.3519         19.1389 
       0.429607         21.9478         18.5704 
       0.435692         21.5282         18.0437 
       0.441815         20.6916         17.5274 
       0.447964         20.0181         17.0132 
       0.454126         19.6189         16.4979 
       0.460267         19.2994         15.9857 
       0.466387         18.6662         15.4866 
        0.47254         18.3125         15.0076 
       0.478662         17.6855          14.559 
       0.484765         17.2402         14.1399 
       0.490885         16.6945         13.7473 
       0.497035         16.3604         13.3761 
       0.503198         16.0429           13.02 
       0.509342         15.5409         12.6742 
       0.515458         15.2616         12.3364 
       0.521598         14.8913         12.0046 
       0.527764         14.6156         11.6797 
       0.533884         14.2198         11.3669 
           0.54          13.933         11.0656 
       0.546137         13.4996         10.7768 
       0.552299         13.2223         10.5012 
       0.558452         12.8834          10.239 
       0.564573         12.7129         9.98848 
       0.570708         12.4125         9.74539 
       0.576825          12.191         9.50981 
       0.582926         11.9269         9.28131 
       0.589034         11.6655         9.05906 
       0.595184         11.5106          8.8419 
       0.601379          11.197         8.62997 
       0.607522         10.9363         8.42659 
       0.613639         10.7503         8.23091 
       0.619772         10.5372         8.04168 
       0.625918         10.3285         7.85887 
       0.632068         10.1804         7.68235 
       0.638161         9.96646         7.51308 
         0.6443         9.78089         7.34762 
       0.650464         9.52611         7.18612 
       0.656582         9.44396         7.03005 
       0.662703         9.27465         6.87818 
       0.668861         9.03394         6.72974 
       0.675024         8.87212         6.58558 
       0.681124         8.84538         6.44731 
       0.687237         8.64357         6.31303 
       0.693381         8.42012         6.18221 
       0.699536         8.36036         6.05503 
       0.705665         8.17152         5.93205 
       0.711789         8.02859         5.81258 
       0.717957         7.84978         5.69549 
        0.72409         7.75737         5.58213 
       0.730186         7.70271         5.47246 
       0.736317         7.51602         5.36507 
       0.742472         7.42878         5.26014 
       0.748622         7.29397         5.15812 
        0.75476         7.10319         5.05907 
       0.760888         7.06088         4.96282 
       0.767043         6.90856         4.86875 
       0.773185         6.80986         4.77735 
       0.779291         6.75351         4.68885 
       0.785407         6.62492         4.60249 
       0.791564         6.53786         4.51776 
       0.797719         6.39319         4.43521 
       0.803834         6.35588         4.35523 
       0.809972         6.21734         4.27692 
       0.816124         6.15317         4.20036 
       0.822261         6.06401         4.12587 
       0.828378         5.98421          4.0534 
       0.834502         5.90404         3.98262 
       0.840667         5.82308         3.91306 
       0.846816         5.69368         3.84537 
       0.852925         5.66301          3.7797 
       0.859047         5.56406         3.71543 
       0.865192         5.48571         3.65245 
       0.871341         5.41637         3.59088 
       0.877463         5.33385         3.53102 
       0.883569         5.28552         3.47268 
       0.889708         5.19398         3.41535 
       0.895864         5.12555         3.35918 
       0.902008         5.05737         3.30439 
       0.908149         4.97784         3.25085 
       0.914301         4.92197         3.19841 
       0.920448         4.87086         3.14718 
       0.926574         4.82965         3.09725 
       0.932687         4.74115         3.04851 
       0.938823         4.66383         3.00064 
       0.944975         4.64256          2.9537 
       0.951105         4.55896         2.90792 
       0.957225         4.53033          2.8632 
       0.963368          4.4562         2.81926 
       0.969511          4.4002         2.77625 
       0.975621         4.34979         2.73436 
       0.981748         4.28857         2.69324 
       0.987916          4.2452         2.65269 
        0.99406          4.1965         2.61314 
        1.00019         4.15321         2.57447 
        1.00632         4.11788         2.53662 
        1.01246         4.05224         2.49948 
        1.01859          4.0119         2.46313 
        1.02471         3.95298         2.42756 
        1.03085         3.92185         2.39256 
        1.03698         3.87712         2.35833 
        1.04314         3.82773         2.32462 
        1.04929         3.78067         2.29165 
        1.05541         3.73774         2.25944 
        1.06154          3.7023         2.22778 
        1.06769         3.67922         2.19668 
        1.07382         3.61415         2.16627 
        1.07993         3.57886          2.1365 
        1.08607          3.5501         2.10717 
        1.09222          3.5044         2.07837 
        1.09836         3.48358         2.05013 
        1.10449         3.42505         2.02245 
        1.11063         3.40197         1.99525 
        1.11677          3.3721         1.96856 
         1.1229         3.33475          1.9424 
        1.12903         3.30306         1.91669 
        1.13518         3.25913         1.89143 
        1.14131         3.22945         1.86663 
        1.14745         3.18483          1.8423 
        1.15359         3.14801         1.81839 
        1.15973         3.12099         1.79489 
        1.16584         3.09683         1.77192 
        1.17197         3.05576         1.74931 
        1.17811         3.02826         1.72703 
        1.18424         3.00193         1.70521 
        1.19038         2.98287         1.68369 
        1.19652         2.94745         1.66256 
        1.20267         2.92442         1.64178 
        1.20881         2.88886         1.62137 
        1.21495         2.86439         1.60134 
        1.22108         2.83229         1.58164 
         1.2272          2.8036         1.56233 
        1.23334         2.78946         1.54329 
        1.23949         2.75304         1.52452 
        1.24562         2.73302         1.50612 
        1.25174         2.71712         1.48805 
        1.25789         2.67413         1.47021 
        1.26402         2.65509         1.45271 
        1.27014         2.63609         1.43553 
        1.27628         2.60519         1.41857 
        1.28244         2.58815         1.40186 
        1.28858         2.56601         1.38543 
        1.29471         2.53192         1.36931 
        1.30084         2.51292         1.35345 
        1.30697         2.49867         1.33783 
        1.31312         2.47303         1.32242 
        1.31925         2.45012         1.30731 
        1.32537         2.43236         1.29244 
        1.33151         2.40502         1.27776 
        1.33765         2.38512         1.26331 
        1.34378         2.37703         1.24911 
        1.34992         2.35451         1.23512 
        1.35606         2.33185         1.22131 
         1.3622         2.30962         1.20774 
        1.36833         2.29031         1.19441 
        1.37445         2.26426         1.18128 
        1.38059         2.24315         1.16831 
        1.38675         2.22678         1.15551 
        1.39288         2.22018         1.14294 
        1.39901         2.19147         1.13057 
        1.40515         2.17927         1.11835 
         1.4113         2.15935         1.10632 
        1.41742         2.14498         1.09451 
        1.42355         2.12384         1.08285 
         1.4297         2.10454         1.07133 
        1.43585         2.09527         1.05997 
        1.44198         2.07453         1.04883 
        1.44809          2.0585         1.03786 
        1.45423         2.04285         1.02701 
        1.46036         2.03033         1.01634 
        1.46649         2.01223         1.00581 
        1.47263          1.9991        0.995422 
        1.47877         1.98273        0.985185 
        1.48491         1.96692        0.975076 
        1.49104         1.95346         0.96513 
        1.49718         1.94004        0.955315 
        1.50333         1.91903         0.94562 
        1.50947         1.90682        0.936079 
         1.5156         1.89452        0.926683 
        1.52172          1.8771        0.917417 
        1.52787          1.8678        0.908258 
          1.534         1.85191        0.899234 
        1.54013         1.84291        0.890342 
        1.54627         1.82023        0.881555 
        1.55241         1.80971        0.872883 
        1.55855         1.79942        0.864341 
        1.56467         1.79076        0.855936 
         1.5708         1.76938        0.847618 
        1.57695         1.75409        0.839398 
        1.58308         1.74229        0.831305 
        1.58922         1.73835        0.823313 
        1.59535         1.72337        0.815429 
         1.6015         1.70651        0.807637 
        1.60764         1.70083        0.799949 
        1.61376         1.68313        0.792382 
        1.61989         1.67048        0.784907 
        1.62604         1.66036        0.777511 
        1.63218         1.64984        0.770215 
        1.63831         1.63976        0.763029 
        1.64444          1.6263        0.755931 
        1.65059         1.61999        0.748907 
        1.65673         1.60356        0.741979 
        1.66285         1.59363        0.735158 
        1.66898         1.58318         0.72842 
        1.67512         1.57223        0.721753 
        1.68127         1.56141        0.715164 
         1.6874         1.55207        0.708671 
        1.69353         1.54039        0.702262 
        1.69967         1.52747        0.695917 
        1.70581         1.52148        0.689653 
        1.71193         1.50605        0.683489 
        1.71806         1.50172        0.677388 
        1.72421          1.4925        0.671348 
        1.73035         1.47917        0.665389 
        1.73649         1.47183        0.659503 
        1.74262         1.46273        0.653693 
        1.74876          1.4534        0.647948 
        1.75489         1.44246        0.642285 
        1.76101         1.43101         0.63669 
        1.76715         1.42824        0.631154 
        1.77329         1.41544        0.625678 
        1.77943         1.40468        0.620263 
        1.78557         1.39873         0.61492 
        1.79171         1.38788        0.609639 
        1.79785         1.38237        0.604419 
        1.80399         1.37251        0.599261 
        1.81012         1.36505         0.59417 
        1.81625         1.35243        0.589139 
        1.82239         1.34805         0.58416 
        1.82853         1.34003         0.57924 
        1.83466         1.32759        0.574381 
        1.84078           1.319        0.569582 
        1.84692         1.31051        0.564831 
        1.85306         1.30435        0.560127 
         1.8592         1.29623        0.555485 
        1.86533         1.29159        0.550897 
        1.87147         1.28459        0.546356 
        1.87761         1.27638        0.541863 
        1.88375         1.26617        0.537426 
        1.88988         1.25902        0.533044 
        1.89601         1.25015        0.528707 
        1.90215         1.24339        0.524416 
        1.90829         1.23906        0.520173 
        1.91442         1.23006        0.515978 
        1.92056         1.22372        0.511832 
         1.9267         1.21587        0.507727 
        1.93284         1.20971        0.503664 
        1.93897         1.20144        0.499654 
        1.94509         1.18986        0.495696 
        1.95123          1.1889         0.49177 
        1.95737         1.18318        0.487884 
        1.96349         1.17522        0.484049 
        1.96964         1.16916        0.480245 
        1.97578         1.16179        0.476479 
        1.98192         1.15193        0.472762 
        1.98805         1.14669        0.469083 
        1.99419         1.13969        0.465443 
        2.00033         1.13303         0.46184 
        2.00647         1.12988        0.458276 
         2.0126         1.12331        0.454756 
        2.01874         1.11459        0.451267 
        2.02488         1.11325        0.447811 
        2.03101         1.10372        0.444398 
        2.03714         1.09825        0.441023 
        2.04328         1.09228        0.437679 
        2.04941          1.0859        0.434373 
        2.05554         1.07927        0.431103 
        2.06167           1.076        0.427862 
        2.06781         1.06822        0.424654 
        2.07396         1.06305        0.421474 
        2.08009         1.05833        0.418332 
        2.08622          1.0529        0.415226 
        2.09237         1.04788        0.412145 
        2.09851         1.04001        0.409094 
        2.10464          1.0344        0.406079 
        2.11077         1.02968        0.403098 
        2.11691         1.02346         0.40014 
        2.12305         1.01918        0.397212 
        2.12918         1.01307         0.39432 
        2.13531         1.00962        0.391456 
        2.14145         1.00333        0.388614 
         2.1476        0.994661        0.385797 
        2.15372        0.990753        0.383021 
        2.15985         0.98659        0.380271 
        2.16599        0.982024        0.377539 
        2.17213         0.97727        0.374836 
        2.17827        0.971696        0.372161 
         2.1844        0.967158        0.369514 
        2.19054        0.960945        0.366892 
        2.19666        0.957702        0.364299 
         2.2028        0.950998        0.361728 
        2.20893        0.948747        0.359181 
        2.21508        0.942718        0.356656 
        2.22122         0.93692        0.354154 
        2.22736        0.932741        0.351681 
        2.23349        0.928075        0.349232 
        2.23962        0.925265        0.346805 
        2.24577        0.920077        0.344399 
         2.2519        0.916833        0.342019 
        2.25802        0.910206        0.339665 
        2.26417        0.905841        0.337326 
        2.27031         0.90175        0.335008 
        2.27644        0.896771        0.332717 
        2.28257        0.892983        0.330448 
        2.28872        0.888109        0.328196 
        2.29486        0.883589        0.325966 
        2.30099        0.879738         0.32376 
        2.30712        0.875776        0.321574 
        2.31326        0.872536        0.319404 
         2.3194        0.867776        0.317255 
        2.32553        0.863058         0.31513 
        2.33166        0.858244        0.313025 
         2.3378        0.856783        0.310936 
        2.34394         0.84997        0.308866 
        2.35007        0.846503        0.306817 
        2.35619        0.843837        0.304789 
        2.36233        0.839964        0.302775 
        2.36848        0.835485        0.300774 
        2.37462        0.831914        0.298796 
        2.38075        0.828164        0.296838 
        2.38689        0.824295        0.294895 
        2.39303        0.819769         0.29297 
        2.39916        0.817946        0.291064 
        2.40529         0.81199        0.289175 
        2.41143        0.808698        0.287301 
        2.41757        0.805467        0.285443 
         2.4237        0.801096        0.283605 
        2.42983        0.798014        0.281783 
        2.43598        0.794413        0.279972 
        2.44211        0.789944         0.27818 
        2.44823        0.786385        0.276408 
        2.45437        0.783432        0.274646 
        2.46052        0.780705        0.272898 
        2.46665        0.776765        0.271168 
        2.47279        0.773552        0.269454 
        2.47892        0.771394        0.267753 
        2.48507        0.765932        0.266066 
         2.4912        0.763875        0.264396 
