# k  (h/Mpc)    Pcb(k)  (Mpc/h)^3    Pcb_linear(k)  (Mpc/h)^3
     0.00783031         3270.97         3297.73 
       0.013688         3640.45         3693.05 
       0.019231         3361.17         3382.03 
      0.0249154         2806.13         2794.04 
      0.0312784         2140.32         2134.75 
      0.0375637          1645.3         1645.92 
      0.0433917         1368.17         1360.95 
      0.0492413         1202.43         1201.15 
      0.0555754         1115.33         1109.36 
      0.0619321         1030.09         1040.26 
       0.067871         956.929         958.218 
      0.0738098          849.85         848.658 
      0.0800417         722.499         717.426 
      0.0862327         598.538         594.779 
      0.0921407         507.263         502.721 
      0.0982031         447.652         440.034 
       0.104506         406.948         404.838 
       0.110769         391.455         389.127 
       0.116806         383.962         379.597 
       0.122832         366.362         365.197 
       0.129052         342.552         339.844 
       0.135211         311.047         305.608 
       0.141259         273.476         269.074 
       0.147318          239.79         236.144 
       0.153489         215.803          210.77 
       0.159709         200.941          194.62 
       0.165845         189.174          186.19 
       0.171974         187.517         181.824 
       0.178125         182.348         177.762 
       0.184229         174.054         171.234 
        0.19034         165.643         161.199 
       0.196428         153.654         148.583 
       0.202534         138.609         135.291 
       0.208729         129.225         123.239 
       0.214876          120.87          114.01 
       0.220989         112.728         107.785 
       0.227147         110.063         103.874 
        0.23329         106.971           101.2 
       0.239377         104.588         98.5711 
       0.245482         100.278          95.106 
       0.251667          94.989         90.4777 
       0.257832         91.3515         85.0389 
       0.263955         84.7529         79.4726 
       0.270079          79.709         74.3997 
        0.27624         75.3897         70.2176 
       0.282372         72.4517         67.0841 
        0.28843         71.0815         64.7916 
       0.294538         68.4893         62.9348 
       0.300721         65.8998         61.1136 
        0.30691         64.4586         59.0613 
       0.313033         61.6524         56.6992 
       0.319153         59.8576         54.0967 
       0.325316         56.7045         51.4274 
        0.33145         54.1424         48.9457 
       0.337538          52.011         46.7944 
       0.343633         50.4088          45.009 
       0.349808         48.6514         43.5088 
       0.355968         47.1903         42.2143 
       0.362074         46.3071         40.9904 
       0.368217          44.843         39.7182 
       0.374374         43.6268         38.3644 
       0.380519         41.7309         36.9412 
       0.386598         40.2973         35.5308 
       0.392688         38.8067           34.18 
        0.39888         37.9463         32.9194 
       0.405048         36.8926         31.8101 
       0.411186         35.7864         30.8304 
       0.417313         34.7571         29.9401 
       0.423458         33.6962         29.0972 
       0.429607         33.0759         28.2631 
       0.435692         32.4623         27.4243 
       0.441815         31.1564          26.574 
       0.447964         30.0708         25.7282 
       0.454126         29.4838         24.9055 
       0.460267         29.0389          24.132 
       0.466387         28.1324         23.4199 
        0.47254         27.6536         22.7586 
       0.478662         26.7145         22.1417 
       0.484765         26.1055         21.5566 
       0.490885          25.299         20.9891 
       0.497035         24.8472         20.4282 
       0.503198         24.3328         19.8697 
       0.509342         23.5633         19.3222 
       0.515458         23.1632         18.7942 
       0.521598         22.5947         18.2874 
       0.527764         22.2045         17.8033 
       0.533884         21.6633         17.3461 
           0.54         21.2126         16.9113 
       0.546137         20.5544         16.4946 
       0.552299         20.1515         16.0916 
       0.558452         19.6742         15.7004 
       0.564573         19.4325         15.3191 
       0.570708         18.9384         14.9444 
       0.576825         18.6352         14.5812 
       0.582926          18.258         14.2312 
       0.589034          17.857         13.8947 
       0.595184         17.6196         13.5698 
       0.601379         17.1281         13.2548 
       0.607522         16.7789         12.9532 
       0.613639         16.5007         12.6619 
       0.619772         16.1707         12.3783 
       0.625918         15.8551         12.1021 
       0.632068         15.6662         11.8339 
       0.638161         15.3243          11.576 
         0.6443         15.0624         11.3239 
       0.650464         14.6662         11.0784 
       0.656582         14.5498         10.8421 
       0.662703         14.3168         10.6127 
       0.668861         13.9422         10.3888 
       0.675024         13.7166         10.1712 
       0.681124         13.6603         9.96214 
       0.687237         13.3555         9.75865 
       0.693381         13.0358         9.55997 
       0.699536         12.9455         9.36653 
       0.705665         12.6658         9.17932 
       0.711789         12.4468         8.99742 
       0.717957         12.1724         8.81922 
        0.72409         12.0429         8.64685 
       0.730186         11.9666         8.48013 
       0.736317         11.6845         8.31689 
       0.742472         11.5482         8.15735 
       0.748622         11.3427         8.00213 
        0.75476         11.0467         7.85127 
       0.760888         10.9998          7.7045 
       0.767043         10.7759          7.5609 
       0.773185         10.6297         7.42127 
       0.779291         10.5222         7.28596 
       0.785407         10.3466         7.15384 
       0.791564         10.2321          7.0242 
       0.797719         9.99154         6.89785 
       0.803834         9.94674         6.77545 
       0.809972         9.73428          6.6556 
       0.816124         9.62264         6.53842 
       0.822261         9.49955          6.4244 
       0.828378         9.38237         6.31345 
       0.834502         9.26678         6.20505 
       0.840667         9.14961         6.09851 
       0.846816         8.94241         5.99478 
       0.852925         8.90711         5.89412 
       0.859047          8.7664         5.79557 
       0.865192         8.64014         5.69896 
       0.871341         8.52976         5.60448 
       0.877463         8.40793         5.51259 
       0.883569         8.34015         5.42299 
       0.889708          8.1951         5.33494 
       0.895864          8.0859         5.24861 
       0.902008          7.9924         5.16438 
       0.908149         7.86465         5.08206 
       0.914301         7.79439          5.0014 
       0.920448         7.69842         4.92257 
       0.926574         7.64061         4.84571 
       0.932687         7.50518         4.77067 
       0.938823         7.39372         4.69694 
       0.944975         7.35557         4.62461 
       0.951105         7.24555         4.55406 
       0.957225         7.19104         4.48511 
       0.963368         7.07199         4.41735 
       0.969511         6.99115         4.35099 
       0.975621         6.91939         4.28635 
       0.981748         6.82198         4.22286 
       0.987916         6.76261         4.16026 
        0.99406         6.68093         4.09916 
        1.00019         6.62088         4.03942 
        1.00632         6.56932         3.98091 
        1.01246         6.46676         3.92349 
        1.01859         6.40254         3.86729 
        1.02471         6.31453         3.81226 
        1.03085         6.27566         3.75812 
        1.03698         6.20906         3.70514 
        1.04314         6.12642         3.65297 
        1.04929         6.04668         3.60192 
        1.05541         5.99286         3.55205 
        1.06154         5.93414         3.50301 
        1.06769         5.89439         3.45482 
        1.07382         5.79689          3.4077 
        1.07993         5.74475         3.36157 
        1.08607          5.7027          3.3161 
        1.09222         5.62888         3.27143 
        1.09836         5.59541         3.22764 
        1.10449         5.51281          3.1847 
        1.11063         5.48559         3.14249 
        1.11677         5.43435         3.10107 
         1.1229         5.37662         3.06047 
        1.12903         5.32514         3.02055 
        1.13518          5.2579         2.98132 
        1.14131         5.21307         2.94281 
        1.14745         5.13746         2.90499 
        1.15359          5.0845         2.86784 
        1.15973          5.0463         2.83132 
        1.16584         5.00255          2.7956 
        1.17197         4.94455         2.76045 
        1.17811         4.90462         2.72579 
        1.18424         4.86631         2.69183 
        1.19038         4.83512         2.65835 
        1.19652         4.78163         2.62545 
        1.20267          4.7476         2.59311 
        1.20881         4.68221         2.56131 
        1.21495         4.65023          2.5301 
        1.22108         4.60312         2.49942 
         1.2272         4.55883         2.46931 
        1.23334         4.54002         2.43963 
        1.23949         4.48501         2.41037 
        1.24562         4.45042         2.38167 
        1.25174         4.42334         2.35348 
        1.25789         4.35772         2.32567 
        1.26402         4.33251         2.29835 
        1.27014         4.30739         2.27153 
        1.27628         4.25352         2.24507 
        1.28244         4.23403         2.21898 
        1.28858         4.19316         2.19333 
        1.29471         4.14407         2.16815 
        1.30084         4.10955         2.14339 
        1.30697         4.09296         2.11897 
        1.31312            4.05         2.09491 
        1.31925         4.01763         2.07129 
        1.32537         3.98579         2.04806 
        1.33151          3.9483          2.0251 
        1.33765         3.91615         2.00251 
        1.34378         3.90554         1.98031 
        1.34992         3.86591         1.95843 
        1.35606         3.83164         1.93683 
         1.3622         3.79566         1.91559 
        1.36833         3.77199         1.89473 
        1.37445         3.73422         1.87419 
        1.38059         3.69786         1.85388 
        1.38675         3.67595         1.83383 
        1.39288         3.65675         1.81416 
        1.39901         3.61441         1.79478 
        1.40515         3.59337         1.77564 
         1.4113         3.56469         1.75679 
        1.41742          3.5465         1.73828 
        1.42355         3.50873            1.72 
         1.4297         3.47988         1.70193 
        1.43585         3.46548         1.68413 
        1.44198         3.43592         1.66665 
        1.44809         3.40926         1.64945 
        1.45423         3.38217         1.63243 
        1.46036         3.36261         1.61568 
        1.46649         3.33806         1.59916 
        1.47263         3.31426         1.58286 
        1.47877         3.28779         1.56679 
        1.48491         3.27094         1.55092 
        1.49104         3.24631          1.5353 
        1.49718         3.22579         1.51989 
        1.50333         3.19524         1.50466 
        1.50947         3.17249         1.48967 
         1.5156         3.15531         1.47491 
        1.52172         3.12778         1.46035 
        1.52787         3.11502         1.44595 
          1.534         3.08655         1.43177 
        1.54013         3.07558         1.41779 
        1.54627         3.04324         1.40397 
        1.55241         3.02126         1.39034 
        1.55855         3.00918          1.3769 
        1.56467         2.99617         1.36368 
         1.5708         2.96048         1.35059 
        1.57695         2.93758         1.33766 
        1.58308         2.91827         1.32493 
        1.58922         2.91175         1.31235 
        1.59535         2.89197         1.29994 
         1.6015         2.85982         1.28767 
        1.60764         2.84934         1.27557 
        1.61376         2.82809         1.26365 
        1.61989         2.80528         1.25188 
        1.62604         2.79366         1.24023 
        1.63218         2.77602         1.22873 
        1.63831         2.75867         1.21741 
        1.64444         2.73752         1.20623 
        1.65059         2.72485         1.19516 
        1.65673         2.70564         1.18424 
        1.66285         2.68778         1.17348 
        1.66898         2.67307         1.16286 
        1.67512         2.65574         1.15235 
        1.68127         2.63266         1.14196 
         1.6874         2.61954         1.13171 
        1.69353         2.60073          1.1216 
        1.69967         2.58535         1.11159 
        1.70581         2.56935         1.10171 
        1.71193          2.5523         1.09198 
        1.71806         2.53941         1.08235 
        1.72421         2.52501         1.07282 
        1.73035         2.50829         1.06341 
        1.73649         2.49545         1.05412 
        1.74262         2.47807         1.04494 
        1.74876         2.46726         1.03587 
        1.75489         2.44919         1.02693 
        1.76101         2.43068         1.01809 
        1.76715         2.42833         1.00934 
        1.77329         2.40768         1.00069 
        1.77943          2.3875        0.992131 
        1.78557         2.38207        0.983687 
        1.79171         2.36382        0.975339 
        1.79785         2.35668        0.967087 
        1.80399         2.33676        0.958932 
        1.81012         2.32643        0.950881 
        1.81625         2.30914        0.942926 
        1.82239         2.30101         0.93505 
        1.82853         2.28497        0.927268 
        1.83466         2.26544        0.919582 
        1.84078         2.25358         0.91199 
        1.84692         2.24124        0.904472 
        1.85306         2.22994        0.897029 
         1.8592         2.21985        0.889681 
        1.86533         2.20894        0.882419 
        1.87147         2.20013         0.87523 
        1.87761          2.1858        0.868117 
        1.88375           2.171        0.861092 
        1.88988         2.16046        0.854152 
        1.89601          2.1436        0.847284 
        1.90215         2.13452        0.840487 
        1.90829         2.12771        0.833767 
        1.91442         2.11421        0.827119 
        1.92056         2.10624         0.82055 
         1.9267         2.09181        0.814046 
        1.93284         2.08247        0.807608 
        1.93897           2.068        0.801251 
        1.94509         2.04895        0.794977 
        1.95123         2.04902        0.788754 
        1.95737         2.03805        0.782592 
        1.96349         2.02586        0.776513 
        1.96964         2.01371         0.77048 
        1.97578         2.00408        0.764508 
        1.98192         1.99021        0.758611 
        1.98805         1.98278        0.752776 
        1.99419         1.97146        0.747002 
        2.00033         1.95747        0.741285 
        2.00647         1.95421         0.73563 
         2.0126         1.94396        0.730043 
        2.01874          1.9311        0.724505 
        2.02488         1.92712         0.71902 
        2.03101         1.91013        0.713602 
        2.03714         1.90227        0.708244 
        2.04328         1.89425        0.702936 
        2.04941         1.88244        0.697685 
        2.05554         1.87501        0.692493 
        2.06167         1.86855        0.687346 
        2.06781          1.8569         0.68225 
        2.07396         1.84694        0.677199 
        2.08009         1.84094        0.672207 
        2.08622         1.83301        0.667271 
        2.09237         1.82407        0.662375 
        2.09851         1.81124        0.657528 
        2.10464         1.80265        0.652736 
        2.11077         1.79636        0.647998 
        2.11691         1.78542        0.643297 
        2.12305          1.7773        0.638641 
        2.12918         1.76898        0.634043 
        2.13531         1.76303         0.62949 
        2.14145         1.75246         0.62497 
         2.1476         1.73974         0.62049 
        2.15372          1.7316        0.616076 
        2.15985         1.72794          0.6117 
        2.16599         1.71981        0.607354 
        2.17213         1.71388        0.603055 
        2.17827         1.69938        0.598798 
         2.1844         1.69552        0.594586 
        2.19054         1.68668        0.590414 
        2.19666         1.68154        0.586287 
         2.2028         1.66743        0.582195 
        2.20893         1.66842        0.578141 
        2.21508         1.65466         0.57412 
        2.22122         1.64589        0.570137 
        2.22736         1.63924        0.566199 
        2.23349         1.63221          0.5623 
        2.23962         1.62623        0.558435 
        2.24577         1.61739        0.554602 
         2.2519         1.61539        0.550811 
        2.25802         1.60003        0.547062 
        2.26417         1.59619        0.543337 
        2.27031         1.58894        0.539642 
        2.27644         1.58059        0.535993 
        2.28257          1.5752        0.532378 
        2.28872         1.56695        0.528789 
        2.29486         1.55936        0.525234 
        2.30099         1.55339        0.521719 
        2.30712         1.54738        0.518234 
        2.31326         1.54309        0.514775 
         2.3194         1.53292        0.511349 
        2.32553         1.52748        0.507961 
        2.33166         1.52054        0.504604 
         2.3378         1.51641        0.501273 
        2.34394          1.5058        0.497971 
        2.35007         1.49993        0.494703 
        2.35619         1.49655        0.491469 
        2.36233         1.48869        0.488256 
        2.36848         1.48152        0.485064 
        2.37462         1.47673        0.481908 
        2.38075         1.47072        0.478783 
        2.38689         1.46402        0.475683 
        2.39303         1.45815        0.472611 
        2.39916         1.45278        0.469569 
        2.40529          1.4448        0.466554 
        2.41143         1.44076        0.463563 
        2.41757         1.43577        0.460597 
         2.4237         1.42776        0.457663 
        2.42983         1.42261        0.454754 
        2.43598          1.4166        0.451863 
        2.44211         1.40943        0.449001 
        2.44823         1.40513        0.446171 
        2.45437         1.39801        0.443357 
        2.46052         1.39382        0.440565 
        2.46665         1.38698        0.437802 
        2.47279         1.38217        0.435063 
        2.47892         1.37873        0.432346 
        2.48507         1.37008         0.42965 
         2.4912         1.36681        0.426981 
