# k  (h/Mpc)    P(k)  (Mpc/h)^3    P_linear(k)  (Mpc/h)^3
     0.00783031         368.504         372.111 
       0.013688         413.027         416.661 
       0.019231         380.566         381.555 
      0.0249154          315.85         315.212 
      0.0312784         241.759         240.832 
      0.0375637         186.248         185.684 
      0.0433917         154.306         153.534 
      0.0492413          135.84         135.506 
      0.0555754         125.581          125.15 
      0.0619321         116.989         117.355 
       0.067871         108.088         108.099 
      0.0738098          95.799         95.7395 
      0.0800417         81.2017         80.9349 
      0.0862327         67.3216         67.0989 
      0.0921407           56.92         56.7136 
      0.0982031         49.9679         49.6416 
       0.104506         45.7386         45.6709 
       0.110769         43.9446         43.8985 
       0.116806         42.9367         42.8234 
       0.122832         41.1765         41.1988 
       0.129052         38.4075         38.3388 
       0.135211         34.6232         34.4764 
       0.141259         30.4572          30.355 
       0.147318         26.7087           26.64 
       0.153489         23.9042         23.7776 
       0.159709         22.0982         21.9557 
       0.165845         21.0271         21.0046 
       0.171974         20.6386          20.512 
       0.178125         20.1323         20.0538 
       0.184229         19.3532         19.3174 
        0.19034         18.2905         18.1853 
       0.196428         16.8609          16.762 
       0.202534         15.2949         15.2626 
       0.208729         14.0148         13.9029 
       0.214876         13.0099         12.8618 
       0.220989         12.2408         12.1595 
       0.227147         11.8486         11.7182 
        0.23329         11.5359         11.4167 
       0.239377         11.2369           11.12 
       0.245482         10.8427         10.7291 
       0.251667         10.2829          10.207 
       0.257832         9.72356         9.59346 
       0.263955         9.06377         8.96551 
       0.270079         8.49231         8.39324 
        0.27624         8.00534         7.92142 
       0.282372         7.65243         7.56798 
        0.28843         7.42473         7.30935 
       0.294538         7.20247         7.09986 
       0.300721          6.9673         6.89437 
        0.30691          6.7625         6.66292 
       0.313033         6.49063         6.39642 
       0.319153          6.2323         6.10276 
       0.325316         5.88554         5.80165 
        0.33145         5.60375         5.52172 
       0.337538         5.36989         5.27891 
       0.343633         5.18344         5.07758 
       0.349808          5.0004         4.90834 
       0.355968         4.84529         4.76229 
       0.362074          4.7233         4.62426 
       0.368217         4.57141         4.48072 
       0.374374         4.43507           4.328 
       0.380519         4.25734         4.16744 
       0.386598         4.08923         4.00831 
       0.392688         3.92966         3.85593 
        0.39888         3.80054         3.71373 
       0.405048         3.67807         3.58858 
       0.411186         3.56223         3.47806 
       0.417313         3.46138         3.37763 
       0.423458         3.35269         3.28252 
       0.429607         3.27452         3.18846 
       0.435692         3.18314         3.09379 
       0.441815         3.07787         2.99789 
       0.447964         2.97134         2.90245 
       0.454126         2.89002         2.80967 
       0.460267         2.81091         2.72235 
       0.466387         2.72556         2.64208 
        0.47254         2.65524         2.56745 
       0.478662         2.57996         2.49786 
       0.484765         2.51524         2.43186 
       0.490885         2.44261         2.36784 
       0.497035         2.37151         2.30456 
       0.503198         2.31935         2.24156 
       0.509342         2.24746         2.17979 
       0.515458         2.19352         2.12022 
       0.521598           2.138         2.06306 
       0.527764         2.08992         2.00844 
       0.533884         2.02311         1.95685 
           0.54          1.9797         1.90781 
       0.546137         1.92668          1.8608 
       0.552299          1.8833         1.81534 
       0.558452          1.8372         1.77122 
       0.564573         1.79511         1.72818 
       0.570708         1.75391         1.68592 
       0.576825         1.71288         1.64494 
       0.582926         1.66841         1.60546 
       0.589034         1.63576          1.5675 
       0.595184         1.60151         1.53084 
       0.601379          1.5605         1.49531 
       0.607522         1.52301         1.46128 
       0.613639         1.48754         1.42843 
       0.619772          1.4607         1.39642 
       0.625918         1.42823         1.36527 
       0.632068         1.39756         1.33501 
       0.638161           1.367         1.30591 
         0.6443         1.33668         1.27747 
       0.650464            1.31         1.24979 
       0.656582         1.28613         1.22313 
       0.662703         1.25798         1.19725 
       0.668861          1.2267         1.17198 
       0.675024         1.20337         1.14744 
       0.681124         1.18895         1.12386 
       0.687237         1.15998          1.1009 
       0.693381         1.13202         1.07849 
       0.699536         1.11562         1.05666 
       0.705665         1.09381         1.03554 
       0.711789         1.06826         1.01502 
       0.717957         1.04905         0.99492 
        0.72409         1.02924        0.975474 
       0.730186         1.01495        0.956666 
       0.736317        0.990569        0.938251 
       0.742472        0.975717        0.920253 
       0.748622        0.958745        0.902742 
        0.75476        0.937366        0.885722 
       0.760888        0.923443        0.869165 
       0.767043        0.899009        0.852966 
       0.773185        0.886932        0.837213 
       0.779291        0.876011        0.821948 
       0.785407        0.858184        0.807044 
       0.791564        0.842084        0.792418 
       0.797719        0.827223        0.778165 
       0.803834        0.813093        0.764356 
       0.809972        0.799243        0.750836 
       0.816124        0.785929        0.737617 
       0.822261        0.773151        0.724753 
       0.828378        0.759962        0.712238 
       0.834502        0.746315        0.700009 
       0.840667        0.736008         0.68799 
       0.846816        0.722533        0.676287 
       0.852925        0.709567        0.664932 
       0.859047        0.698372        0.653814 
       0.865192        0.687891        0.642914 
       0.871341        0.678144        0.632257 
       0.877463        0.664437         0.62189 
       0.883569        0.654962        0.611782 
       0.889708        0.646228        0.601848 
       0.895864        0.636122         0.59211 
       0.902008        0.624307        0.582608 
       0.908149        0.615968        0.573321 
       0.914301        0.607543        0.564221 
       0.920448        0.598925        0.555328 
       0.926574        0.590778        0.546658 
       0.932687        0.581586        0.538192 
       0.938823        0.570095        0.529875 
       0.944975        0.563645        0.521715 
       0.951105        0.552406        0.513756 
       0.957225        0.545871        0.505978 
       0.963368        0.538963        0.498334 
       0.969511        0.531733        0.490847 
       0.975621        0.522558        0.483555 
       0.981748        0.513223        0.476393 
       0.987916        0.507184         0.46933 
        0.99406        0.501269        0.462438 
        1.00019        0.493668        0.455697 
        1.00632        0.488399        0.449098 
        1.01246        0.481149        0.442619 
        1.01859        0.474666        0.436279 
        1.02471        0.466631        0.430072 
        1.03085        0.459699        0.423964 
        1.03698        0.455052        0.417987 
        1.04314          0.4482        0.412101 
        1.04929        0.443969        0.406342 
        1.05541        0.435886        0.400717 
        1.06154         0.43112        0.395184 
        1.06769        0.425741        0.389748 
        1.07382        0.419904        0.384432 
        1.07993        0.414519        0.379228 
        1.08607        0.409284        0.374098 
        1.09222        0.403515        0.369059 
        1.09836        0.398879        0.364119 
        1.10449        0.392887        0.359274 
        1.11063        0.387755        0.354513 
        1.11677        0.383786         0.34984 
         1.1229        0.377659        0.345259 
        1.12903        0.374115        0.340757 
        1.13518        0.368988        0.336331 
        1.14131        0.365078        0.331986 
        1.14745        0.361608         0.32772 
        1.15359         0.35598        0.323529 
        1.15973        0.352163        0.319409 
        1.16584        0.347554         0.31538 
        1.17197         0.34275        0.311414 
        1.17811        0.338381        0.307504 
        1.18424        0.334724        0.303673 
        1.19038        0.330093        0.299896 
        1.19652          0.3273        0.296184 
        1.20267        0.323811        0.292535 
        1.20881        0.318372        0.288949 
        1.21495        0.315416        0.285428 
        1.22108        0.312082        0.281966 
         1.2272        0.307667         0.27857 
        1.23334          0.3046        0.275222 
        1.23949        0.301582        0.271921 
        1.24562        0.297913        0.268683 
        1.25174        0.294822        0.265503 
        1.25789        0.290399        0.262365 
        1.26402        0.288084        0.259283 
        1.27014        0.283862        0.256258 
        1.27628        0.281559        0.253272 
        1.28244        0.278179        0.250329 
        1.28858          0.2746        0.247436 
        1.29471        0.271907        0.244595 
        1.30084         0.26893        0.241801 
        1.30697        0.266812        0.239047 
        1.31312        0.263766        0.236332 
        1.31925        0.260656        0.233668 
        1.32537        0.257869        0.231047 
        1.33151        0.255065        0.228457 
        1.33765          0.2523        0.225908 
        1.34378        0.249317        0.223404 
        1.34992        0.247609        0.220935 
        1.35606        0.244287        0.218499 
         1.3622        0.242036        0.216103 
        1.36833        0.239926         0.21375 
        1.37445        0.237397        0.211432 
        1.38059        0.234906        0.209142 
        1.38675        0.232123         0.20688 
        1.39288        0.229351         0.20466 
        1.39901        0.227701        0.202474 
        1.40515        0.225172        0.200315 
         1.4113        0.223392        0.198188 
        1.41742        0.221087          0.1961 
        1.42355        0.217844        0.194038 
         1.4297        0.216669           0.192 
        1.43585        0.213995        0.189991 
        1.44198        0.212437        0.188019 
        1.44809         0.20999        0.186079 
        1.45423        0.207954        0.184159 
        1.46036        0.205918         0.18227 
        1.46649        0.203905        0.180406 
        1.47263        0.201338        0.178567 
        1.47877        0.200691        0.176754 
        1.48491        0.197648        0.174964 
        1.49104        0.196902        0.173202 
        1.49718        0.194353        0.171463 
        1.50333        0.192704        0.169745 
        1.50947        0.190893        0.168054 
         1.5156        0.189098        0.166389 
        1.52172        0.187364        0.164746 
        1.52787        0.185104        0.163122 
          1.534        0.183897        0.161522 
        1.54013         0.18209        0.159945 
        1.54627        0.180668        0.158386 
        1.55241        0.178904        0.156848 
        1.55855        0.177175        0.155332 
        1.56467        0.175807         0.15384 
         1.5708        0.174013        0.152364 
        1.57695        0.172441        0.150905 
        1.58308        0.170407        0.149469 
        1.58922        0.169488         0.14805 
        1.59535        0.167612         0.14665 
         1.6015        0.166327        0.145266 
        1.60764        0.164705          0.1439 
        1.61376        0.163323        0.142556 
        1.61989        0.161788        0.141228 
        1.62604        0.160274        0.139914 
        1.63218        0.159221        0.138617 
        1.63831        0.157606         0.13734 
        1.64444        0.156542        0.136078 
        1.65059        0.154639        0.134829 
        1.65673        0.153555        0.133597 
        1.66285        0.152409        0.132384 
        1.66898        0.150934        0.131186 
        1.67512        0.149542            0.13 
        1.68127        0.148241        0.128827 
         1.6874        0.147219        0.127672 
        1.69353        0.145738        0.126531 
        1.69967         0.14452        0.125402 
        1.70581        0.143611        0.124287 
        1.71193        0.142541         0.12319 
        1.71806        0.141069        0.122103 
        1.72421        0.139826        0.121028 
        1.73035        0.138686        0.119966 
        1.73649        0.137704        0.118918 
        1.74262         0.13638        0.117883 
        1.74876        0.135584         0.11686 
        1.75489        0.134432         0.11585 
        1.76101        0.133249        0.114853 
        1.76715        0.132189        0.113867 
        1.77329        0.131057         0.11289 
        1.77943        0.129929        0.111925 
        1.78557        0.129186        0.110972 
        1.79171        0.128168        0.110031 
        1.79785        0.126914          0.1091 
        1.80399        0.125637         0.10818 
        1.81012        0.125109        0.107272 
        1.81625        0.124195        0.106374 
        1.82239        0.123375        0.105486 
        1.82853        0.122023        0.104608 
        1.83466        0.121042        0.103741 
        1.84078        0.120215        0.102884 
        1.84692        0.119343        0.102036 
        1.85306        0.118457        0.101196 
         1.8592         0.11758        0.100367 
        1.86533        0.116754       0.0995482 
        1.87147        0.115686       0.0987372 
        1.87761        0.114713       0.0979348 
        1.88375        0.113886       0.0971422 
        1.88988        0.112952       0.0963593 
        1.89601         0.11197       0.0955845 
        1.90215        0.111323       0.0948177 
        1.90829        0.110292       0.0940596 
        1.91442        0.109847       0.0933097 
        1.92056        0.109052       0.0925686 
         1.9267        0.108116       0.0918348 
        1.93284        0.107138       0.0911085 
        1.93897        0.106416       0.0903914 
        1.94509        0.105756       0.0896836 
        1.95123        0.104765       0.0889815 
        1.95737        0.104234       0.0882865 
        1.96349        0.103375       0.0876006 
        1.96964        0.102535         0.08692 
        1.97578        0.101762       0.0862463 
        1.98192        0.101288       0.0855811 
        1.98805        0.100548       0.0849228 
        1.99419       0.0999319       0.0842714 
        2.00033       0.0989806       0.0836265 
        2.00647       0.0983574       0.0829885 
         2.0126        0.097696       0.0823582 
        2.01874       0.0969728       0.0817335 
        2.02488       0.0963975       0.0811147 
        2.03101       0.0954693       0.0805035 
        2.03714       0.0952808       0.0798991 
        2.04328       0.0941565       0.0793002 
        2.04941       0.0937721       0.0787079 
        2.05554       0.0930628       0.0781221 
        2.06167       0.0923619       0.0775414 
        2.06781       0.0915923       0.0769666 
        2.07396       0.0911918       0.0763967 
        2.08009       0.0904629       0.0758336 
        2.08622        0.089946       0.0752768 
        2.09237       0.0893114       0.0747245 
        2.09851       0.0885504       0.0741776 
        2.10464       0.0881313        0.073637 
        2.11077       0.0873797       0.0731025 
        2.11691       0.0869282       0.0725721 
        2.12305       0.0862006        0.072047 
        2.12918        0.085619       0.0715282 
        2.13531       0.0850812       0.0710145 
        2.14145       0.0845603       0.0705047 
         2.1476       0.0839814       0.0699992 
        2.15372        0.083571       0.0695013 
        2.15985       0.0828546       0.0690076 
        2.16599       0.0822124       0.0685173 
        2.17213       0.0818654       0.0680324 
        2.17827       0.0813031       0.0675522 
         2.1844       0.0807858        0.067077 
        2.19054       0.0802747       0.0666063 
        2.19666       0.0797845       0.0661407 
         2.2028       0.0789963       0.0656791 
        2.20893       0.0786971       0.0652217 
        2.21508       0.0782094       0.0647682 
        2.22122       0.0776729       0.0643188 
        2.22736       0.0771556       0.0638746 
        2.23349       0.0766221       0.0634346 
        2.23962       0.0762261       0.0629986 
        2.24577       0.0757752       0.0625663 
         2.2519       0.0752327       0.0621386 
        2.25802        0.074743       0.0617156 
        2.26417       0.0744208       0.0612954 
        2.27031       0.0738659       0.0608786 
        2.27644       0.0736138        0.060467 
        2.28257        0.072929       0.0600591 
        2.28872         0.07252       0.0596542 
        2.29486       0.0721418       0.0592532 
        2.30099       0.0715652       0.0588566 
        2.30712       0.0712338       0.0584635 
        2.31326       0.0706939       0.0580732 
         2.3194       0.0703605       0.0576868 
        2.32553       0.0699152       0.0573045 
        2.33166       0.0694325       0.0569259 
         2.3378       0.0690541       0.0565501 
        2.34394       0.0686499       0.0561776 
        2.35007       0.0682778       0.0558089 
        2.35619       0.0679125        0.055444 
        2.36233       0.0674556       0.0550815 
        2.36848       0.0669819       0.0547215 
        2.37462       0.0667113       0.0543655 
        2.38075       0.0662524       0.0540129 
        2.38689        0.065945       0.0536632 
        2.39303       0.0655579       0.0533166 
        2.39916       0.0650669       0.0529735 
        2.40529       0.0646756       0.0526333 
        2.41143       0.0642504       0.0522959 
        2.41757       0.0639339       0.0519614 
         2.4237       0.0635614       0.0516303 
        2.42983       0.0632355       0.0513021 
        2.43598       0.0628467        0.050976 
        2.44211       0.0623547       0.0506532 
        2.44823       0.0621496       0.0503338 
        2.45437       0.0618021       0.0500164 
        2.46052        0.061425       0.0497014 
        2.46665       0.0611034       0.0493897 
        2.47279        0.060704       0.0490808 
        2.47892       0.0605454       0.0487743 
        2.48507       0.0599534       0.0484701 
         2.4912       0.0597355        0.048169 
