# k  (h/Mpc)    Pcb(k)  (Mpc/h)^3    Pcb_linear(k)  (Mpc/h)^3
     0.00783031         779.573         784.413 
       0.013688         1022.35         1032.26 
       0.019231         1102.74         1107.35 
      0.0249154         1085.58         1086.16 
      0.0312784            1001         1002.92 
      0.0375637         900.547          903.41 
      0.0433917          819.62          818.95 
      0.0492413         748.702         750.216 
      0.0555754         694.249         693.316 
      0.0619321         643.045         648.217 
       0.067871         608.313         610.005 
      0.0738098         569.553         570.638 
      0.0800417         526.152         526.092 
      0.0862327         478.833         479.825 
      0.0921407         435.792         436.829 
      0.0982031         397.562         397.129 
       0.104506         361.284         362.887 
       0.110769         335.252         336.453 
       0.116806         317.889         317.007 
       0.122832         300.551         301.451 
       0.129052          287.13         287.067 
       0.135211         273.547         272.588 
       0.141259         257.122         257.223 
       0.147318         239.506         240.797 
       0.153489         223.741         223.867 
       0.159709         208.654         207.782 
       0.165845          192.89         193.837 
       0.171974         183.757         182.278 
       0.178125         174.468         172.964 
       0.184229          165.86         165.458 
        0.19034         160.499          158.94 
       0.196428         154.117         152.724 
       0.202534         146.223         146.271 
       0.208729         140.553         139.315 
       0.214876         134.258         132.133 
       0.220989         125.566          125.04 
       0.227147         120.736          118.32 
        0.23329         115.055         112.324 
       0.239377         110.262         107.198 
       0.245482         105.464          102.82 
       0.251667         101.089         98.9775 
       0.257832         98.5931         95.4926 
       0.263955         94.3988         92.1476 
       0.270079         91.0604         88.7658 
        0.27624         87.0671         85.2782 
       0.282372         83.8256         81.7691 
        0.28843         81.5457         78.3625 
       0.294538         78.0349         75.1037 
       0.300721         74.5364         72.0708 
        0.30691          72.572         69.3405 
       0.313033         69.8745         66.9216 
       0.319153         68.4464         64.7266 
       0.325316         65.4081         62.6625 
        0.33145         63.3903         60.6828 
       0.337538         61.6156         58.7416 
       0.343633         59.8567         56.8064 
       0.349808         57.8133         54.8626 
       0.355968         55.8783         52.9718 
       0.362074         54.5306         51.1771 
       0.368217         52.8033         49.4796 
       0.374374         51.6709         47.8973 
       0.380519         49.5902         46.4322 
       0.386598         48.1396         45.0785 
       0.392688         46.7877         43.7926 
        0.39888         45.7972         42.5348 
       0.405048          44.655         41.3145 
       0.411186         43.4216         40.1234 
       0.417313         42.2388         38.9603 
       0.423458         40.9407         37.8259 
       0.429607         40.1896         36.7318 
       0.435692         39.3612         35.6986 
       0.441815         37.9552         34.7113 
       0.447964         36.8507         33.7706 
       0.454126         36.2035         32.8753 
       0.460267          35.742          32.022 
       0.466387         34.6969         31.2022 
        0.47254         34.0958         30.4027 
       0.478662         33.1284         29.6295 
       0.484765          32.403         28.8787 
       0.490885         31.5011         28.1471 
       0.497035          30.829          27.436 
       0.503198         30.1778           26.75 
       0.509342         29.3895         26.0926 
       0.515458         28.9711         25.4639 
       0.521598          28.315         24.8576 
       0.527764         27.9112         24.2714 
       0.533884         27.1251         23.7091 
           0.54         26.6289         23.1642 
       0.546137         25.8659         22.6328 
       0.552299         25.4309         22.1147 
       0.558452         24.9221         21.6125 
       0.564573         24.5796         21.1276 
       0.570708         24.0064         20.6565 
       0.576825         23.5948          20.202 
       0.582926         23.1347         19.7638 
       0.589034         22.7184         19.3394 
       0.595184         22.4115         18.9257 
       0.601379         21.8227         18.5216 
       0.607522         21.4709         18.1324 
       0.613639         21.0215         17.7557 
       0.619772         20.7251         17.3886 
       0.625918         20.2953          17.031 
       0.632068         20.0764         16.6832 
       0.638161         19.6758         16.3482 
         0.6443         19.3266         16.0201 
       0.650464         18.8647            15.7 
       0.656582         18.7393         15.3913 
       0.662703         18.4843         15.0912 
       0.668861         17.9908         14.7978 
       0.675024         17.7413         14.5122 
       0.681124         17.6691          14.237 
       0.687237         17.2913         13.9684 
       0.693381         16.8684         13.7054 
       0.699536           16.79         13.4486 
       0.705665          16.483         13.1995 
       0.711789         16.1565          12.957 
       0.717957         15.8429         12.7191 
        0.72409          15.699         12.4886 
       0.730186         15.5748         12.2654 
       0.736317         15.2523         12.0466 
       0.742472         15.0601         11.8324 
       0.748622         14.8346         11.6237 
        0.75476         14.4737         11.4204 
       0.760888         14.3801         11.2224 
       0.767043         14.0965         11.0283 
       0.773185         13.9352         10.8393 
       0.779291         13.8579         10.6557 
       0.785407         13.5857         10.4762 
       0.791564         13.4412         10.2998 
       0.797719         13.1839         10.1275 
       0.803834         13.0767         9.96039 
       0.809972         12.8446         9.79648 
       0.816124         12.6959         9.63596 
       0.822261         12.5411         9.47951 
       0.828378         12.3607         9.32705 
       0.834502         12.2328         9.17786 
       0.840667         12.1116         9.03099 
       0.846816         11.8741         8.88779 
       0.852925         11.7618         8.74862 
       0.859047         11.6198         8.61217 
       0.865192         11.4628         8.47821 
       0.871341         11.2991         8.34704 
       0.877463         11.1763         8.21926 
       0.883569         11.0714         8.09452 
       0.889708         10.9103         7.97175 
       0.895864         10.7763         7.85124 
       0.902008          10.632          7.7335 
       0.908149         10.4997         7.61827 
       0.914301         10.4203         7.50523 
       0.920448         10.2749         7.39461 
       0.926574         10.2206         7.28664 
       0.932687         10.0533         7.18107 
       0.938823         9.91136         7.07723 
       0.944975         9.83046         6.97523 
       0.951105         9.68446         6.87563 
       0.957225         9.62414         6.77816 
       0.963368         9.51928         6.68227 
       0.969511         9.41049         6.58825 
       0.975621         9.29748         6.49656 
       0.981748         9.14721          6.4064 
       0.987916         9.07546          6.3174 
        0.99406         9.02432         6.23044 
        1.00019         8.92688         6.14531 
        1.00632         8.83856         6.06185 
        1.01246          8.7203         5.97984 
        1.01859         8.62797         5.89949 
        1.02471          8.5071         5.82072 
        1.03085         8.47527         5.74314 
        1.03698         8.38373         5.66715 
        1.04314         8.30354         5.59222 
        1.04929         8.18456         5.51883 
        1.05541         8.11896         5.44707 
        1.06154         8.05079         5.37641 
        1.06769         8.01665         5.30692 
        1.07382         7.87603         5.23889 
        1.07993         7.78925         5.17222 
        1.08607         7.75164         5.10644 
        1.09222         7.64801         5.04175 
        1.09836         7.63626         4.97827 
        1.10449         7.47856         4.91596 
        1.11063         7.45282         4.85466 
        1.11677         7.39049         4.79444 
         1.1229         7.31545         4.73535 
        1.12903         7.26782         4.67721 
        1.13518         7.15742         4.62001 
        1.14131         7.09968          4.5638 
        1.14745         7.01835         4.50857 
        1.15359         6.96924         4.45426 
        1.15973         6.90102         4.40082 
        1.16584         6.84596          4.3485 
        1.17197         6.77905         4.29697 
        1.17811         6.71649         4.24612 
        1.18424         6.66003         4.19625 
        1.19038           6.606         4.14705 
        1.19652         6.56287         4.09865 
        1.20267         6.50591         4.05104 
        1.20881          6.4418          4.0042 
        1.21495         6.38737         3.95818 
        1.22108         6.34235         3.91289 
         1.2272         6.26424         3.86842 
        1.23334         6.25675         3.82455 
        1.23949         6.18219         3.78126 
        1.24562          6.1327         3.73877 
        1.25174         6.09162         3.69699 
        1.25789         6.01148         3.65573 
        1.26402         5.97078         3.61518 
        1.27014         5.93058         3.57534 
        1.27628         5.86971         3.53599 
        1.28244         5.84382         3.49716 
        1.28858         5.80436         3.45897 
        1.29471         5.72683         3.42144 
        1.30084         5.68418         3.38451 
        1.30697         5.65563         3.34806 
        1.31312         5.60959         3.31211 
        1.31925          5.5643          3.2768 
        1.32537         5.53007         3.24205 
        1.33151         5.47701         3.20767 
        1.33765         5.43851         3.17382 
        1.34378         5.41012         3.14053 
        1.34992         5.36473          3.1077 
        1.35606         5.32552         3.07526 
         1.3622         5.28796         3.04335 
        1.36833         5.23506         3.01198 
        1.37445         5.19206         2.98106 
        1.38059         5.16165         2.95049 
        1.38675         5.12144         2.92027 
        1.39288         5.09592          2.8906 
        1.39901         5.04172         2.86136 
        1.40515         5.01196         2.83246 
         1.4113         4.97996         2.80398 
        1.41742         4.93743           2.776 
        1.42355         4.89952         2.74834 
         1.4297         4.87769         2.72099 
        1.43585         4.84053         2.69402 
        1.44198         4.80497         2.66752 
        1.44809         4.78153         2.64143 
        1.45423         4.74698         2.61559 
        1.46036         4.71353         2.59015 
        1.46649         4.66489         2.56504 
        1.47263         4.65323         2.54024 
        1.47877          4.6213         2.51579 
        1.48491          4.5843         2.49162 
        1.49104         4.55445         2.46782 
        1.49718         4.52806         2.44432 
        1.50333         4.49359         2.42108 
        1.50947         4.45788          2.3982 
         1.5156         4.43854         2.37565 
        1.52172         4.41149         2.35339 
        1.52787         4.38215         2.33137 
          1.534         4.35569         2.30967 
        1.54013         4.32129         2.28826 
        1.54627         4.29472         2.26709 
        1.55241         4.26105         2.24618 
        1.55855         4.24351         2.22557 
        1.56467         4.21488         2.20527 
         1.5708          4.1876         2.18517 
        1.57695         4.14994         2.16529 
        1.58308          4.1244         2.14571 
        1.58922         4.11633         2.12636 
        1.59535         4.08066         2.10725 
         1.6015         4.04893         2.08835 
        1.60764         4.03149          2.0697 
        1.61376         4.00322         2.05132 
        1.61989         3.97586         2.03316 
        1.62604         3.95098         2.01518 
        1.63218         3.93729         1.99742 
        1.63831         3.91879         1.97992 
        1.64444         3.88882         1.96263 
        1.65059         3.87168          1.9455 
        1.65673          3.8392          1.9286 
        1.66285         3.81788         1.91194 
        1.66898         3.79859         1.89548 
        1.67512         3.76755         1.87918 
        1.68127         3.74369         1.86306 
         1.6874         3.74065         1.84717 
        1.69353         3.69764         1.83147 
        1.69967         3.68534         1.81591 
        1.70581         3.67039         1.80055 
        1.71193         3.63488         1.78542 
        1.71806         3.61865         1.77043 
        1.72421          3.6028         1.75559 
        1.73035         3.57721         1.74094 
        1.73649         3.56647         1.72645 
        1.74262         3.54326         1.71215 
        1.74876         3.52014           1.698 
        1.75489         3.50566         1.68403 
        1.76101         3.47925         1.67023 
        1.76715         3.46831         1.65657 
        1.77329         3.44325         1.64304 
        1.77943          3.4262         1.62966 
        1.78557         3.40784         1.61645 
        1.79171         3.39571         1.60338 
        1.79785         3.37269         1.59045 
        1.80399         3.35405         1.57767 
        1.81012         3.33268         1.56505 
        1.81625         3.31319         1.55258 
        1.82239         3.29878         1.54022 
        1.82853         3.28057           1.528 
        1.83466         3.25598         1.51593 
        1.84078         3.24272           1.504 
        1.84692         3.22687         1.49218 
        1.85306          3.2139         1.48047 
         1.8592         3.19592         1.46891 
        1.86533         3.17749         1.45748 
        1.87147          3.1624         1.44616 
        1.87761         3.14979         1.43495 
        1.88375         3.13118         1.42387 
        1.88988         3.11708         1.41293 
        1.89601         3.09389         1.40209 
        1.90215         3.07777         1.39137 
        1.90829         3.07129         1.38075 
        1.91442           3.049         1.37025 
        1.92056         3.03996         1.35987 
         1.9267         3.02578         1.34958 
        1.93284         3.00894          1.3394 
        1.93897         2.98472         1.32934 
        1.94509         2.98165         1.31941 
        1.95123         2.96067         1.30955 
        1.95737         2.95025         1.29979 
        1.96349         2.93349         1.29015 
        1.96964         2.91939         1.28058 
        1.97578          2.9041          1.2711 
        1.98192         2.88583         1.26175 
        1.98805         2.88047         1.25248 
        1.99419         2.86196         1.24331 
        2.00033         2.84519         1.23422 
        2.00647          2.8396         1.22523 
         2.0126         2.82527         1.21634 
        2.01874         2.81066         1.20753 
        2.02488          2.7941          1.1988 
        2.03101         2.78337         1.19017 
        2.03714         2.77479         1.18164 
        2.04328         2.75675         1.17318 
        2.04941         2.74508         1.16481 
        2.05554         2.73442         1.15652 
        2.06167         2.71799         1.14831 
        2.06781          2.7069         1.14018 
        2.07396         2.69409         1.13211 
        2.08009         2.68537         1.12414 
        2.08622         2.67047         1.11625 
        2.09237         2.66316         1.10842 
        2.09851         2.64208         1.10067 
        2.10464          2.6413           1.093 
        2.11077         2.62828         1.08542 
        2.11691         2.61098         1.07789 
        2.12305         2.60029         1.07043 
        2.12918         2.58664         1.06306 
        2.13531         2.57556         1.05576 
        2.14145         2.56693         1.04852 
         2.1476         2.55133         1.04133 
        2.15372         2.53913         1.03424 
        2.15985         2.52991         1.02722 
        2.16599         2.52374         1.02024 
        2.17213         2.51137         1.01333 
        2.17827         2.49727         1.00649 
         2.1844          2.4867        0.999722 
        2.19054         2.47738        0.993011 
        2.19666          2.4666        0.986371 
         2.2028         2.45364        0.979786 
        2.20893          2.4439        0.973259 
        2.21508          2.4381        0.966783 
        2.22122         2.42772        0.960365 
        2.22736         2.40947        0.954018 
        2.23349         2.40284        0.947731 
        2.23962         2.39516        0.941497 
        2.24577         2.38359        0.935313 
         2.2519         2.37111        0.929194 
        2.25802          2.3679         0.92314 
        2.26417         2.35522        0.917123 
        2.27031         2.34426        0.911154 
        2.27644          2.3372        0.905256 
        2.28257         2.32083        0.899411 
        2.28872         2.31675        0.893606 
        2.29486         2.30608        0.887854 
        2.30099         2.29352        0.882165 
        2.30712         2.29054        0.876523 
        2.31326         2.27917        0.870921 
         2.3194         2.26853        0.865372 
        2.32553         2.26291         0.85988 
        2.33166         2.25603        0.854439 
         2.3378         2.24409        0.849037 
        2.34394          2.2332        0.843681 
        2.35007         2.22068        0.838378 
        2.35619         2.21748        0.833128 
        2.36233         2.20688         0.82791 
        2.36848         2.20009        0.822726 
        2.37462         2.19256        0.817598 
        2.38075         2.18136        0.812519 
        2.38689         2.17595        0.807478 
        2.39303         2.16852        0.802482 
        2.39916          2.1543        0.797533 
        2.40529         2.15095        0.792626 
        2.41143         2.14181        0.787757 
        2.41757         2.13505        0.782927 
         2.4237         2.12662        0.778146 
        2.42983         2.11552        0.773406 
        2.43598         2.11146        0.768693 
        2.44211         2.10164        0.764027 
        2.44823         2.09412        0.759411 
        2.45437         2.08713         0.75482 
        2.46052         2.07862        0.750263 
        2.46665         2.07168        0.745753 
        2.47279         2.06058        0.741281 
        2.47892         2.05497        0.736842 
        2.48507         2.04557        0.732436 
         2.4912          2.0401        0.728075 
