# k  (h/Mpc)    P(k)  (Mpc/h)^3    P_linear(k)  (Mpc/h)^3
     0.00783031         2950.21         2977.51 
       0.013688         3448.16          3499.8 
       0.019231         3369.31         3392.47 
      0.0249154         3013.67         3006.72 
      0.0312784         2501.51         2502.79 
      0.0375637         2073.39         2080.59 
      0.0433917         1803.91         1799.42 
      0.0492413         1608.91         1611.57 
      0.0555754            1480          1475.1 
      0.0619321         1347.01         1362.86 
       0.067871            1248         1251.49 
      0.0738098         1125.29         1125.08 
      0.0800417         989.407         984.654 
      0.0862327         856.436         854.146 
      0.0921407         754.698          751.37 
      0.0982031         681.299         673.592 
       0.104506         620.105         619.638 
       0.110769         585.614         584.216 
       0.116806         562.849         556.814 
       0.122832          529.04         527.623 
       0.129052         495.194         491.207 
       0.135211          457.49         449.583 
       0.141259         413.374         407.512 
       0.147318         372.834         369.068 
       0.153489         343.386         337.205 
       0.159709         322.306         313.541 
       0.165845         300.589         297.127 
       0.171974         293.499         284.831 
       0.178125         281.414         273.554 
       0.184229         265.943         261.156 
        0.19034         254.368         246.677 
       0.196428          239.19         230.723 
       0.202534         219.917         214.574 
       0.208729         208.964         199.569 
       0.214876         197.911         187.065 
       0.220989          184.74         177.226 
       0.227147         179.838         169.483 
        0.23329         173.322         163.058 
       0.239377         168.145          157.06 
       0.245482         160.374         150.756 
       0.251667         152.461         143.827 
       0.257832         148.054         136.533 
       0.263955         138.821         129.329 
       0.270079         132.157         122.609 
        0.27624         125.684         116.645 
       0.282372         121.109         111.593 
        0.28843         118.929         107.332 
       0.294538         113.946         103.527 
       0.300721          109.17         99.8876 
        0.30691         106.838         96.2496 
       0.313033         102.273         92.5576 
       0.319153         99.8668         88.8171 
       0.325316         95.2182         85.1059 
        0.33145         91.6015         81.6066 
       0.337538         88.4078         78.4114 
       0.343633         85.7185         75.5324 
       0.349808         82.7598         72.9009 
       0.355968         80.2725         70.4929 
       0.362074         78.6593         68.2322 
       0.368217         76.3209         66.0128 
       0.374374         74.4037         63.8144 
       0.380519         71.2024         61.6398 
       0.386598          69.105         59.5404 
       0.392688         66.8507          57.524 
        0.39888          65.517          55.588 
       0.405048         63.8249         53.7928 
       0.411186         62.1223         52.1282 
       0.417313         60.3516         50.5655 
       0.423458         58.6083         49.0749 
       0.429607         57.5086         47.6358 
       0.435692         56.5152         46.2464 
       0.441815         54.3544         44.8832 
       0.447964         52.6098         43.5539 
       0.454126         51.6441         42.2683 
       0.460267         51.0459         41.0421 
       0.466387         49.5795         39.8813 
        0.47254         48.8206         38.7723 
       0.478662         47.1512         37.7197 
       0.484765         46.1889         36.7143 
       0.490885         44.8441         35.7434 
       0.497035         44.2092         34.7988 
       0.503198         43.2047         33.8792 
       0.509342         41.9752         32.9902 
       0.515458         41.3771          32.135 
       0.521598         40.3631         31.3081 
       0.527764         39.7645         30.5092 
       0.533884         38.9752         29.7466 
           0.54         38.1167         29.0139 
       0.546137         36.9724          28.306 
       0.552299         36.3102         27.6199 
       0.558452         35.5229         26.9571 
       0.564573         35.2053         26.3172 
       0.570708         34.2352          25.695 
       0.576825          33.791         25.0939 
       0.582926         33.2077         24.5138 
       0.589034          32.516         23.9522 
       0.595184         32.0857         23.4055 
       0.601379         31.2151          22.873 
       0.607522         30.6705         22.3617 
       0.613639         30.2316         21.8683 
       0.619772         29.6497         21.3888 
       0.625918         29.0995         20.9228 
       0.632068         28.8205         20.4704 
       0.638161         28.2099         20.0353 
         0.6443         27.7944         19.6097 
       0.650464         27.0887         19.1949 
       0.656582         26.9171         18.7951 
       0.662703         26.5517         18.4066 
       0.668861          25.856         18.0271 
       0.675024         25.5437         17.6582 
       0.681124         25.3733         17.3035 
       0.687237         24.8409          16.958 
       0.693381         24.3503         16.6205 
       0.699536         24.1959         16.2916 
       0.705665         23.7305         15.9731 
       0.711789         23.3266         15.6634 
       0.717957         22.8581         15.3597 
        0.72409         22.6322         15.0659 
       0.730186          22.515         14.7815 
       0.736317         22.0384         14.5029 
       0.742472         21.7689         14.2306 
       0.748622         21.4179         13.9655 
        0.75476          20.895         13.7078 
       0.760888         20.8413          13.457 
       0.767043         20.4599         13.2116 
       0.773185         20.2222         12.9728 
       0.779291         19.9907         12.7413 
       0.785407         19.6807         12.5152 
       0.791564         19.5549         12.2932 
       0.797719         19.1038         12.0767 
       0.803834         19.0224         11.8668 
       0.809972          18.653         11.6612 
       0.816124         18.4501           11.46 
       0.822261         18.2414         11.2642 
       0.828378         18.0537         11.0735 
       0.834502         17.8546         10.8871 
       0.840667         17.6538         10.7039 
       0.846816         17.2685         10.5253 
       0.852925         17.2181          10.352 
       0.859047         17.0138         10.1823 
       0.865192         16.7633         10.0158 
       0.871341         16.5531         9.85301 
       0.877463         16.3529         9.69456 
       0.883569         16.2542         9.54001 
       0.889708         15.9912         9.38805 
       0.895864         15.7857         9.23904 
       0.902008          15.613         9.09358 
       0.908149         15.4015         8.95136 
       0.914301         15.3086         8.81197 
       0.920448          15.095         8.67569 
       0.926574         14.9779         8.54278 
       0.932687         14.7644         8.41295 
       0.938823         14.5642         8.28537 
       0.944975         14.4719         8.16014 
       0.951105         14.3104         8.03797 
       0.957225          14.207         7.91851 
       0.963368          13.981         7.80108 
       0.969511         13.8461         7.68603 
       0.975621          13.725         7.57393 
       0.981748         13.5435         7.46379 
       0.987916         13.4537         7.35515 
        0.99406         13.2798         7.24909 
        1.00019         13.1877         7.14534 
        1.00632         13.0828         7.04372 
        1.01246         12.9257         6.94393 
        1.01859         12.7859         6.84624 
        1.02471         12.6473         6.75055 
        1.03085         12.5857         6.65637 
        1.03698         12.4697         6.56418 
        1.04314         12.3072         6.47336 
        1.04929         12.1571         6.38448 
        1.05541         12.0921         6.29762 
        1.06154         11.9843         6.21218 
        1.06769         11.8748         6.12819 
        1.07382         11.7125         6.04605 
        1.07993         11.6178         5.96559 
        1.08607         11.5521         5.88628 
        1.09222         11.4099         5.80834 
        1.09836         11.3361          5.7319 
        1.10449         11.2156         5.65693 
        1.11063         11.1587         5.58323 
        1.11677         11.0794         5.51087 
         1.1229         10.9636         5.43992 
        1.12903         10.8647         5.37016 
        1.13518         10.7441         5.30158 
        1.14131         10.6771         5.23423 
        1.14745         10.5234         5.16809 
        1.15359         10.4353         5.10309 
        1.15973         10.3616         5.03918 
        1.16584         10.2714         4.97666 
        1.17197         10.1737          4.9151 
        1.17811         10.1026         4.85441 
        1.18424         10.0314         4.79491 
        1.19038           9.976         4.73624 
        1.19652         9.86782         4.67858 
        1.20267         9.81092         4.62188 
        1.20881         9.68297         4.56613 
        1.21495         9.62572         4.51139 
        1.22108         9.56537         4.45755 
         1.2272         9.47894         4.40473 
        1.23334         9.43539         4.35264 
        1.23949         9.34077         4.30127 
        1.24562         9.25925         4.25087 
        1.25174         9.21302         4.20136 
        1.25789         9.10954         4.15248 
        1.26402         9.06414         4.10448 
        1.27014         9.01936         4.05734 
        1.27628         8.90341         4.01081 
        1.28244         8.88836         3.96492 
        1.28858         8.79492         3.91981 
        1.29471         8.69371          3.8755 
        1.30084         8.63216         3.83192 
        1.30697         8.61499         3.78895 
        1.31312         8.52921         3.74658 
        1.31925         8.48031         3.70498 
        1.32537         8.40826         3.66406 
        1.33151          8.3494         3.62362 
        1.33765         8.28981         3.58381 
        1.34378         8.26891         3.54468 
        1.34992         8.18254          3.5061 
        1.35606         8.10802         3.46802 
         1.3622         8.04774         3.43057 
        1.36833         8.02068         3.39377 
        1.37445         7.96133         3.35752 
        1.38059         7.89624          3.3217 
        1.38675         7.85272         3.28631 
        1.39288         7.78172         3.25158 
        1.39901         7.72626         3.21736 
        1.40515         7.67831         3.18357 
         1.4113         7.62194         3.15027 
        1.41742         7.59256         3.11758 
        1.42355         7.51641         3.08529 
         1.4297         7.47544         3.05336 
        1.43585         7.43854         3.02189 
        1.44198         7.39795         2.99099 
        1.44809         7.33772         2.96058 
        1.45423          7.2838         2.93048 
        1.46036         7.24017         2.90085 
        1.46649         7.19449         2.87162 
        1.47263         7.15639         2.84277 
        1.47877         7.10294         2.81433 
        1.48491         7.07704         2.78623 
        1.49104         7.01544         2.75857 
        1.49718         6.98617         2.73127 
        1.50333          6.9365          2.7043 
        1.50947         6.88942         2.67775 
         1.5156         6.86106         2.65159 
        1.52172         6.80712         2.62578 
        1.52787         6.78247         2.60027 
          1.534         6.72996         2.57512 
        1.54013         6.70238         2.55033 
        1.54627         6.64973         2.52583 
        1.55241         6.59599         2.50164 
        1.55855          6.5824          2.4778 
        1.56467         6.55048         2.45434 
         1.5708         6.49696         2.43112 
        1.57695         6.45282         2.40816 
        1.58308          6.4102         2.38556 
        1.58922         6.38902         2.36323 
        1.59535         6.35601         2.34119 
         1.6015         6.28758          2.3194 
        1.60764         6.26483          2.2979 
        1.61376         6.24177         2.27673 
        1.61989         6.18872         2.25582 
        1.62604         6.17352         2.23511 
        1.63218         6.13916         2.21469 
        1.63831         6.09666         2.19456 
        1.64444          6.0496         2.17468 
        1.65059         6.01999         2.15499 
        1.65673         6.00467         2.13557 
        1.66285         5.96423         2.11645 
        1.66898         5.94083         2.09755 
        1.67512         5.90516         2.07884 
        1.68127         5.85122         2.06035 
         1.6874         5.83718         2.04212 
        1.69353         5.78887         2.02413 
        1.69967         5.77322          2.0063 
        1.70581         5.73329          1.9887 
        1.71193         5.71067         1.97138 
        1.71806         5.67465         1.95423 
        1.72421         5.64308         1.93724 
        1.73035         5.62294         1.92048 
        1.73649         5.59582         1.90392 
        1.74262         5.54296         1.88757 
        1.74876         5.54184          1.8714 
        1.75489         5.50896         1.85545 
        1.76101         5.46006         1.83969 
        1.76715         5.45809         1.82409 
        1.77329         5.42238         1.80866 
        1.77943         5.37792          1.7934 
        1.78557         5.38035         1.77833 
        1.79171         5.34252         1.76344 
        1.79785         5.32448         1.74871 
        1.80399         5.27757         1.73416 
        1.81012         5.26054         1.71979 
        1.81625         5.22673         1.70558 
        1.82239         5.20844         1.69152 
        1.82853         5.17079         1.67763 
        1.83466         5.13608          1.6639 
        1.84078         5.12207         1.65034 
        1.84692         5.09973         1.63691 
        1.85306         5.07508         1.62361 
         1.8592         5.05895         1.61048 
        1.86533         5.03365         1.59751 
        1.87147         5.01053         1.58466 
        1.87761         4.98703         1.57195 
        1.88375         4.95814         1.55939 
        1.88988         4.93532         1.54698 
        1.89601         4.91135          1.5347 
        1.90215         4.88287         1.52255 
        1.90829         4.86884         1.51053 
        1.91442         4.84129         1.49864 
        1.92056           4.834         1.48689 
         1.9267         4.79675         1.47525 
        1.93284         4.78496         1.46373 
        1.93897         4.75106         1.45236 
        1.94509         4.71441         1.44113 
        1.95123           4.715         1.42999 
        1.95737         4.69447         1.41896 
        1.96349         4.66103         1.40807 
        1.96964         4.63682         1.39727 
        1.97578         4.62468         1.38657 
        1.98192         4.60135         1.37601 
        1.98805         4.58417         1.36556 
        1.99419         4.56593         1.35521 
        2.00033         4.53514         1.34497 
        2.00647         4.52618         1.33484 
         2.0126         4.50581         1.32482 
        2.01874         4.47929          1.3149 
        2.02488         4.46826         1.30507 
        2.03101         4.43709         1.29535 
        2.03714         4.41421         1.28575 
        2.04328         4.40158         1.27623 
        2.04941         4.37898         1.26681 
        2.05554         4.36585          1.2575 
        2.06167         4.35318         1.24827 
        2.06781          4.3248         1.23912 
        2.07396         4.30547         1.23006 
        2.08009         4.28652          1.2211 
        2.08622          4.2807         1.21225 
        2.09237          4.2617         1.20346 
        2.09851         4.23151         1.19476 
        2.10464          4.2213         1.18616 
        2.11077         4.20056         1.17765 
        2.11691         4.18774         1.16921 
        2.12305         4.16614         1.16085 
        2.12918         4.15177         1.15259 
        2.13531         4.13392         1.14441 
        2.14145         4.11537         1.13629 
         2.1476         4.09851         1.12824 
        2.15372         4.07795         1.12031 
        2.15985         4.06962         1.11245 
        2.16599         4.05276         1.10464 
        2.17213         4.04752         1.09692 
        2.17827         4.01326         1.08926 
         2.1844         4.00426         1.08169 
        2.19054         3.99286         1.07419 
        2.19666           3.972         1.06677 
         2.2028         3.94607         1.05942 
        2.20893         3.94674         1.05212 
        2.21508         3.92224         1.04489 
        2.22122           3.898         1.03773 
        2.22736         3.88464         1.03065 
        2.23349         3.87143         1.02363 
        2.23962         3.86227         1.01668 
        2.24577         3.84088         1.00978 
         2.2519         3.84204         1.00296 
        2.25802         3.79778        0.996212 
        2.26417         3.79612        0.989507 
        2.27031         3.78173        0.982858 
        2.27644         3.76934        0.976289 
        2.28257          3.7518         0.96978 
        2.28872         3.73817        0.963318 
        2.29486         3.72106        0.956916 
        2.30099         3.71386        0.950586 
        2.30712         3.69327        0.944309 
        2.31326         3.68404        0.938079 
         2.3194         3.66306        0.931909 
        2.32553         3.65261        0.925804 
        2.33166         3.64129        0.919757 
         2.3378          3.6283        0.913755 
        2.34394         3.60883        0.907805 
        2.35007         3.59726        0.901916 
        2.35619         3.59095        0.896087 
        2.36233         3.56809        0.890295 
        2.36848          3.5592        0.884542 
        2.37462         3.54822        0.878853 
        2.38075          3.5366        0.873218 
        2.38689         3.52671        0.867629 
        2.39303         3.50553        0.862089 
        2.39916         3.49746        0.856603 
        2.40529         3.47984        0.851165 
        2.41143         3.47574        0.845771 
        2.41757          3.4611         0.84042 
         2.4237         3.44826        0.835126 
        2.42983         3.43529        0.829878 
        2.43598         3.42741         0.82466 
        2.44211         3.40752        0.819497 
        2.44823         3.39555        0.814389 
        2.45437         3.38293         0.80931 
        2.46052         3.37701         0.80427 
        2.46665         3.36079        0.799282 
        2.47279         3.34674        0.794339 
        2.47892         3.33657        0.789433 
        2.48507           3.328        0.784564 
         2.4912         3.31304        0.779746 
