# k  (h/Mpc)    P(k)  (Mpc/h)^3    P_linear(k)  (Mpc/h)^3
     0.00783031         349.306         352.563 
       0.013688          401.65         405.107 
       0.019231         381.722         382.761 
      0.0249154         328.915         328.506 
      0.0312784         263.102         262.451 
      0.0375637         210.174         209.782 
      0.0433917          177.26         176.541 
      0.0492413         156.269         155.967 
      0.0555754         143.174         142.701 
      0.0619321         132.409         132.805 
       0.067871         122.647         122.653 
      0.0738098         110.213         110.153 
      0.0800417         95.5988         95.3397 
      0.0862327          81.245         81.0543 
      0.0921407         69.8618         69.6834 
      0.0982031         61.5607         61.2272 
       0.104506         55.7947         55.7423 
       0.110769         52.7254         52.6794 
       0.116806         50.8939         50.7463 
       0.122832         48.6783         48.6971 
       0.129052         45.8139         45.7377 
       0.135211         42.0293         41.8746 
       0.141259         37.7085         37.6182 
       0.147318         33.5724         33.5306 
       0.153489         30.2008         30.0825 
       0.159709         27.7368         27.5824 
       0.165845         26.0189         26.0066 
       0.171974         25.1846         25.0335 
       0.178125         24.3861         24.2864 
       0.184229         23.4799         23.4408 
        0.19034         22.4235         22.3013 
       0.196428         20.9753         20.8707 
       0.202534         19.2988         19.2836 
       0.208729         17.8408         17.7251 
       0.214876          16.571         16.4027 
       0.220989         15.4713         15.3909 
       0.227147         14.8228         14.6636 
        0.23329         14.2958         14.1443 
       0.239377         13.8655         13.7161 
       0.245482         13.4046         13.2655 
       0.251667         12.8122         12.7232 
       0.257832         12.2419         12.0887 
       0.263955          11.517         11.4059 
       0.270079         10.8478         10.7348 
        0.27624         10.2197         10.1283 
       0.282372         9.72386          9.6261 
        0.28843         9.37443         9.23087 
       0.294538         9.03943         8.90989 
       0.300721         8.71882         8.62791 
        0.30691         8.47734         8.35058 
       0.313033         8.17265          8.0577 
       0.319153         7.90017         7.73857 
       0.325316         7.49951         7.40152 
        0.33145         7.16497         7.06808 
       0.337538         6.86862         6.75876 
       0.343633          6.6131         6.48311 
       0.349808         6.35589         6.24177 
       0.355968         6.13803         6.03378 
       0.362074         5.97455         5.84808 
       0.368217         5.78565         5.67045 
       0.374374         5.62928         5.49144 
       0.380519         5.41964         5.30803 
       0.386598         5.22315         5.12344 
       0.392688         5.03049         4.93958 
        0.39888         4.86878         4.76054 
       0.405048         4.70771         4.59501 
       0.411186         4.55126         4.44441 
       0.417313         4.41547          4.3082 
       0.423458         4.27213         4.18216 
       0.429607          4.1733         4.06234 
       0.435692         4.06262         3.94704 
       0.441815         3.93375         3.83229 
       0.447964          3.8042         3.71729 
       0.454126         3.70652         3.60384 
       0.460267         3.60932         3.49452 
       0.466387         3.49843         3.39063 
        0.47254         3.40613         3.29199 
       0.478662         3.30711         3.20013 
       0.484765         3.22253         3.11411 
       0.490885         3.12986          3.0319 
       0.497035         3.04002         2.95202 
       0.503198         2.97533         2.87407 
       0.509342         2.88583          2.7982 
       0.515458         2.82051         2.72432 
       0.521598         2.75003         2.65204 
       0.527764         2.68859         2.58194 
       0.533884         2.60248         2.51534 
           0.54         2.54645         2.45198 
       0.546137          2.4772         2.39119 
       0.552299         2.42209         2.33256 
       0.558452         2.36344         2.27604 
       0.564573          2.3108         2.22156 
       0.570708         2.25844         2.16858 
       0.576825         2.20675         2.11725 
       0.582926         2.15097         2.06743 
       0.589034         2.10963         2.01897 
       0.595184          2.0658         1.97171 
       0.601379         2.01219         1.92575 
       0.607522         1.96474         1.88187 
       0.613639         1.91836         1.83978 
       0.619772         1.88457           1.799 
       0.625918         1.84332         1.75942 
       0.632068         1.80487         1.72093 
       0.638161         1.76571         1.68381 
         0.6443         1.72673         1.64741 
       0.650464         1.69215          1.6119 
       0.656582         1.66238         1.57768 
       0.662703         1.62671         1.54449 
       0.668861         1.58597         1.51214 
       0.675024         1.55626         1.48074 
       0.681124         1.53902         1.45059 
       0.687237         1.50126         1.42124 
       0.693381         1.46496         1.39256 
       0.699536         1.44461          1.3646 
       0.705665          1.4165          1.3375 
       0.711789         1.38348         1.31115 
       0.717957         1.35866         1.28531 
        0.72409         1.33348         1.26032 
       0.730186         1.31535         1.23614 
       0.736317         1.28398         1.21248 
       0.742472         1.26494         1.18937 
       0.748622         1.24325          1.1669 
        0.75476         1.21537         1.14506 
       0.760888         1.19809         1.12382 
       0.767043         1.16633         1.10304 
       0.773185         1.15077         1.08283 
       0.779291         1.13715         1.06323 
       0.785407         1.11409          1.0441 
       0.791564         1.09369          1.0253 
       0.797719         1.07451         1.00698 
       0.803834         1.05633        0.989226 
       0.809972         1.03852        0.971834 
       0.816124          1.0212        0.954823 
       0.822261         1.00505        0.938267 
       0.828378        0.987631        0.922155 
       0.834502        0.970431        0.906411 
       0.840667        0.957219        0.890934 
       0.846816        0.939873        0.875865 
       0.852925        0.923029        0.861241 
       0.859047        0.908683        0.846922 
       0.865192         0.89509        0.832883 
       0.871341        0.882501        0.819155 
       0.877463        0.864923        0.805799 
       0.883569        0.852797        0.792776 
       0.889708         0.84148        0.779975 
       0.895864        0.828499        0.767424 
       0.902008        0.813204        0.755177 
       0.908149        0.802459        0.743205 
       0.914301        0.791711        0.731474 
       0.920448        0.780566        0.720008 
       0.926574         0.77026        0.708828 
       0.932687        0.758299        0.697909 
       0.938823         0.74342        0.687182 
       0.944975        0.735234        0.676656 
       0.951105        0.720599        0.666388 
       0.957225         0.71205        0.656352 
       0.963368        0.703218        0.646488 
       0.969511        0.694096        0.636827 
       0.975621        0.682067        0.627415 
       0.981748        0.669919         0.61817 
       0.987916        0.662075        0.609053 
        0.99406        0.654507        0.600155 
        1.00019        0.644762        0.591452 
        1.00632        0.637952        0.582929 
        1.01246        0.628646        0.574562 
        1.01859        0.620281        0.566372 
        1.02471        0.609613        0.558353 
        1.03085        0.600829        0.550461 
        1.03698        0.594724        0.542739 
        1.04314        0.586071        0.535132 
        1.04929        0.580383        0.527689 
        1.05541        0.569997        0.520418 
        1.06154        0.563951        0.513267 
        1.06769        0.557033        0.506239 
        1.07382        0.549319        0.499366 
        1.07993        0.542367        0.492636 
        1.08607        0.535792        0.486003 
        1.09222        0.527987        0.479486 
        1.09836        0.522256        0.473095 
        1.10449        0.514284        0.466829 
        1.11063        0.507732         0.46067 
        1.11677        0.502579        0.454625 
         1.1229        0.494517        0.448698 
        1.12903        0.490072        0.442872 
        1.13518        0.483346        0.437145 
        1.14131        0.478235        0.431522 
        1.14745        0.473671        0.426002 
        1.15359        0.466504        0.420576 
        1.15973        0.461542        0.415244 
        1.16584        0.455456        0.410027 
        1.17197         0.44933        0.404893 
        1.17811        0.443698        0.399831 
        1.18424        0.438858         0.39487 
        1.19038        0.432908        0.389978 
        1.19652        0.429362        0.385172 
        1.20267        0.424834        0.380447 
        1.20881        0.417758        0.375801 
        1.21495        0.413929        0.371241 
        1.22108        0.409574        0.366757 
         1.2272        0.403785        0.362358 
        1.23334        0.399803         0.35802 
        1.23949         0.39594        0.353743 
        1.24562        0.391203        0.349548 
        1.25174        0.387136        0.345427 
        1.25789         0.38136         0.34136 
        1.26402        0.378308        0.337366 
        1.27014        0.372779        0.333445 
        1.27628        0.369853        0.329575 
        1.28244        0.365565        0.325759 
        1.28858        0.360808        0.322008 
        1.29471        0.357234        0.318325 
        1.30084        0.353474        0.314702 
        1.30697        0.350748        0.311131 
        1.31312        0.346684         0.30761 
        1.31925        0.342674        0.304155 
        1.32537        0.339141        0.300756 
        1.33151        0.335379        0.297396 
        1.33765        0.331839        0.294091 
        1.34378        0.327873        0.290841 
        1.34992        0.325727        0.287639 
        1.35606        0.321413        0.284478 
         1.3622        0.318467         0.28137 
        1.36833        0.315713        0.278316 
        1.37445        0.312432        0.275309 
        1.38059        0.309126        0.272337 
        1.38675         0.30553        0.269402 
        1.39288        0.301986        0.266522 
        1.39901        0.299824        0.263685 
        1.40515        0.296491        0.260883 
         1.4113        0.294336        0.258123 
        1.41742        0.291145        0.255413 
        1.42355        0.286986        0.252737 
         1.4297        0.285485        0.250091 
        1.43585         0.28194        0.247484 
        1.44198        0.279849        0.244923 
        1.44809        0.276602        0.242404 
        1.45423         0.27415        0.239911 
        1.46036        0.271421        0.237458 
        1.46649         0.26879        0.235037 
        1.47263        0.265545        0.232649 
        1.47877        0.264663        0.230295 
        1.48491        0.260588        0.227969 
        1.49104        0.259634        0.225681 
        1.49718        0.256275        0.223422 
        1.50333        0.254185         0.22119 
        1.50947        0.251935        0.218994 
         1.5156        0.249448         0.21683 
        1.52172        0.247263        0.214696 
        1.52787        0.244276        0.212586 
          1.534        0.242783        0.210507 
        1.54013         0.24041        0.208458 
        1.54627        0.238479        0.206433 
        1.55241        0.236216        0.204434 
        1.55855        0.233946        0.202464 
        1.56467        0.232174        0.200525 
         1.5708         0.22977        0.198607 
        1.57695        0.227673        0.196711 
        1.58308        0.225089        0.194843 
        1.58922        0.223874        0.192999 
        1.59535        0.221457        0.191179 
         1.6015        0.219705         0.18938 
        1.60764        0.217629        0.187606 
        1.61376         0.21579        0.185858 
        1.61989         0.21382        0.184132 
        1.62604        0.211799        0.182423 
        1.63218         0.21052        0.180738 
        1.63831         0.20835        0.179077 
        1.64444        0.206942        0.177436 
        1.65059        0.204512        0.175813 
        1.65673         0.20303        0.174211 
        1.66285        0.201506        0.172633 
        1.66898        0.199679        0.171075 
        1.67512        0.197818        0.169533 
        1.68127         0.19607        0.168008 
         1.6874        0.194773        0.166505 
        1.69353        0.192872        0.165022 
        1.69967        0.191275        0.163553 
        1.70581        0.190045        0.162102 
        1.71193         0.18862        0.160675 
        1.71806        0.186792        0.159261 
        1.72421        0.185143        0.157862 
        1.73035        0.183567        0.156482 
        1.73649        0.182411        0.155118 
        1.74262         0.18052        0.153771 
        1.74876        0.179516        0.152439 
        1.75489        0.178073        0.151126 
        1.76101        0.176478        0.149829 
        1.76715        0.175135        0.148545 
        1.77329         0.17359        0.147274 
        1.77943        0.172149        0.146018 
        1.78557        0.171213        0.144779 
        1.79171        0.169898        0.143553 
        1.79785        0.168234        0.142341 
        1.80399         0.16658        0.141144 
        1.81012        0.165844        0.139962 
        1.81625        0.164699        0.138794 
        1.82239        0.163612        0.137637 
        1.82853        0.161817        0.136494 
        1.83466        0.160545        0.135366 
        1.84078        0.159432        0.134251 
        1.84692        0.158265        0.133147 
        1.85306        0.157139        0.132054 
         1.8592        0.155964        0.130975 
        1.86533        0.154929        0.129908 
        1.87147        0.153473        0.128852 
        1.87761        0.152265        0.127808 
        1.88375        0.151166        0.126776 
        1.88988        0.149892        0.125757 
        1.89601        0.148578        0.124748 
        1.90215        0.147773        0.123749 
        1.90829        0.146435        0.122762 
        1.91442        0.145825        0.121786 
        1.92056         0.14485        0.120821 
         1.9267        0.143571        0.119865 
        1.93284         0.14227        0.118919 
        1.93897        0.141377        0.117985 
        1.94509        0.140505        0.117063 
        1.95123        0.139157        0.116149 
        1.95737        0.138384        0.115244 
        1.96349        0.137312         0.11435 
        1.96964        0.136263        0.113464 
        1.97578        0.135253        0.112586 
        1.98192         0.13462         0.11172 
        1.98805        0.133629        0.110862 
        1.99419        0.132851        0.110014 
        2.00033        0.131623        0.109174 
        2.00647        0.130793        0.108343 
         2.0126        0.129913        0.107522 
        2.01874        0.129008        0.106708 
        2.02488        0.128194        0.105901 
        2.03101         0.12701        0.105105 
        2.03714        0.126743        0.104318 
        2.04328        0.125271        0.103537 
        2.04941        0.124769        0.102766 
        2.05554         0.12385        0.102002 
        2.06167        0.122932        0.101246 
        2.06781        0.121868        0.100497 
        2.07396        0.121419       0.0997539 
        2.08009        0.120427       0.0990201 
        2.08622        0.119733       0.0982944 
        2.09237        0.118915       0.0975746 
        2.09851        0.117894       0.0968618 
        2.10464         0.11731       0.0961573 
        2.11077         0.11634       0.0954607 
        2.11691        0.115739       0.0947694 
        2.12305         0.11482       0.0940849 
        2.12918        0.114019       0.0934088 
        2.13531        0.113368       0.0927392 
        2.14145         0.11262       0.0920747 
         2.1476        0.111899       0.0914158 
        2.15372        0.111348       0.0907667 
        2.15985        0.110391       0.0901233 
        2.16599        0.109581       0.0894842 
        2.17213        0.109117        0.088852 
        2.17827        0.108359        0.088226 
         2.1844         0.10772       0.0876066 
        2.19054        0.107038       0.0869929 
        2.19666        0.106392        0.086386 
         2.2028        0.105369       0.0857842 
        2.20893        0.104942       0.0851879 
        2.21508        0.104317       0.0845966 
        2.22122        0.103646       0.0840106 
        2.22736        0.102907       0.0834315 
        2.23349        0.102199       0.0828578 
        2.23962        0.101675       0.0822893 
        2.24577        0.101094       0.0817256 
         2.2519        0.100425       0.0811679 
        2.25802       0.0997536       0.0806163 
        2.26417       0.0993139       0.0800683 
        2.27031       0.0985842       0.0795249 
        2.27644       0.0983013        0.078988 
        2.28257        0.097406       0.0784562 
        2.28872       0.0968568       0.0779282 
        2.29486       0.0963291       0.0774052 
        2.30099       0.0955692        0.076888 
        2.30712       0.0951008       0.0763753 
        2.31326       0.0944182       0.0758664 
         2.3194       0.0939744       0.0753624 
        2.32553       0.0933996       0.0748638 
        2.33166       0.0927965         0.07437 
         2.3378       0.0922785       0.0738799 
        2.34394       0.0917284        0.073394 
        2.35007       0.0912354       0.0729132 
        2.35619       0.0907329       0.0724373 
        2.36233        0.090142       0.0719645 
        2.36848       0.0895893       0.0714949 
        2.37462        0.089226       0.0710304 
        2.38075       0.0886106       0.0705705 
        2.38689       0.0881567       0.0701143 
        2.39303       0.0876439       0.0696622 
        2.39916       0.0870498       0.0692145 
        2.40529        0.086529       0.0687708 
        2.41143       0.0859465       0.0683307 
        2.41757       0.0855553       0.0678941 
         2.4237       0.0850618       0.0674622 
        2.42983       0.0846404       0.0670341 
        2.43598       0.0840953       0.0666085 
        2.44211        0.083421       0.0661874 
        2.44823       0.0832179       0.0657708 
        2.45437       0.0827331       0.0653566 
        2.46052       0.0821969       0.0649456 
        2.46665       0.0817843       0.0645389 
        2.47279       0.0812695       0.0641358 
        2.47892       0.0810555       0.0637359 
        2.48507       0.0802825        0.063339 
         2.4912       0.0799964       0.0629462 
