# k  (h/Mpc)    Pcb(k)  (Mpc/h)^3    Pcb_linear(k)  (Mpc/h)^3
     0.00783031         2005.15         2021.13 
       0.013688         2294.15         2322.93 
       0.019231         2183.47         2194.98 
      0.0249154            1889         1883.92 
      0.0312784         1507.26         1505.14 
      0.0375637         1202.06          1203.1 
      0.0433917         1016.49         1012.48 
      0.0492413         894.915         894.487 
      0.0555754          821.98         818.412 
      0.0619321          755.43         761.662 
       0.067871         702.552          703.44 
      0.0738098         632.182         631.747 
      0.0800417         549.374         546.792 
      0.0862327         466.424         464.862 
      0.0921407         401.518         399.648 
      0.0982031         355.077          351.15 
       0.104506         320.354         319.694 
       0.110769         303.083         302.128 
       0.116806         293.613         291.042 
       0.122832         279.773         279.289 
       0.129052           263.8         262.316 
       0.135211         243.046          240.16 
       0.141259          217.79         215.749 
       0.147318         193.668         192.306 
       0.153489         174.896          172.53 
       0.159709         161.491         158.191 
       0.165845         150.453         149.154 
       0.171974         146.859         143.573 
       0.178125         141.978         139.288 
       0.184229         136.008         134.438 
        0.19034         130.491         127.903 
       0.196428         122.402         119.698 
       0.202534         112.029         110.596 
       0.208729         104.723         101.657 
       0.214876         97.8463         94.0734 
       0.220989         90.8022         88.2704 
       0.227147         87.7243         84.0991 
        0.23329         84.6375         81.1208 
       0.239377         82.3246          78.665 
       0.245482         79.2255         76.0811 
       0.251667         75.5547         72.9707 
       0.257832         72.9858         69.3315 
       0.263955         68.3303         65.4159 
       0.270079         64.5199         61.5665 
        0.27624         60.8871         58.0882 
       0.282372         58.1989         55.2079 
        0.28843         56.6668          52.941 
       0.294538         54.4631         51.1003 
       0.300721         52.3199         49.4833 
        0.30691         51.1805         47.8927 
       0.313033         49.1859         46.2124 
       0.319153         47.9028         44.3826 
       0.325316         45.4333         42.4496 
        0.33145         43.4589         40.5372 
       0.337538         41.7792         38.7632 
       0.343633         40.3967         37.1823 
       0.349808          38.864         35.7981 
       0.355968          37.574         34.6052 
       0.362074         36.8106         33.5401 
       0.368217         35.6382         32.5214 
       0.374374         34.7672         31.4947 
       0.380519         33.3325         30.4429 
       0.386598          32.194         29.3842 
       0.392688         31.0484         28.3297 
        0.39888         30.2906         27.3029 
       0.405048         29.4147         26.3534 
       0.411186         28.4781         25.4901 
       0.417313         27.6299         24.7085 
       0.423458          26.748         23.9858 
       0.429607         26.2625         23.2985 
       0.435692         25.7408         22.6373 
       0.441815         24.7491          21.979 
       0.447964         23.9142         21.3196 
       0.454126         23.4483         20.6689 
       0.460267         23.0541          20.042 
       0.466387         22.3262         19.4461 
        0.47254         21.8959         18.8803 
       0.478662         21.1814         18.3536 
       0.484765         20.6782         17.8602 
       0.490885         20.0443         17.3887 
       0.497035         19.6169         16.9306 
       0.503198         19.2324         16.4835 
       0.509342         18.6276         16.0483 
       0.515458         18.3185         15.6247 
       0.521598         17.8767         15.2101 
       0.527764         17.5552          14.808 
       0.533884         17.0517         14.4262 
           0.54         16.7245         14.0627 
       0.546137         16.2028         13.7141 
       0.552299         15.8917         13.3778 
       0.558452         15.5124         13.0536 
       0.564573         15.2881         12.7412 
       0.570708         14.9191         12.4374 
       0.576825          14.653         12.1429 
       0.582926         14.3361         11.8573 
       0.589034         14.0344         11.5793 
       0.595184         13.8419         11.3082 
       0.601379         13.4492         11.0447 
       0.607522         13.1812          10.793 
       0.613639         12.9231         10.5516 
       0.619772         12.6896         10.3177 
       0.625918         12.4231         10.0907 
       0.632068         12.2647         9.86997 
       0.638161         11.9986         9.65704 
         0.6443         11.7716         9.44828 
       0.650464         11.4766         9.24462 
       0.656582          11.371         9.04839 
       0.662703         11.1904         8.85804 
       0.668861         10.8867         8.67247 
       0.675024         10.6985         8.49242 
       0.681124         10.6649          8.3195 
       0.687237          10.414         8.15115 
       0.693381         10.1514         7.98666 
       0.699536         10.0768         7.82629 
       0.705665         9.86807         7.67089 
       0.711789          9.6745         7.51974 
       0.717957         9.46596         7.37158 
        0.72409         9.36504         7.22823 
       0.730186         9.29786         7.08959 
       0.736317         9.06983          6.9539 
       0.742472         8.95905         6.82135 
       0.748622         8.80575         6.69245 
        0.75476         8.57239          6.5672 
       0.760888         8.51755         6.44539 
       0.767043          8.3365         6.32621 
       0.773185          8.2265         6.21028 
       0.779291          8.1612         6.09791 
       0.785407         8.00111         5.98814 
       0.791564         7.89639         5.88037 
       0.797719          7.7319          5.7753 
       0.803834         7.67587         5.67346 
       0.809972         7.51816         5.57371 
       0.816124         7.42378         5.47615 
       0.822261         7.32562         5.38119 
       0.828378         7.22483         5.28879 
       0.834502         7.12942         5.19849 
       0.840667         7.04447         5.10973 
       0.846816         6.88588          5.0233 
       0.852925         6.83826         4.93943 
       0.859047         6.73212         4.85731 
       0.865192         6.63372         4.77679 
       0.871341         6.54347         4.69806 
       0.877463         6.44759         4.62146 
       0.883569         6.39168         4.54676 
       0.889708         6.28327         4.47335 
       0.895864         6.19994         4.40137 
       0.902008         6.11442         4.33113 
       0.908149         6.02411         4.26246 
       0.914301         5.96283         4.19518 
       0.920448         5.89131         4.12942 
       0.926574         5.84613          4.0653 
       0.932687         5.73989         4.00268 
       0.938823         5.64753         3.94116 
       0.944975         5.61679         3.88079 
       0.951105         5.51551          3.8219 
       0.957225         5.48167         3.76434 
       0.963368         5.39783         3.70777 
       0.969511         5.33302         3.65236 
       0.975621         5.26686         3.59838 
       0.981748         5.18639         3.54536 
       0.987916          5.1369         3.49307 
        0.99406         5.08853         3.44203 
        1.00019         5.03466         3.39212 
        1.00632         4.98754         3.34324 
        1.01246         4.91218         3.29525 
        1.01859          4.8572         3.24828 
        1.02471         4.78402         3.20229 
        1.03085         4.75431         3.15703 
        1.03698         4.69976         3.11274 
        1.04314         4.64268         3.06911 
        1.04929         4.57901         3.02643 
        1.05541         4.53238         2.98473 
        1.06154            4.49         2.94371 
        1.06769         4.46287          2.9034 
        1.07382         4.38329         2.86398 
        1.07993         4.33641         2.82539 
        1.08607          4.3086         2.78735 
        1.09222         4.24867         2.74997 
        1.09836         4.23204         2.71332 
        1.10449         4.14675         2.67738 
        1.11063         4.12829         2.64206 
        1.11677         4.08853         2.60738 
         1.1229         4.04441         2.57339 
        1.12903         4.00906         2.53998 
        1.13518          3.9516         2.50713 
        1.14131          3.9123         2.47489 
        1.14745         3.86336         2.44322 
        1.15359         3.82358         2.41211 
        1.15973          3.7859         2.38152 
        1.16584         3.75833         2.35161 
        1.17197         3.71296         2.32216 
        1.17811         3.67689         2.29313 
        1.18424         3.64244         2.26467 
        1.19038         3.61509         2.23662 
        1.19652         3.58166         2.20906 
        1.20267         3.55031         2.18195 
        1.20881         3.50769         2.15531 
        1.21495          3.4777         2.12916 
        1.22108          3.4428         2.10344 
         1.2272         3.40256         2.07821 
        1.23334         3.39217         2.05333 
        1.23949         3.34495         2.02881 
        1.24562         3.32241         2.00475 
        1.25174         3.30079         1.98111 
        1.25789         3.24688         1.95778 
        1.26402         3.22801         1.93488 
        1.27014         3.20185         1.91239 
        1.27628         3.16555         1.89019 
        1.28244         3.14636         1.86831 
        1.28858          3.1221         1.84679 
        1.29471         3.07986         1.82567 
        1.30084           3.052          1.8049 
        1.30697         3.03917         1.78441 
        1.31312         3.00594         1.76422 
        1.31925          2.9783          1.7444 
        1.32537         2.95831         1.72491 
        1.33151         2.92655         1.70564 
        1.33765         2.90264         1.68668 
        1.34378         2.89081         1.66805 
        1.34992         2.86157         1.64968 
        1.35606         2.83907         1.63155 
         1.3622         2.81242         1.61373 
        1.36833         2.78478         1.59621 
        1.37445         2.75707         1.57897 
        1.38059         2.73334         1.56192 
        1.38675         2.71333         1.54509 
        1.39288         2.70137         1.52857 
        1.39901         2.66707          1.5123 
        1.40515         2.65259         1.49623 
         1.4113         2.63068          1.4804 
        1.41742         2.60927         1.46485 
        1.42355          2.5864         1.44951 
         1.4297         2.56684         1.43433 
        1.43585         2.55207         1.41938 
        1.44198         2.52604          1.4047 
        1.44809         2.51055         1.39025 
        1.45423         2.48901         1.37595 
        1.46036         2.47303         1.36188 
        1.46649         2.44881           1.348 
        1.47263         2.43775          1.3343 
        1.47877         2.41878          1.3208 
        1.48491         2.39642         1.30746 
        1.49104         2.37949         1.29433 
        1.49718         2.36509         1.28138 
        1.50333         2.34139         1.26858 
        1.50947          2.3232         1.25598 
         1.5156         2.31024         1.24357 
        1.52172         2.29177         1.23133 
        1.52787         2.27732         1.21923 
          1.534         2.26108         1.20731 
        1.54013         2.24639         1.19556 
        1.54627         2.22385         1.18394 
        1.55241         2.20735         1.17248 
        1.55855         2.19628         1.16118 
        1.56467          2.1831         1.15006 
         1.5708         2.16277         1.13906 
        1.57695         2.14285         1.12818 
        1.58308         2.12638         1.11747 
        1.58922         2.12121          1.1069 
        1.59535         2.10269         1.09646 
         1.6015         2.08416         1.08614 
        1.60764          2.0769         1.07596 
        1.61376         2.05502         1.06594 
        1.61989         2.03933         1.05604 
        1.62604         2.02657         1.04624 
        1.63218         2.01764         1.03657 
        1.63831         2.00611         1.02705 
        1.64444         1.98795         1.01764 
        1.65059         1.98034         1.00833 
        1.65673         1.96049        0.999141 
        1.66285         1.94856        0.990094 
        1.66898         1.93481        0.981156 
        1.67512         1.92124         0.97231 
        1.68127         1.90912        0.963565 
         1.6874         1.89953        0.954947 
        1.69353         1.88281        0.946439 
        1.69967         1.86959        0.938014 
        1.70581          1.8622        0.929696 
        1.71193         1.84136        0.921509 
        1.71806         1.83651        0.913403 
        1.72421         1.82633        0.905379 
        1.73035          1.8105         0.89746 
        1.73649          1.8009        0.889637 
        1.74262         1.78998        0.881913 
        1.74876         1.77941        0.874276 
        1.75489         1.76482        0.866745 
        1.76101         1.75252        0.859305 
        1.76715         1.74819        0.851941 
        1.77329         1.73337        0.844655 
        1.77943         1.72186         0.83745 
        1.78557          1.7126         0.83034 
        1.79171         1.70169        0.823311 
        1.79785         1.69413        0.816362 
        1.80399         1.68053        0.809494 
        1.81012         1.67244        0.802715 
        1.81625         1.65739        0.796015 
        1.82239         1.65173        0.789382 
        1.82853         1.64157        0.782828 
        1.83466         1.62664        0.776354 
        1.84078         1.61736        0.769961 
        1.84692         1.60784        0.763629 
        1.85306          1.5998         0.75736 
         1.8592         1.58966        0.751171 
        1.86533         1.58299        0.745054 
        1.87147         1.57483        0.738999 
        1.87761         1.56575        0.733008 
        1.88375         1.55385         0.72709 
        1.88988         1.54488        0.721244 
        1.89601         1.53367        0.715459 
        1.90215         1.52543        0.709732 
        1.90829          1.5205        0.704071 
        1.91442         1.50864        0.698471 
        1.92056         1.50357        0.692936 
         1.9267          1.4939        0.687455 
        1.93284         1.48504        0.682031 
        1.93897         1.47446        0.676675 
        1.94509         1.46384        0.671387 
        1.95123         1.46004        0.666143 
        1.95737         1.45352        0.660951 
        1.96349          1.4424        0.655827 
        1.96964         1.43716        0.650743 
        1.97578         1.42664         0.64571 
        1.98192         1.41494        0.640741 
        1.98805         1.41045        0.635823 
        1.99419         1.40175        0.630956 
        2.00033         1.39235        0.626138 
        2.00647         1.38938        0.621371 
         2.0126         1.38171        0.616662 
        2.01874         1.37256        0.611994 
        2.02488         1.36734        0.607371 
        2.03101         1.35664        0.602803 
        2.03714         1.35185        0.598287 
        2.04328         1.34437        0.593811 
        2.04941         1.33668        0.589385 
        2.05554         1.32848        0.585008 
        2.06167          1.3221        0.580668 
        2.06781         1.31524        0.576372 
        2.07396         1.30864        0.572113 
        2.08009          1.3036        0.567904 
        2.08622         1.29544        0.563742 
        2.09237         1.29101        0.559614 
        2.09851         1.28064        0.555526 
        2.10464         1.27442        0.551485 
        2.11077         1.27069         0.54749 
        2.11691         1.26105        0.543525 
        2.12305         1.25419        0.539599 
        2.12918         1.24767        0.535722 
        2.13531         1.24394        0.531882 
        2.14145         1.23672         0.52807 
         2.1476         1.22648        0.524292 
        2.15372          1.2228        0.520569 
        2.15985         1.21615        0.516879 
        2.16599         1.21133        0.513213 
        2.17213         1.20651        0.509588 
        2.17827         1.19836        0.505997 
         2.1844          1.1928        0.502445 
        2.19054         1.18618        0.498925 
        2.19666         1.18179        0.495444 
         2.2028         1.17363        0.491993 
        2.20893         1.17114        0.488573 
        2.21508         1.16367        0.485182 
        2.22122         1.15706        0.481821 
        2.22736         1.15124          0.4785 
        2.23349         1.14536         0.47521 
        2.23962         1.14348        0.471949 
        2.24577         1.13575        0.468716 
         2.2519         1.13045        0.465518 
        2.25802          1.1251        0.462354 
        2.26417         1.11951        0.459211 
        2.27031          1.1146        0.456094 
        2.27644         1.10812        0.453015 
        2.28257         1.10294        0.449965 
        2.28872          1.0992        0.446937 
        2.29486         1.09255        0.443937 
        2.30099         1.08723        0.440971 
        2.30712         1.08432        0.438031 
        2.31326          1.0783        0.435112 
         2.3194         1.07201        0.432221 
        2.32553          1.0681        0.429362 
        2.33166         1.06388         0.42653 
         2.3378         1.05979        0.423719 
        2.34394         1.05199        0.420932 
        2.35007         1.04689        0.418175 
        2.35619         1.04423        0.415445 
        2.36233         1.03922        0.412733 
        2.36848         1.03465         0.41004 
        2.37462         1.02956        0.407376 
        2.38075         1.02588        0.404739 
        2.38689         1.02195        0.402122 
        2.39303         1.01602         0.39953 
        2.39916         1.01269        0.396962 
        2.40529         1.00644        0.394417 
        2.41143         1.00159        0.391893 
        2.41757        0.998251        0.389389 
         2.4237        0.992368        0.386912 
        2.42983        0.988713        0.384457 
        2.43598        0.985809        0.382016 
        2.44211        0.979905          0.3796 
        2.44823        0.976081        0.377211 
        2.45437        0.971891        0.374836 
        2.46052        0.968086        0.372479 
        2.46665        0.964255        0.370146 
        2.47279        0.959644        0.367834 
        2.47892        0.956128        0.365541 
        2.48507        0.951557        0.363264 
         2.4912        0.947928        0.361011 
