# k  (h/Mpc)    P(k)  (Mpc/h)^3    P_linear(k)  (Mpc/h)^3
     0.00783031         165.773         167.148 
       0.013688         220.979         221.738 
       0.019231         239.239         239.468 
      0.0249154         235.175         236.037 
      0.0312784         218.316          218.52 
      0.0375637         197.009         196.774 
      0.0433917         177.939         177.985 
      0.0492413         162.776         162.601 
      0.0555754         149.843         149.996 
      0.0619321         140.681         140.342 
       0.067871         132.357         132.497 
      0.0738098         124.349         124.559 
      0.0800417          115.12          115.47 
      0.0862327         105.584         105.746 
      0.0921407         96.3411         96.3961 
      0.0982031         87.3528          87.481 
       0.104506         79.7336         79.5806 
       0.110769         73.5153          73.394 
       0.116806         68.7954         68.8931 
       0.122832         65.5017         65.4589 
       0.129052         62.3823         62.5058 
       0.135211         59.5043           59.68 
       0.141259         56.6188          56.681 
       0.147318         53.4122          53.359 
       0.153489         49.7335         49.7613 
       0.159709         46.1591         46.1654 
       0.165845         43.0988         42.9089 
       0.171974         40.1419         40.1288 
       0.178125         37.9202         37.8764 
       0.184229         36.2236         36.1186 
        0.19034         34.6428         34.6972 
       0.196428         33.4761         33.4461 
       0.202534         32.3517         32.2013 
       0.208729         30.9092         30.8465 
       0.214876         29.3634         29.3853 
       0.220989         28.0174         27.8598 
       0.227147         26.3315         26.3344 
        0.23329         24.9288         24.9133 
       0.239377         23.7206          23.669 
       0.245482         22.6198         22.6103 
       0.251667         21.8235         21.7153 
       0.257832         21.0228         20.9552 
       0.263955         20.3531         20.2718 
       0.270079         19.6912         19.6037 
        0.27624         19.0695         18.9109 
       0.282372         18.3372         18.1881 
        0.28843         17.5473         17.4518 
       0.294538         16.8234         16.7138 
       0.300721         16.1736         16.0011 
        0.30691         15.4622         15.3479 
       0.313033         14.9029          14.772 
       0.319153         14.3019         14.2655 
       0.325316         13.9793         13.8105 
        0.33145         13.5399          13.394 
       0.337538         13.1346         12.9963 
       0.343633         12.7162         12.6001 
       0.349808         12.3337         12.1934 
       0.355968         11.9297         11.7841 
       0.362074         11.5195         11.3818 
       0.368217         11.1388         10.9902 
       0.374374         10.7301         10.6204 
       0.380519         10.4288         10.2786 
       0.386598         10.1324         9.96867 
       0.392688         9.86363          9.6827 
        0.39888         9.57622         9.41083 
       0.405048          9.3265         9.15252 
       0.411186         9.08535         8.90154 
       0.417313          8.8061          8.6537 
       0.423458         8.58267         8.40759 
       0.429607         8.31859         8.16458 
       0.435692         8.08379          7.9306 
       0.441815         7.86739         7.70474 
       0.447964         7.68599         7.48939 
       0.454126         7.44489         7.28599 
       0.460267         7.25306         7.09546 
       0.466387         7.05973         6.91545 
        0.47254         6.90162         6.74207 
       0.478662          6.7444         6.57525 
       0.484765         6.56874         6.41309 
       0.490885          6.4079         6.25342 
       0.497035         6.28962         6.09621 
       0.503198         6.11854         5.94284 
       0.509342         5.97868         5.79482 
       0.515458         5.82352         5.65287 
       0.521598         5.69311         5.51623 
       0.527764         5.54826         5.38521 
       0.533884         5.44496          5.2607 
           0.54         5.31912         5.14093 
       0.546137         5.21082         5.02459 
       0.552299         5.09437         4.91113 
       0.558452         4.96372         4.80089 
       0.564573          4.8719          4.6939 
       0.570708         4.76885         4.58925 
       0.576825         4.65546         4.48774 
       0.582926         4.57114         4.38961 
       0.589034         4.44588         4.29468 
       0.595184         4.36377         4.20243 
       0.601379         4.27298         4.11264 
       0.607522         4.20047         4.02646 
       0.613639         4.13262         3.94326 
       0.619772         4.02752         3.86226 
       0.625918         3.95737         3.78335 
       0.632068         3.89062         3.70648 
       0.638161         3.80393         3.63224 
         0.6443         3.72792         3.55931 
       0.650464         3.64708         3.48803 
       0.656582         3.59158         3.41923 
       0.662703         3.52537         3.35238 
       0.668861         3.46852         3.28714 
       0.675024         3.39416         3.22374 
       0.681124         3.32436         3.16276 
       0.687237         3.27749         3.10327 
       0.693381         3.22037         3.04503 
       0.699536         3.14054         2.98811 
       0.705665         3.09093         2.93284 
       0.711789         3.04342         2.87899 
       0.717957         2.98413         2.82612 
        0.72409          2.9361         2.77489 
       0.730186         2.88379         2.72528 
       0.736317         2.84898         2.67666 
       0.742472         2.79794         2.62908 
       0.748622         2.74552         2.58273 
        0.75476         2.69027         2.53761 
       0.760888         2.64775         2.49365 
       0.767043         2.61886         2.45056 
       0.773185         2.56527         2.40857 
       0.779291         2.52711         2.36781 
       0.785407         2.48758         2.32793 
       0.791564         2.44808         2.28874 
       0.797719         2.41385         2.25047 
       0.803834         2.37695         2.21333 
       0.809972         2.33886         2.17692 
       0.816124         2.29813         2.14126 
       0.822261         2.25881          2.1065 
       0.828378         2.23076         2.07264 
       0.834502         2.20184          2.0395 
       0.840667         2.15753         2.00688 
       0.846816         2.12646         1.97507 
       0.852925         2.10401         1.94415 
       0.859047         2.07214         1.91384 
       0.865192         2.03935         1.88407 
       0.871341         2.00884         1.85493 
       0.877463         1.98796         1.82654 
       0.883569         1.95217         1.79882 
       0.889708         1.92246         1.77154 
       0.895864         1.89761         1.74476 
       0.902008         1.86642         1.71859 
       0.908149         1.84164         1.69299 
       0.914301         1.80771         1.66787 
       0.920448         1.78703         1.64328 
       0.926574         1.76083         1.61929 
       0.932687         1.73798         1.59583 
       0.938823         1.72164         1.57275 
       0.944975         1.69523         1.55009 
       0.951105         1.67443         1.52795 
       0.957225         1.65674         1.50629 
       0.963368         1.63245         1.48498 
       0.969511         1.60735         1.46409 
       0.975621         1.58274         1.44371 
       0.981748         1.56939         1.42367 
       0.987916         1.54744         1.40389 
        0.99406          1.5245         1.38456 
        1.00019         1.51003         1.36564 
        1.00632         1.48515         1.34709 
        1.01246          1.4667         1.32886 
        1.01859          1.4514           1.311 
        1.02471         1.43102         1.29349 
        1.03085         1.41816         1.27624 
        1.03698         1.39633         1.25935 
        1.04314         1.38126          1.2427 
        1.04929         1.36172         1.22638 
        1.05541         1.34814         1.21043 
        1.06154         1.32957         1.19472 
        1.06769         1.31225         1.17928 
        1.07382         1.29909         1.16415 
        1.07993         1.27935         1.14933 
        1.08607         1.27109         1.13471 
        1.09222         1.25214         1.12033 
        1.09836         1.24293         1.10622 
        1.10449         1.22724         1.09237 
        1.11063         1.20916         1.07874 
        1.11677         1.19363         1.06536 
         1.1229         1.18204         1.05222 
        1.12903         1.16668          1.0393 
        1.13518         1.15725         1.02658 
        1.14131         1.14114         1.01409 
        1.14745         1.12248         1.00181 
        1.15359         1.11588        0.989736 
        1.15973         1.09887        0.977857 
        1.16584          1.0937        0.966227 
        1.17197         1.07907        0.954771 
        1.17811           1.068        0.943467 
        1.18424         1.06038         0.93238 
        1.19038         1.04492        0.921441 
        1.19652         1.03092        0.910682 
        1.20267         1.02447        0.900096 
        1.20881         1.01025        0.889682 
        1.21495         1.00296         0.87945 
        1.22108        0.991819        0.869382 
         1.2272        0.983032        0.859496 
        1.23334        0.970845        0.849742 
        1.23949        0.960406        0.840118 
        1.24562        0.951244         0.83067 
        1.25174        0.941819        0.821382 
        1.25789        0.933098        0.812209 
        1.26402        0.920157        0.803193 
        1.27014        0.911697        0.794337 
        1.27628        0.905326        0.785588 
        1.28244        0.891995        0.776955 
        1.28858        0.884672        0.768465 
        1.29471        0.878289         0.76012 
        1.30084        0.867149        0.751908 
        1.30697        0.858867        0.743806 
        1.31312         0.84682        0.735812 
        1.31925        0.841153        0.727962 
        1.32537        0.834319        0.720235 
        1.33151        0.827159        0.712593 
        1.33765        0.818451        0.705067 
        1.34378         0.80797        0.697665 
        1.34992        0.802991        0.690365 
        1.35606        0.793904        0.683154 
         1.3622        0.786944         0.67606 
        1.36833         0.77928        0.669085 
        1.37445        0.769629        0.662211 
        1.38059        0.762724        0.655414 
        1.38675        0.761282        0.648697 
        1.39288        0.750797        0.642101 
        1.39901        0.744308          0.6356 
        1.40515        0.738118        0.629175 
         1.4113        0.729461        0.622842 
        1.41742        0.722855        0.616621 
        1.42355        0.719578        0.610474 
         1.4297        0.710176        0.604392 
        1.43585        0.704632        0.598396 
        1.44198        0.700848        0.592505 
        1.44809        0.691633        0.586705 
        1.45423        0.686172        0.580961 
        1.46036        0.679953        0.575304 
        1.46649        0.675001        0.569722 
        1.47263        0.667793        0.564209 
        1.47877        0.661002        0.558772 
        1.48491        0.656229        0.553398 
        1.49104        0.649171        0.548107 
        1.49718        0.644828        0.542881 
        1.50333         0.63993        0.537716 
        1.50947        0.634243        0.532628 
         1.5156        0.628142        0.527614 
        1.52172        0.623168        0.522665 
        1.52787        0.617379         0.51777 
          1.534        0.612816        0.512944 
        1.54013        0.606039        0.508185 
        1.54627        0.602463        0.503477 
        1.55241        0.596488        0.498829 
        1.55855        0.590299        0.494247 
        1.56467        0.588759        0.489735 
         1.5708        0.582172        0.485266 
        1.57695        0.578064        0.480848 
        1.58308        0.572773        0.476494 
        1.58922        0.568626        0.472192 
        1.59535        0.563535        0.467944 
         1.6015        0.558914        0.463744 
        1.60764        0.554912        0.459597 
        1.61376        0.548706        0.455512 
        1.61989        0.545825        0.451474 
        1.62604        0.541595        0.447476 
        1.63218        0.537931        0.443529 
        1.63831        0.533148         0.43964 
        1.64444         0.52873        0.435795 
        1.65059        0.524773        0.431988 
        1.65673        0.520442         0.42823 
        1.66285        0.516906        0.424528 
        1.66898        0.513056        0.420869 
        1.67512        0.508066        0.417246 
        1.68127        0.504021        0.413662 
         1.6874        0.501581        0.410128 
        1.69353        0.496745        0.406638 
        1.69967        0.494024        0.403181 
        1.70581        0.488962        0.399765 
        1.71193        0.485714        0.396402 
        1.71806        0.481477        0.393071 
        1.72421        0.479027        0.389771 
        1.73035        0.474638        0.386514 
        1.73649        0.472022        0.383294 
        1.74262        0.468128        0.380114 
        1.74876         0.46443        0.376968 
        1.75489        0.461524        0.373864 
        1.76101        0.456985        0.370796 
        1.76715        0.454055        0.367758 
        1.77329         0.45047        0.364751 
        1.77943         0.44743        0.361777 
        1.78557        0.444788         0.35884 
        1.79171        0.441324        0.355935 
        1.79785        0.438039        0.353062 
        1.80399        0.434724        0.350221 
        1.81012        0.432136        0.347416 
        1.81625        0.428599        0.344643 
        1.82239          0.4262        0.341896 
        1.82853        0.421938         0.33918 
        1.83466        0.419911        0.336496 
        1.84078        0.416432        0.333845 
        1.84692         0.41383        0.331218 
        1.85306        0.411254        0.328616 
         1.8592        0.408042        0.326046 
        1.86533        0.405764        0.323505 
        1.87147        0.402674        0.320989 
        1.87761        0.400622        0.318498 
        1.88375        0.396509        0.316037 
        1.88988        0.394401        0.313604 
        1.89601        0.391515        0.311196 
        1.90215        0.389114        0.308812 
        1.90829        0.386047        0.306453 
        1.91442        0.384198        0.304119 
        1.92056        0.380804        0.301812 
         1.9267        0.378047        0.299526 
        1.93284        0.375805        0.297263 
        1.93897        0.373486        0.295027 
        1.94509        0.371393        0.292819 
        1.95123        0.368205        0.290628 
        1.95737        0.366671        0.288459 
        1.96349        0.363858        0.286316 
        1.96964        0.361099         0.28419 
        1.97578        0.358827        0.282084 
        1.98192        0.357316        0.280004 
        1.98805        0.355026        0.277945 
        1.99419        0.351912        0.275906 
        2.00033        0.349737        0.273887 
        2.00647        0.348226        0.271889 
         2.0126        0.345343        0.269914 
        2.01874        0.343618        0.267956 
        2.02488        0.341347        0.266016 
        2.03101        0.339058        0.264098 
        2.03714        0.336792        0.262201 
        2.04328        0.334918        0.260321 
        2.04941         0.33264        0.258461 
        2.05554        0.330863         0.25662 
        2.06167        0.329176        0.254795 
        2.06781        0.326044        0.252988 
        2.07396        0.324083        0.251195 
        2.08009        0.322124        0.249423 
        2.08622        0.320688         0.24767 
        2.09237        0.319266        0.245931 
        2.09851         0.31716        0.244208 
        2.10464        0.315113        0.242504 
        2.11077        0.312697        0.240819 
        2.11691        0.310988        0.239146 
        2.12305        0.309035        0.237489 
        2.12918        0.307329        0.235851 
        2.13531        0.305476        0.234229 
        2.14145        0.303467        0.232619 
         2.1476         0.30187        0.231022 
        2.15372        0.300575        0.229448 
        2.15985         0.29828        0.227887 
        2.16599         0.29624        0.226336 
        2.17213        0.295024        0.224802 
        2.17827        0.293029        0.223282 
         2.1844        0.291665        0.221777 
        2.19054        0.289901        0.220286 
        2.19666        0.287474        0.218811 
         2.2028        0.286413        0.217347 
        2.20893        0.285181        0.215897 
        2.21508        0.282623        0.214458 
        2.22122        0.281393        0.213032 
        2.22736        0.280042        0.211622 
        2.23349        0.278267        0.210225 
        2.23962        0.276988         0.20884 
        2.24577        0.274838        0.207466 
         2.2519        0.273937        0.206107 
        2.25802        0.271947        0.204762 
        2.26417        0.270588        0.203425 
        2.27031        0.268774        0.202099 
        2.27644        0.267542        0.200789 
        2.28257        0.265912         0.19949 
        2.28872        0.264741          0.1982 
        2.29486        0.263183        0.196923 
        2.30099        0.261818        0.195659 
        2.30712        0.260396        0.194405 
        2.31326         0.25839        0.193161 
         2.3194        0.258353        0.191928 
        2.32553        0.256702        0.190708 
        2.33166        0.255191        0.189499 
         2.3378        0.253713        0.188299 
        2.34394        0.252211        0.187109 
        2.35007        0.250884        0.185931 
        2.35619        0.249233        0.184765 
        2.36233        0.247776        0.183606 
        2.36848        0.246839        0.182454 
        2.37462        0.245178        0.181315 
        2.38075        0.244416        0.180187 
        2.38689        0.242883        0.179067 
        2.39303         0.24218        0.177957 
        2.39916        0.240292        0.176858 
        2.40529        0.239192        0.175768 
        2.41143        0.237952        0.174686 
        2.41757        0.236463        0.173613 
         2.4237        0.235508        0.172551 
        2.42983        0.234144        0.171498 
        2.43598        0.233519        0.170452 
        2.44211        0.232083        0.169415 
        2.44823        0.231308         0.16839 
        2.45437         0.22931         0.16737 
        2.46052        0.228633        0.166358 
        2.46665        0.227377        0.165356 
        2.47279        0.225938        0.164363 
        2.47892        0.224661        0.163377 
        2.48507        0.223726        0.162398 
         2.4912         0.22282        0.161429 
