# k  (h/Mpc)    Pcb(k)  (Mpc/h)^3    Pcb_linear(k)  (Mpc/h)^3
     0.00783031         4400.28         4432.18 
       0.013688         5133.14         5214.29 
       0.019231         5027.38         5065.06 
      0.0249154         4517.31         4503.45 
      0.0312784         3747.17          3751.9 
      0.0375637         3086.22          3101.2 
      0.0433917         2658.34          2652.1 
      0.0492413         2339.26         2344.42 
      0.0555754         2134.34         2125.75 
      0.0619321         1937.37         1964.91 
       0.067871         1814.75         1821.71 
      0.0738098         1661.16         1662.09 
      0.0800417         1482.12         1476.32 
      0.0862327          1291.5         1289.87 
      0.0921407         1134.75         1129.76 
      0.0982031         1011.45         997.378 
       0.104506         901.176          898.14 
       0.110769         838.084         832.573 
       0.116806         802.998         789.449 
       0.122832         759.137         753.862 
       0.129052         722.309         714.614 
       0.135211         681.988         667.998 
       0.141259          624.86         615.341 
       0.147318         566.447         560.398 
       0.153489         519.023         508.136 
       0.159709         481.306         463.923 
       0.165845         439.878         430.469 
       0.171974         425.517         406.223 
       0.178125         406.607         388.306 
       0.184229         385.149         373.407 
        0.19034         374.014          358.32 
       0.196428         357.694         341.331 
       0.202534         332.033         322.086 
       0.208729         318.605         301.354 
       0.214876         301.248         281.245 
       0.220989          278.51          263.21 
       0.227147         268.862         247.907 
        0.23329         257.084         235.591 
       0.239377         249.372         225.736 
       0.245482          237.74         217.295 
       0.251667         227.625         209.259 
       0.257832         223.677         201.054 
       0.263955         210.841         192.436 
       0.270079         201.639          183.45 
        0.27624         192.011         174.419 
       0.282372         184.903         165.885 
        0.28843         181.513         158.227 
       0.294538         172.719          151.44 
       0.300721          165.32         145.458 
        0.30691         162.166         140.165 
       0.313033          155.27         135.335 
       0.319153         152.332         130.679 
       0.325316         146.499         126.001 
        0.33145         141.527         121.325 
       0.337538         136.565         116.708 
       0.343633         132.227         112.218 
       0.349808         127.699         107.908 
       0.355968         124.021         103.925 
       0.362074         121.275         100.305 
       0.368217         118.134         96.9599 
       0.374374         115.099         93.8441 
       0.380519         110.242         90.8914 
       0.386598         107.582         88.0698 
       0.392688         104.242         85.3047 
        0.39888         102.299         82.5485 
       0.405048         99.7668         79.8778 
       0.411186         97.5204         77.3154 
       0.417313         94.8345         74.8768 
       0.423458         92.2538         72.5668 
       0.429607         90.3471         70.3866 
       0.435692         88.8818         68.3479 
       0.441815         85.8276         66.3976 
       0.447964         83.1598         64.5184 
       0.454126         81.6377         62.6985 
       0.460267         80.8525         60.9409 
       0.466387         78.6911         59.2416 
        0.47254         77.6495         57.5865 
       0.478662          74.905         55.9997 
       0.484765         73.5946         54.4819 
       0.490885          71.633         53.0242 
       0.497035         70.9038         51.6211 
       0.503198          69.261         50.2747 
       0.509342         67.4048         48.9853 
       0.515458          66.452         47.7475 
       0.521598         64.7926         46.5451 
       0.527764         63.9751         45.3756 
       0.533884          63.151          44.252 
           0.54         61.5279         43.1657 
       0.546137         59.8686         42.1115 
       0.552299         58.8117         41.0891 
       0.558452         57.6412         40.1048 
       0.564573         57.2915         39.1604 
       0.570708          55.615         38.2465 
       0.576825         55.0288         37.3656 
       0.582926         54.2432         36.5148 
       0.589034         53.1628          35.689 
       0.595184         52.4524          34.883 
       0.601379         51.1113         34.0961 
       0.607522         50.2129         33.3396 
       0.613639         49.6931         32.6092 
       0.619772          48.697         31.8991 
       0.625918          48.014         31.2092 
       0.632068         47.4274           30.54 
       0.638161         46.4888          29.897 
         0.6443         46.0069         29.2686 
       0.650464         44.8941         28.6562 
       0.656582         44.6759         28.0658 
       0.662703         44.0333         27.4918 
       0.668861         42.9675         26.9305 
       0.675024          42.664         26.3844 
       0.681124         42.1948          25.859 
       0.687237         41.3414         25.3471 
       0.693381         40.7639         24.8469 
       0.699536         40.4077         24.3596 
       0.705665         39.7273         23.8877 
       0.711789         39.1076          23.429 
       0.717957         38.4506         22.9792 
        0.72409         38.0495         22.5439 
       0.730186           37.83         22.1226 
       0.736317         37.0986         21.7098 
       0.742472         36.6559         21.3061 
       0.748622         36.1065         20.9131 
        0.75476         35.4333          20.531 
       0.760888         35.3758         20.1591 
       0.767043         34.6688         19.7951 
       0.773185         34.2715         19.4409 
       0.779291         33.8438         19.0976 
       0.785407         33.3932         18.7621 
       0.791564          33.322         18.4327 
       0.797719         32.6095         18.1114 
       0.803834         32.4227         17.7999 
       0.809972         31.9107         17.4947 
       0.816124         31.5827          17.196 
       0.822261         31.1839         16.9052 
       0.828378         30.9735          16.622 
       0.834502          30.608         16.3451 
       0.840667         30.3079         16.0728 
       0.846816         29.7703         15.8076 
       0.852925         29.6084           15.55 
       0.859047          29.415         15.2977 
       0.865192         28.9392         15.0502 
       0.871341         28.5948          14.808 
       0.877463         28.3003         14.5723 
       0.883569         28.1667         14.3424 
       0.889708         27.7849         14.1163 
       0.895864         27.4563         13.8946 
       0.902008          27.185         13.6781 
       0.908149          26.872         13.4663 
       0.914301         26.6772         13.2588 
       0.920448         26.4021         13.0558 
       0.926574         26.0939         12.8579 
       0.932687         25.8196         12.6645 
       0.938823         25.4843         12.4744 
       0.944975         25.3004         12.2878 
       0.951105         25.0998         12.1057 
       0.957225         24.8974         11.9276 
       0.963368         24.5825         11.7526 
       0.969511         24.3688         11.5811 
       0.975621         24.1831         11.4139 
       0.981748         23.8866         11.2497 
       0.987916         23.7381         11.0877 
        0.99406         23.4269         10.9295 
        1.00019         23.2913         10.7747 
        1.00632          23.109         10.6231 
        1.01246         22.8697         10.4742 
        1.01859         22.6517         10.3285 
        1.02471         22.4522         10.1857 
        1.03085         22.3373         10.0451 
        1.03698         22.1715         9.90753 
        1.04314         21.9211         9.77196 
        1.04929          21.657         9.63926 
        1.05541         21.5887         9.50957 
        1.06154         21.4159         9.38198 
        1.06769         21.1268         9.25654 
        1.07382         20.9879         9.13383 
        1.07993         20.8117         9.01364 
        1.08607         20.6605         8.89513 
        1.09222         20.4833         8.77864 
        1.09836         20.2798         8.66439 
        1.10449         20.2024         8.55231 
        1.11063         20.0239         8.44211 
        1.11677         19.9527         8.33389 
         1.1229          19.731         8.22777 
        1.12903         19.5504         8.12341 
        1.13518         19.4575         8.02079 
        1.14131         19.3036            7.92 
        1.14745         19.0723         7.82101 
        1.15359         18.8932         7.72371 
        1.15973         18.8059         7.62802 
        1.16584         18.6398          7.5344 
        1.17197         18.4409         7.44223 
        1.17811         18.3662         7.35132 
        1.18424         18.1807          7.2622 
        1.19038         18.1287         7.17432 
        1.19652         17.9212         7.08793 
        1.20267         17.8615         7.00297 
        1.20881         17.6709         6.91942 
        1.21495         17.5831         6.83738 
        1.22108         17.5061          6.7567 
         1.2272         17.3539         6.67751 
        1.23334         17.2537         6.59942 
        1.23949         17.1026          6.5224 
        1.24562         16.9294         6.44683 
        1.25174         16.8876         6.37258 
        1.25789           16.78         6.29928 
        1.26402         16.6626         6.22727 
        1.27014         16.5698         6.15657 
        1.27628         16.3978         6.08676 
        1.28244         16.3885         6.01791 
        1.28858          16.202         5.95022 
        1.29471         16.0568         5.88373 
        1.30084         15.9571         5.81832 
        1.30697         15.8829         5.75382 
        1.31312         15.7686          5.6902 
        1.31925         15.6765         5.62776 
        1.32537         15.5392         5.56632 
        1.33151           15.44         5.50557 
        1.33765          15.404         5.44578 
        1.34378         15.3066           5.387 
        1.34992         15.1885         5.32905 
        1.35606         15.0422         5.27183 
         1.3622         14.9608         5.21555 
        1.36833         14.9235         5.16023 
        1.37445         14.8114         5.10575 
        1.38059         14.7152         5.05189 
        1.38675         14.6352         4.99868 
        1.39288         14.5138         4.94644 
        1.39901         14.4251         4.89499 
        1.40515         14.3631         4.84415 
         1.4113         14.2706         4.79405 
        1.41742         14.2025         4.74486 
        1.42355         14.0845         4.69627 
         1.4297         14.0031         4.64821 
        1.43585         13.9289         4.60085 
        1.44198         13.8944         4.55434 
        1.44809         13.7893         4.50855 
        1.45423         13.6996         4.46323 
        1.46036         13.6119         4.41862 
        1.46649          13.534         4.37461 
        1.47263         13.4679         4.33116 
        1.47877         13.3773         4.28833 
        1.48491         13.3208         4.24601 
        1.49104         13.2348         4.20435 
        1.49718         13.1786         4.16323 
        1.50333         13.1155         4.12259 
        1.50947         13.0372         4.08258 
         1.5156         12.9698         4.04316 
        1.52172         12.8718         4.00427 
        1.52787         12.8559         3.96581 
          1.534          12.763         3.92791 
        1.54013          12.704         3.89054 
        1.54627         12.5988          3.8536 
        1.55241         12.5129         3.81713 
        1.55855         12.4722         3.78118 
        1.56467         12.4361          3.7458 
         1.5708         12.3633         3.71078 
        1.57695         12.2968         3.67615 
        1.58308         12.2108         3.64204 
        1.58922         12.1567         3.60835 
        1.59535         12.1014         3.57509 
         1.6015         11.9919         3.54221 
        1.60764         11.9537         3.50975 
        1.61376         11.9155          3.4778 
        1.61989         11.8178         3.44622 
        1.62604         11.7912         3.41496 
        1.63218         11.7338         3.38411 
        1.63831         11.6457         3.35371 
        1.64444         11.5823         3.32368 
        1.65059         11.5287         3.29394 
        1.65673         11.4921         3.26461 
        1.66285         11.4005         3.23571 
        1.66898         11.3861         3.20715 
        1.67512         11.3493         3.17889 
        1.68127         11.2559         3.15094 
         1.6874         11.2321         3.12339 
        1.69353         11.1127         3.09619 
        1.69967         11.0859         3.06924 
        1.70581         11.0434         3.04264 
        1.71193         10.9744         3.01644 
        1.71806         10.9316         2.99051 
        1.72421         10.8761         2.96482 
        1.73035         10.8349         2.93947 
        1.73649         10.7955         2.91443 
        1.74262         10.7067         2.88969 
        1.74876         10.6825         2.86523 
        1.75489         10.6404          2.8411 
        1.76101         10.5494         2.81726 
        1.76715         10.5476         2.79366 
        1.77329         10.4698          2.7703 
        1.77943         10.4149          2.7472 
        1.78557          10.407          2.7244 
        1.79171         10.3279         2.70185 
        1.79785         10.2853         2.67956 
        1.80399         10.2322         2.65752 
        1.81012          10.191         2.63576 
        1.81625         10.1418         2.61425 
        1.82239         10.0917         2.59296 
        1.82853         10.0391         2.57191 
        1.83466         9.98029         2.55112 
        1.84078         9.94859         2.53057 
        1.84692          9.9441         2.51023 
        1.85306         9.88559         2.49008 
         1.8592         9.84417         2.47018 
        1.86533         9.77276         2.45051 
        1.87147         9.73897         2.43104 
        1.87761         9.70737         2.41177 
        1.88375         9.67113         2.39273 
        1.88988         9.60109         2.37392 
        1.89601         9.57976          2.3553 
        1.90215         9.52123         2.33687 
        1.90829          9.4739         2.31864 
        1.91442          9.4367         2.30061 
        1.92056         9.42579         2.28278 
         1.9267         9.38269         2.26513 
        1.93284         9.35627         2.24765 
        1.93897         9.28122         2.23039 
        1.94509         9.24567         2.21335 
        1.95123         9.21248         2.19645 
        1.95737         9.18239         2.17971 
        1.96349         9.11699         2.16319 
        1.96964         9.09521         2.14679 
        1.97578         9.06753         2.13056 
        1.98192         9.03841         2.11452 
        1.98805         8.97469         2.09865 
        1.99419         8.95241         2.08295 
        2.00033         8.91086         2.06739 
        2.00647         8.86594           2.052 
         2.0126         8.84041          2.0368 
        2.01874          8.7923         2.02172 
        2.02488         8.75462         2.00678 
        2.03101         8.74941         1.99203 
        2.03714         8.68661         1.97743 
        2.04328         8.64297         1.96297 
        2.04941         8.60948         1.94866 
        2.05554          8.5909         1.93451 
        2.06167         8.56492         1.92048 
        2.06781         8.52792         1.90658 
        2.07396         8.49525         1.89281 
        2.08009         8.42705         1.87919 
        2.08622         8.43129         1.86573 
        2.09237          8.4002         1.85237 
        2.09851         8.34392         1.83914 
        2.10464         8.32966         1.82606 
        2.11077         8.26797         1.81312 
        2.11691         8.25854         1.80028 
        2.12305         8.22021         1.78756 
        2.12918         8.16701           1.775 
        2.13531         8.15757         1.76256 
        2.14145           8.117         1.75021 
         2.1476         8.09667         1.73796 
        2.15372         8.06836         1.72589 
        2.15985         8.02382         1.71393 
        2.16599         8.00769         1.70204 
        2.17213          7.9972         1.69028 
        2.17827         7.94693         1.67863 
         2.1844         7.92308         1.66711 
        2.19054         7.89214         1.65569 
        2.19666         7.86432         1.64439 
         2.2028         7.83601         1.63319 
        2.20893         7.79926         1.62208 
        2.21508         7.77257         1.61107 
        2.22122         7.72748         1.60016 
        2.22736          7.7041         1.58937 
        2.23349         7.67471         1.57868 
        2.23962         7.65657         1.56809 
        2.24577         7.64208         1.55758 
         2.2519         7.61502         1.54719 
        2.25802         7.55182         1.53691 
        2.26417          7.5481         1.52669 
        2.27031         7.52475         1.51655 
        2.27644         7.50303         1.50654 
        2.28257         7.44006         1.49662 
        2.28872         7.42946         1.48677 
        2.29486         7.40999         1.47701 
        2.30099         7.38496         1.46736 
        2.30712         7.33595         1.45779 
        2.31326         7.31938         1.44829 
         2.3194         7.29006         1.43888 
        2.32553         7.27168         1.42957 
        2.33166          7.2344         1.42034 
         2.3378         7.22024         1.41119 
        2.34394         7.18644         1.40211 
        2.35007         7.17102         1.39313 
        2.35619         7.14395         1.38423 
        2.36233         7.10473          1.3754 
        2.36848         7.08494         1.36662 
        2.37462         7.06137         1.35794 
        2.38075         7.03447         1.34934 
        2.38689         7.02261         1.34081 
        2.39303         6.98519         1.33235 
        2.39916         6.97399         1.32398 
        2.40529         6.95022         1.31567 
        2.41143         6.91963         1.30744 
        2.41757         6.88522         1.29927 
         2.4237         6.87198         1.29119 
        2.42983         6.85027         1.28317 
        2.43598          6.8228          1.2752 
        2.44211         6.79682         1.26732 
        2.44823         6.77371         1.25952 
        2.45437         6.74898         1.25176 
        2.46052         6.74367         1.24406 
        2.46665         6.71555         1.23644 
        2.47279         6.68274         1.22888 
        2.47892         6.65662         1.22139 
        2.48507         6.63702         1.21395 
         2.4912         6.62215         1.20659 
