# k  (h/Mpc)    Pcb(k)  (Mpc/h)^3    Pcb_linear(k)  (Mpc/h)^3
     0.00783031         18599.1         18875.5 
       0.013688         21229.9         21018.7 
       0.019231         19371.3         19285.3 
      0.0249154         15783.1         16063.6 
      0.0312784         12368.1         12425.4 
      0.0375637         9762.57          9669.3 
      0.0433917         7964.97         8008.88 
      0.0492413         7062.93         7035.44 
      0.0555754         6322.54         6451.91 
      0.0619321         6102.42         6033.12 
       0.067871         5488.77         5580.86 
      0.0738098         4930.09         4993.93 
      0.0800417         4214.59         4280.97 
      0.0862327         3610.86         3590.65 
      0.0921407         3152.35         3046.53 
      0.0982031         2734.79         2650.72 
       0.104506         2559.75         2404.97 
       0.110769         2402.37         2279.46 
       0.116806         2304.27         2208.54 
       0.122832         2214.57         2130.53 
       0.129052         2042.23         2005.81 
       0.135211         1889.93         1833.23 
       0.141259         1751.58         1638.14 
       0.147318         1595.68         1449.19 
       0.153489         1429.46         1290.13 
       0.159709         1335.71         1176.26 
       0.165845         1278.29         1106.67 
       0.171974         1220.97         1066.35 
       0.178125         1173.15         1037.55 
       0.184229         1125.73         1004.63 
        0.19034         1055.88         957.929 
       0.196428         1020.52          896.98 
       0.202534         970.736         827.734 
       0.208729           908.2         758.733 
       0.214876          857.55          699.68 
       0.220989         820.108         654.337 
       0.227147         785.931         621.881 
        0.23329         753.672         599.147 
       0.239377         738.683         581.054 
       0.245482          688.97         562.514 
       0.251667         683.448         540.247 
       0.257832         653.861         513.946 
       0.263955         628.607         485.253 
       0.270079         600.527         456.633 
        0.27624         590.421         430.422 
       0.282372         566.927         408.412 
        0.28843         553.407         390.933 
       0.294538         524.475         376.721 
       0.300721         520.442         364.412 
        0.30691         497.899         352.594 
       0.313033         487.176         340.371 
       0.319153         471.999         327.182 
       0.325316         458.395          313.24 
        0.33145         443.766         299.331 
       0.337538         435.306         286.279 
       0.343633         421.848          274.46 
       0.349808         405.801         263.985 
       0.355968         401.725          254.87 
       0.362074         395.592         246.765 
       0.368217         383.725         239.109 
       0.374374         366.833         231.526 
       0.380519         364.792         223.883 
       0.386598         354.621         216.228 
       0.392688         351.114         208.609 
        0.39888         341.167         201.142 
       0.405048         333.738         194.147 
       0.411186         327.989         187.722 
       0.417313         321.142         181.853 
       0.423458         313.608         176.399 
       0.429607         309.093         171.247 
       0.435692         300.587         166.343 
       0.441815         297.346         161.501 
       0.447964          290.85         156.699 
       0.454126         284.059         151.985 
       0.460267          278.49         147.427 
       0.466387          274.55         143.064 
        0.47254         269.601         138.901 
       0.478662         268.318         134.999 
       0.484765         258.269         131.322 
       0.490885         255.579         127.805 
       0.497035         250.792         124.409 
       0.503198         246.937          121.12 
       0.509342         245.117         117.931 
       0.515458         241.409         114.832 
       0.521598         235.165         111.809 
       0.527764         232.629         108.877 
       0.533884         229.772         106.082 
           0.54         226.229         103.404 
       0.546137         224.929         100.824 
       0.552299         220.278          98.335 
       0.558452         218.955         95.9438 
       0.564573         215.685          93.647 
       0.570708         210.857         91.4161 
       0.576825         207.737         89.2549 
       0.582926         205.132         87.1593 
       0.589034         203.059         85.1235 
       0.595184         201.324         83.1399 
       0.601379         197.593         81.2108 
       0.607522         195.118         79.3648 
       0.613639         193.494          77.588 
       0.619772         189.827         75.8636 
       0.625918          188.62         74.1887 
       0.632068         185.505         72.5626 
       0.638161         184.411         70.9988 
         0.6443         181.513         69.4694 
       0.650464         179.854         67.9793 
       0.656582         177.108         66.5437 
       0.662703         176.971         65.1493 
       0.668861          173.98         63.7874 
       0.675024          171.46         62.4637 
       0.681124         170.264         61.1914 
       0.687237         168.195         59.9525 
       0.693381         165.496         58.7426 
       0.699536         164.201         57.5645 
       0.705665         162.605         56.4241 
       0.711789         161.052          55.316 
       0.717957         160.632         54.2304 
        0.72409         158.434         53.1801 
       0.730186          156.43         52.1642 
       0.736317         154.641         51.1694 
       0.742472          153.47         50.1971 
       0.748622         152.175          49.251 
        0.75476         150.667         48.3316 
       0.760888         149.123         47.4371 
       0.767043         148.456         46.5618 
       0.773185         147.272         45.7105 
       0.779291         144.453         44.8855 
       0.785407         143.958         44.0799 
       0.791564         142.907          43.289 
       0.797719         140.248         42.5181 
       0.803834         139.642          41.771 
       0.809972         138.943         41.0394 
       0.816124         137.958         40.3238 
       0.822261          137.03         39.6273 
       0.828378         135.571         38.9495 
       0.834502         134.888         38.2871 
       0.840667         133.081         37.6359 
       0.846816         131.877         37.0018 
       0.852925         131.119         36.3864 
       0.859047         130.049         35.7838 
       0.865192         128.561         35.1929 
       0.871341         127.557          34.615 
       0.877463         126.528         34.0527 
       0.883569         126.264         33.5045 
       0.889708         124.743         32.9656 
       0.895864         123.645         32.4372 
       0.902008         122.728         31.9216 
       0.908149         122.373         31.4175 
       0.914301         120.841         30.9236 
       0.920448         120.037         30.4408 
       0.926574           119.1         29.9701 
       0.932687         119.087         29.5104 
       0.938823         117.342         29.0587 
       0.944975         116.668         28.6155 
       0.951105         115.753         28.1832 
       0.957225         115.159         27.7606 
       0.963368         113.403         27.3453 
       0.969511         113.198         26.9386 
       0.975621         112.244         26.5423 
       0.981748         112.105         26.1531 
       0.987916         110.912         25.7692 
        0.99406         110.083         25.3945 
        1.00019         109.823         25.0281 
        1.00632         108.625         24.6692 
        1.01246         108.049         24.3169 
        1.01859         107.582         23.9721 
        1.02471         106.305         23.6344 
        1.03085          105.37         23.3021 
        1.03698         105.071         22.9769 
        1.04314         103.969         22.6566 
        1.04929         103.726         22.3431 
        1.05541         102.867         22.0368 
        1.06154           102.4         21.7356 
        1.06769         102.028         21.4395 
        1.07382         101.043           21.15 
        1.07993         100.537         20.8664 
        1.08607         99.7454          20.587 
        1.09222         99.4628         20.3123 
        1.09836         98.6199         20.0431 
        1.10449         97.7353          19.779 
        1.11063         97.2769         19.5195 
        1.11677         96.5795         19.2647 
         1.1229         96.0055         19.0149 
        1.12903         95.6873         18.7693 
        1.13518         95.2769         18.5279 
        1.14131         94.3529         18.2909 
        1.14745         94.0923         18.0581 
        1.15359         93.3258         17.8294 
        1.15973         92.9827         17.6046 
        1.16584         92.1013         17.3847 
        1.17197         91.5454         17.1682 
        1.17811         91.1318         16.9548 
        1.18424         90.7312         16.7456 
        1.19038         90.5497         16.5394 
        1.19652         89.8107         16.3368 
        1.20267         89.0178         16.1375 
        1.20881         88.7831         15.9417 
        1.21495         87.8335         15.7494 
        1.22108         87.7115         15.5603 
         1.2272         86.8976         15.3747 
        1.23334         86.4881         15.1918 
        1.23949         86.1611         15.0115 
        1.24562         85.5082         14.8345 
        1.25174         85.2692         14.6607 
        1.25789         84.7703         14.4892 
        1.26402         83.7493         14.3207 
        1.27014         83.6245         14.1554 
        1.27628         83.3053         13.9921 
        1.28244         82.9336         13.8311 
        1.28858         82.5509         13.6729 
        1.29471         81.8965         13.5175 
        1.30084          81.748         13.3647 
        1.30697         80.9549          13.214 
        1.31312         80.5786         13.0654 
        1.31925         80.1376         12.9195 
        1.32537         79.6966         12.7761 
        1.33151         79.1696         12.6343 
        1.33765         78.8126         12.4947 
        1.34378         78.4892         12.3576 
        1.34992         78.1614         12.2224 
        1.35606         77.7001         12.0889 
         1.3622         77.1573         11.9577 
        1.36833          76.864         11.8287 
        1.37445         76.4486         11.7018 
        1.38059         75.7708         11.5763 
        1.38675         75.3709         11.4523 
        1.39288         75.3758         11.3307 
        1.39901         74.8461         11.2109 
        1.40515         74.2971         11.0925 
         1.4113           74.06         10.9759 
        1.41742         73.6689         10.8615 
        1.42355          73.337         10.7484 
         1.4297         73.0693         10.6366 
        1.43585         72.5795         10.5265 
        1.44198         72.1065         10.4184 
        1.44809         71.9138          10.312 
        1.45423         71.6767         10.2066 
        1.46036         71.1532          10.103 
        1.46649         70.7417         10.0007 
        1.47263         70.3144         9.89982 
        1.47877         70.0514         9.80035 
        1.48491         69.6349         9.70209 
        1.49104         69.4365         9.60539 
        1.49718         69.1083         9.50993 
        1.50333         68.8844         9.41562 
        1.50947          68.349         9.32278 
         1.5156          68.222         9.23133 
        1.52172         67.7939         9.14111 
        1.52787         67.4174         9.05192 
          1.534         67.0111         8.96402 
        1.54013         66.6486         8.87739 
        1.54627         66.4718         8.79174 
        1.55241         66.0684         8.70722 
        1.55855         65.7694         8.62392 
        1.56467         65.5611         8.54195 
         1.5708         65.1668         8.46081 
        1.57695         65.0558         8.38061 
        1.58308         64.6258         8.30163 
        1.58922         64.2703         8.22362 
        1.59535         64.0784         8.14664 
         1.6015         63.6297         8.07054 
        1.60764         63.4314         7.99545 
        1.61376         63.1222         7.92152 
        1.61989         62.8707         7.84847 
        1.62604          62.493         7.77618 
        1.63218         62.3513         7.70485 
        1.63831         61.7352         7.63458 
        1.64444         61.4736         7.56515 
        1.65059         61.3891         7.49643 
        1.65673         60.9085         7.42864 
        1.66285         60.7155         7.36188 
        1.66898         60.5468         7.29591 
        1.67512         60.0191         7.23063 
        1.68127         59.9574         7.16609 
         1.6874         59.5376         7.10249 
        1.69353         59.3006         7.03969 
        1.69967         59.0803          6.9775 
        1.70581         58.8001          6.9161 
        1.71193         58.5587         6.85566 
        1.71806         58.2211         6.79582 
        1.72421         58.0925         6.73658 
        1.73035         57.7523         6.67811 
        1.73649         57.5014         6.62035 
        1.74262         57.1522         6.56332 
        1.74876         56.9659         6.50692 
        1.75489         56.7048          6.4513 
        1.76101         56.5165         6.39634 
        1.76715         56.0651         6.34195 
        1.77329         55.8823         6.28813 
        1.77943         55.6423         6.23491 
        1.78557         55.4112         6.18239 
        1.79171         55.1102         6.13046 
        1.79785          54.759         6.07912 
        1.80399         54.6583         6.02838 
        1.81012         54.3987         5.97829 
        1.81625         54.1772         5.92878 
        1.82239         53.8635         5.87977 
        1.82853         53.6931         5.83133 
        1.83466         53.4609         5.78349 
        1.84078         53.0708         5.73624 
        1.84692         52.9532         5.68943 
        1.85306         52.6631          5.6431 
         1.8592         52.5196         5.59735 
        1.86533         52.2081         5.55213 
        1.87147         51.8666         5.50736 
        1.87761         51.7943         5.46307 
        1.88375          51.562         5.41932 
        1.88988         51.1357         5.37609 
        1.89601         51.1054         5.33331 
        1.90215         50.6865         5.29096 
        1.90829         50.5283          5.2491 
        1.91442         50.4226         5.20768 
        1.92056         50.1755         5.16675 
         1.9267         49.9282         5.12622 
        1.93284         49.6365         5.08609 
        1.93897         49.4664         5.04648 
        1.94509         49.3353         5.00737 
        1.95123         49.0583         4.96858 
        1.95737         48.7868         4.93017 
        1.96349         48.6082         4.89226 
        1.96964         48.2914         4.85465 
        1.97578         48.0821         4.81741 
        1.98192         48.0997         4.78064 
        1.98805         47.7217         4.74425 
        1.99419         47.5298         4.70824 
        2.00033         47.3584         4.67258 
        2.00647         47.1571          4.6373 
         2.0126         46.8382         4.60245 
        2.01874          46.655          4.5679 
        2.02488         46.5366         4.53367 
        2.03101         46.3437         4.49986 
        2.03714         46.0852         4.46642 
        2.04328         45.8965         4.43329 
        2.04941         45.6444         4.40052 
        2.05554         45.5084         4.36811 
        2.06167         45.3851         4.33597 
        2.06781         45.0758         4.30416 
        2.07396         44.9718         4.27262 
        2.08009         44.7561         4.24145 
        2.08622         44.4211         4.21063 
        2.09237         44.3604         4.18006 
        2.09851         44.2138         4.14978 
        2.10464          43.942         4.11985 
        2.11077         43.7315         4.09026 
        2.11691         43.5106         4.06089 
        2.12305         43.4242          4.0318 
        2.12918         43.2706         4.00307 
        2.13531         42.9402         3.97462 
        2.14145          42.759         3.94638 
         2.1476         42.5654         3.91839 
        2.15372         42.4179          3.8908 
        2.15985         42.2883         3.86345 
        2.16599         42.1107         3.83629 
        2.17213         41.9259         3.80942 
        2.17827         41.7217         3.78281 
         2.1844         41.4682         3.75648 
        2.19054         41.3133         3.73039 
        2.19666          41.138         3.70458 
         2.2028         41.0688           3.679 
        2.20893         40.7698         3.65364 
        2.21508         40.7144          3.6285 
        2.22122         40.5151         3.60358 
        2.22736         40.2673         3.57896 
        2.23349         40.1665         3.55456 
        2.23962         39.9612         3.53038 
        2.24577         39.7223         3.50641 
         2.2519         39.5816         3.48269 
        2.25802          39.456         3.45923 
        2.26417           39.28         3.43592 
        2.27031         39.1639          3.4128 
        2.27644         38.9113         3.38997 
        2.28257         38.7327         3.36734 
        2.28872         38.5656         3.34488 
        2.29486          38.464         3.32262 
        2.30099         38.2975         3.30062 
        2.30712         38.1052          3.2788 
        2.31326         37.9584         3.25715 
         2.3194         37.7497          3.2357 
        2.32553         37.6069         3.21448 
        2.33166         37.4525         3.19346 
         2.3378         37.3256          3.1726 
        2.34394          37.171         3.15192 
        2.35007         37.0257         3.13145 
        2.35619         36.8295         3.11119 
        2.36233         36.6488         3.09106 
        2.36848         36.5781         3.07107 
        2.37462         36.3508          3.0513 
        2.38075         36.2915         3.03172 
        2.38689         36.0854         3.01229 
        2.39303         35.8591         2.99304 
        2.39916          35.734         2.97398 
        2.40529         35.6318         2.95508 
        2.41143         35.4987         2.93634 
        2.41757         35.3349         2.91775 
         2.4237         35.1663         2.89935 
        2.42983         35.0723         2.88112 
        2.43598         34.9187         2.86299 
        2.44211         34.7243         2.84505 
        2.44823         34.6201          2.8273 
        2.45437         34.4361         2.80966 
        2.46052         34.3042         2.79215 
        2.46665         34.1636         2.77482 
        2.47279         33.9483         2.75765 
        2.47892          33.883         2.74061 
        2.48507         33.7657         2.72369 
         2.4912         33.6062         2.70696 
