# k  (h/Mpc)    Pcb(k)  (Mpc/h)^3    Pcb_linear(k)  (Mpc/h)^3
     0.00783031         12844.4         13020.5 
       0.013688         14698.3         14587.4 
       0.019231         13443.3         13388.4 
      0.0249154         10927.8         11080.5 
      0.0312784         8438.09         8453.82 
      0.0375637         6538.04         6472.17 
      0.0433917         5286.28         5296.41 
      0.0492413         4654.78         4630.06 
      0.0555754         4199.91         4260.19 
      0.0619321         4062.93         4016.49 
       0.067871         3698.21         3742.27 
      0.0738098         3327.16         3359.44 
      0.0800417         2837.27         2871.41 
      0.0862327         2399.21         2386.36 
      0.0921407         2057.87         2000.29 
      0.0982031         1764.85         1720.86 
       0.104506          1636.1         1552.88 
       0.110769         1541.51         1476.29 
       0.116806          1488.5         1442.84 
       0.122832         1447.28         1406.03 
       0.129052         1347.35         1333.97 
       0.135211         1244.61         1221.77 
       0.141259         1140.68         1087.17 
       0.147318         1024.42         952.931 
       0.153489         907.794         838.846 
       0.159709         838.828          758.25 
       0.165845         798.737         711.749 
       0.171974         763.646         688.827 
       0.178125         741.206          676.05 
       0.184229           717.8         660.541 
        0.19034         672.882         633.692 
       0.196428          648.94         594.028 
       0.202534         614.221         545.864 
       0.208729         567.815         496.274 
       0.214876         528.727          453.51 
       0.220989         502.338         421.354 
       0.227147         478.558         399.787 
        0.23329         460.092         386.495 
       0.239377         451.458         377.293 
       0.245482         422.584         367.863 
       0.251667         418.399         355.089 
       0.257832         401.229         338.174 
       0.263955         383.652         318.395 
       0.270079         364.148          297.91 
        0.27624         355.377         278.975 
       0.282372         340.905         263.415 
        0.28843         328.769         251.655 
       0.294538         312.759         242.906 
       0.300721         309.769         235.917 
        0.30691         295.973         229.392 
       0.313033         289.194         222.236 
       0.319153         278.007         213.939 
       0.325316          270.39         204.549 
        0.33145         260.032          194.84 
       0.337538         254.875         185.567 
       0.343633          245.43         177.302 
       0.349808         236.512         170.209 
       0.355968         232.923         164.377 
       0.362074           227.8         159.464 
       0.368217         221.191         154.926 
       0.374374         212.218         150.396 
       0.380519         209.614         145.606 
       0.386598         203.813           140.6 
       0.392688         200.502          135.45 
        0.39888          195.15         130.288 
       0.405048         189.721         125.484 
       0.411186         185.675         121.158 
       0.417313         181.599         117.307 
       0.423458         177.322         113.869 
       0.429607         173.727         110.691 
       0.435692         168.294         107.654 
       0.441815         166.556         104.617 
       0.447964         162.989          101.54 
       0.454126         156.788         98.4227 
       0.460267         154.502         95.3603 
       0.466387         152.363         92.4316 
        0.47254         148.596         89.6568 
       0.478662         147.965           87.08 
       0.484765          142.63         84.7025 
       0.490885         140.521          82.475 
       0.497035         138.312         80.3373 
       0.503198         134.859         78.2462 
       0.509342         133.039         76.1951 
       0.515458         130.898         74.1878 
       0.521598           128.1         72.2101 
       0.527764         126.621          70.273 
       0.533884          124.71         68.4201 
           0.54         122.349         66.6575 
       0.546137         121.211          64.984 
       0.552299         118.789         63.3872 
       0.558452         117.158         61.8568 
       0.564573           115.2         60.3819 
       0.570708         112.749         58.9429 
       0.576825         111.432          57.546 
       0.582926          109.13         56.1898 
       0.589034          107.81         54.8681 
       0.595184         106.377         53.5753 
       0.601379         104.639         52.3145 
       0.607522         102.783         51.1081 
       0.613639         101.941         49.9522 
       0.619772         99.8732         48.8381 
       0.625918          98.623         47.7615 
       0.632068         97.3892         46.7184 
       0.638161         96.4488         45.7141 
         0.6443         95.1304         44.7271 
       0.650464          94.172         43.7607 
       0.656582         92.3898         42.8268 
       0.662703         91.4245         41.9188 
       0.668861         89.8597          41.033 
       0.675024         88.7787         40.1747 
       0.681124         88.0615         39.3525 
       0.687237         86.4011         38.5538 
       0.693381          85.138         37.7748 
       0.699536         84.5597         37.0163 
       0.705665          84.126         36.2814 
       0.711789         82.4113         35.5659 
       0.717957         82.1213         34.8638 
        0.72409         80.6092         34.1837 
       0.730186         79.4386         33.5255 
       0.736317         78.9523         32.8809 
       0.742472         78.2295         32.2512 
       0.748622         77.2699         31.6391 
        0.75476         76.4928         31.0448 
       0.760888         75.4964         30.4672 
       0.767043         74.9894         29.9024 
       0.773185          74.145         29.3533 
       0.779291         72.9683         28.8213 
       0.785407         72.5474         28.3018 
       0.791564         72.0888         27.7918 
       0.797719         70.5323         27.2944 
       0.803834         70.2181         26.8124 
       0.809972         69.3033         26.3402 
       0.816124          68.875         25.8783 
       0.822261         68.2951         25.4287 
       0.828378          67.794         24.9912 
       0.834502         67.1736         24.5636 
       0.840667         66.2723         24.1434 
       0.846816          65.418         23.7342 
       0.852925         64.9754         23.3372 
       0.859047         64.1575         22.9485 
       0.865192         63.7764         22.5674 
       0.871341         63.2122         22.1947 
       0.877463         62.3098         21.8323 
       0.883569         62.1329         21.4788 
       0.889708         61.4732         21.1315 
       0.895864         61.0224          20.791 
       0.902008         60.4568         20.4587 
       0.908149         60.0383         20.1339 
       0.914301         59.4099         19.8157 
       0.920448          58.979         19.5046 
       0.926574         58.3677         19.2014 
       0.932687         58.3079         18.9053 
       0.938823         57.4204         18.6144 
       0.944975          56.814          18.329 
       0.951105         56.4155         18.0506 
       0.957225         55.8805         17.7784 
       0.963368         55.4724          17.511 
       0.969511         55.2522         17.2491 
       0.975621         54.9298          16.994 
       0.981748         54.3222         16.7434 
       0.987916         53.8014         16.4962 
        0.99406         53.5102          16.255 
        1.00019         53.1107         16.0192 
        1.00632         52.6336         15.7882 
        1.01246         52.3563         15.5615 
        1.01859         51.7096         15.3395 
        1.02471         51.4365         15.1222 
        1.03085         51.0259         14.9084 
        1.03698         50.7258         14.6991 
        1.04314         50.3114          14.493 
        1.04929         49.9276         14.2914 
        1.05541         49.3899         14.0944 
        1.06154         49.4116         13.9006 
        1.06769         48.9613         13.7102 
        1.07382         48.6892          13.524 
        1.07993         48.3678         13.3417 
        1.08607         47.9928          13.162 
        1.09222         47.7506         12.9855 
        1.09836         47.2675         12.8124 
        1.10449         47.1198         12.6426 
        1.11063         46.6229         12.4758 
        1.11677         46.3583         12.3121 
         1.1229         45.9554         12.1515 
        1.12903         45.4999         11.9938 
        1.13518         45.5966         11.8386 
        1.14131         45.2681         11.6864 
        1.14745         44.8164         11.5369 
        1.15359         44.6221           11.39 
        1.15973         44.1551         11.2456 
        1.16584         43.9267         11.1043 
        1.17197          43.663         10.9653 
        1.17811         43.5174         10.8282 
        1.18424         43.0828         10.6939 
        1.19038          42.829         10.5615 
        1.19652         42.6894         10.4314 
        1.20267         42.2132         10.3034 
        1.20881         42.1013         10.1777 
        1.21495         41.7389         10.0542 
        1.22108          41.709         9.93283 
         1.2272         41.1268         9.81373 
        1.23334          40.962         9.69632 
        1.23949         40.9068         9.58055 
        1.24562         40.4621         9.46699 
        1.25174         40.3432         9.35545 
        1.25789         40.1985         9.24537 
        1.26402         39.8171         9.13725 
        1.27014          39.571         9.03113 
        1.27628         39.3007         8.92638 
        1.28244         39.1443         8.82308 
        1.28858         38.9774         8.72156 
        1.29471         38.7938         8.62187 
        1.30084         38.5699         8.52383 
        1.30697         38.2991         8.42717 
        1.31312         38.0602         8.33187 
        1.31925         37.8371         8.23834 
        1.32537           37.69         8.14635 
        1.33151         37.3851         8.05544 
        1.33765         37.2386         7.96596 
        1.34378         37.0408         7.87803 
        1.34992         36.8056         7.79136 
        1.35606         36.6268         7.70582 
         1.3622         36.4253         7.62171 
        1.36833         36.2055         7.53906 
        1.37445         36.0215         7.45768 
        1.38059         35.7923         7.37725 
        1.38675         35.5691         7.29782 
        1.39288         35.4556         7.21988 
        1.39901         35.3004         7.14311 
        1.40515         35.0387         7.06729 
         1.4113         34.8715          6.9926 
        1.41742         34.7871         6.91927 
        1.42355         34.5041         6.84686 
         1.4297         34.3974         6.77526 
        1.43585         34.2807         6.70472 
        1.44198         33.9454         6.63545 
        1.44809         33.8848          6.5673 
        1.45423         33.6841         6.49984 
        1.46036         33.5615         6.43346 
        1.46649         33.3876         6.36797 
        1.47263         33.1652         6.30335 
        1.47877         32.9744         6.23965 
        1.48491         33.0121         6.17673 
        1.49104         32.6802         6.11481 
        1.49718         32.4011         6.05369 
        1.50333           32.47         5.99331 
        1.50947         32.2517         5.93388 
         1.5156         32.0617         5.87534 
        1.52172          31.981         5.81759 
        1.52787          31.846          5.7605 
          1.534         31.6392         5.70425 
        1.54013         31.4503          5.6488 
        1.54627         31.3892           5.594 
        1.55241         31.0668         5.53991 
        1.55855         31.0494         5.48661 
        1.56467         30.7451         5.43417 
         1.5708         30.8248         5.38226 
        1.57695         30.5947         5.33095 
        1.58308         30.4226         5.28043 
        1.58922         30.3202         5.23052 
        1.59535         30.2178         5.18129 
         1.6015         29.9995         5.13261 
        1.60764         29.8019         5.08459 
        1.61376         29.7109         5.03731 
        1.61989         29.5677          4.9906 
        1.62604         29.4269         4.94438 
        1.63218         29.4142         4.89876 
        1.63831         29.1863         4.85383 
        1.64444         29.0592         4.80945 
        1.65059         28.9873         4.76552 
        1.65673         28.7851         4.72218 
        1.66285          28.652          4.6795 
        1.66898         28.5342         4.63734 
        1.67512         28.3927         4.59561 
        1.68127         28.2577         4.55436 
         1.6874         28.0934          4.5137 
        1.69353         28.0076         4.47357 
        1.69967         27.8713         4.43382 
        1.70581         27.8392         4.39458 
        1.71193         27.7149         4.35596 
        1.71806         27.4429         4.31772 
        1.72421         27.3922         4.27986 
        1.73035          27.258          4.2425 
        1.73649         27.0885         4.20559 
        1.74262         26.9995         4.16915 
        1.74876         26.9208         4.13312 
        1.75489         26.8009         4.09759 
        1.76101         26.6925         4.06249 
        1.76715         26.6006         4.02775 
        1.77329         26.5117         3.99337 
        1.77943            26.4         3.95938 
        1.78557         26.2052         3.92584 
        1.79171          26.117         3.89267 
        1.79785         25.9843         3.85989 
        1.80399         25.9679         3.82749 
        1.81012         25.7716          3.7955 
        1.81625         25.7132         3.76389 
        1.82239         25.5626          3.7326 
        1.82853          25.498         3.70167 
        1.83466         25.3378         3.67113 
        1.84078         25.1542         3.64096 
        1.84692         25.1253         3.61109 
        1.85306         24.9902         3.58151 
         1.8592         24.8936         3.55231 
        1.86533         24.7994         3.52345 
        1.87147         24.7618         3.49488 
        1.87761         24.6089         3.46661 
        1.88375         24.5172         3.43869 
        1.88988         24.4388          3.4111 
        1.89601         24.3508         3.38381 
        1.90215         24.2439         3.35679 
        1.90829         24.1401         3.33007 
        1.91442          24.044         3.30365 
        1.92056         23.9174         3.27754 
         1.9267         23.8573         3.25168 
        1.93284         23.6651         3.22608 
        1.93897         23.6669         3.20081 
        1.94509          23.543         3.17586 
        1.95123         23.4319         3.15112 
        1.95737         23.3348         3.12662 
        1.96349         23.2716         3.10244 
        1.96964         23.1718         3.07845 
        1.97578         23.0074          3.0547 
        1.98192         22.9557         3.03125 
        1.98805         22.9094         3.00804 
        1.99419         22.8052         2.98508 
        2.00033         22.6929         2.96234 
        2.00647         22.6044         2.93985 
         2.0126         22.4934         2.91762 
        2.01874         22.4475         2.89559 
        2.02488         22.3605         2.87377 
        2.03101         22.2826         2.85222 
        2.03714         22.1799         2.83091 
        2.04328         22.0587         2.80979 
        2.04941         21.9984          2.7889 
        2.05554         21.9209         2.76824 
        2.06167         21.8155         2.74776 
        2.06781         21.7225         2.72748 
        2.07396          21.665         2.70738 
        2.08009         21.5887         2.68752 
        2.08622         21.4537         2.66788 
        2.09237         21.4026         2.64839 
        2.09851         21.3208          2.6291 
        2.10464         21.2243         2.61003 
        2.11077         21.1714         2.59117 
        2.11691         21.0773         2.57246 
        2.12305         21.0067         2.55393 
        2.12918         20.8879         2.53563 
        2.13531         20.8918          2.5175 
        2.14145         20.7688         2.49951 
         2.1476         20.7021         2.48168 
        2.15372         20.6072          2.4641 
        2.15985         20.5348         2.44668 
        2.16599         20.4557         2.42938 
        2.17213         20.3953         2.41227 
        2.17827         20.2705         2.39532 
         2.1844         20.2145         2.37855 
        2.19054         20.1396         2.36194 
        2.19666          20.059         2.34551 
         2.2028         19.9615         2.32922 
        2.20893         19.9321         2.31307 
        2.21508         19.8636         2.29706 
        2.22122         19.7195          2.2812 
        2.22736         19.6796         2.26552 
        2.23349         19.6085         2.24999 
        2.23962         19.5472          2.2346 
        2.24577         19.4589         2.21933 
         2.2519         19.4168         2.20423 
        2.25802         19.3025          2.1893 
        2.26417         19.2606         2.17446 
        2.27031         19.1468         2.15975 
        2.27644         19.0845         2.14521 
        2.28257          19.022         2.13081 
        2.28872         18.9616         2.11651 
        2.29486         18.8994         2.10235 
        2.30099         18.7994         2.08835 
        2.30712         18.7432         2.07446 
        2.31326         18.7239         2.06068 
         2.3194         18.6219         2.04703 
        2.32553         18.5549         2.03353 
        2.33166         18.4691         2.02016 
         2.3378         18.4188         2.00689 
        2.34394         18.3104         1.99373 
        2.35007         18.2842         1.98071 
        2.35619         18.2041         1.96782 
        2.36233         18.1269         1.95502 
        2.36848         18.0762          1.9423 
        2.37462          17.981         1.92972 
        2.38075         17.9489         1.91727 
        2.38689         17.8694         1.90491 
        2.39303         17.8025         1.89267 
        2.39916         17.7476         1.88054 
        2.40529         17.7215         1.86853 
        2.41143         17.6153         1.85661 
        2.41757         17.5448         1.84478 
         2.4237         17.4664         1.83309 
        2.42983         17.3752         1.82149 
        2.43598         17.3471         1.80996 
        2.44211         17.2938         1.79856 
        2.44823         17.2362         1.78727 
        2.45437         17.1482         1.77605 
        2.46052         17.0957         1.76492 
        2.46665         17.0543         1.75391 
        2.47279         17.0027         1.74299 
        2.47892         16.9365         1.73215 
        2.48507         16.8416          1.7214 
         2.4912         16.8128         1.71076 
