# k  (h/Mpc)    Pcb(k)  (Mpc/h)^3    Pcb_linear(k)  (Mpc/h)^3
     0.00783031         10713.5         10781.9 
       0.013688         12388.4         12664.1 
       0.019231         12046.7         12188.7 
      0.0249154         10723.2         10676.1 
      0.0312784         8712.29         8745.11 
      0.0375637         7096.58         7163.33 
      0.0433917         6145.36         6140.65 
      0.0492413         5454.96         5486.09 
      0.0555754         5044.47         5037.21 
      0.0619321         4564.87         4678.04 
       0.067871         4263.64         4308.68 
      0.0738098         3859.31         3870.05 
      0.0800417         3384.67          3368.3 
      0.0862327         2909.11         2896.41 
      0.0921407         2559.84         2526.01 
      0.0982031         2313.59         2251.07 
       0.104506          2092.1         2068.74 
       0.110769         1985.06         1958.13 
       0.116806         1924.51          1877.5 
       0.122832         1811.59         1788.56 
       0.129052         1697.04         1669.33 
       0.135211         1589.74         1525.68 
       0.141259         1431.12         1376.34 
       0.147318         1289.55         1238.49 
       0.153489         1191.78         1124.97 
       0.159709         1131.97         1042.91 
       0.165845         1046.53         989.115 
       0.171974         1032.01         951.733 
       0.178125         996.693         918.483 
       0.184229         929.832         880.278 
        0.19034         900.864         832.822 
       0.196428         858.064         778.089 
       0.202534         787.498         721.222 
       0.208729         762.165         667.895 
       0.214876         721.994         623.796 
       0.220989         675.807         589.995 
       0.227147          660.54         564.573 
        0.23329         636.802         544.503 
       0.239377         627.803         526.107 
       0.245482         595.438         506.278 
       0.251667         570.402         483.572 
       0.257832          559.86         458.809 
       0.263955         526.107         433.769 
       0.270079         503.849         410.223 
        0.27624         481.643          389.44 
       0.282372         469.873         372.177 
        0.28843         465.146         358.066 
       0.294538          441.72         345.813 
       0.300721          428.34         334.261 
        0.30691          420.37         322.578 
       0.313033         400.829         310.469 
       0.319153          393.57         297.878 
       0.325316         384.521         285.186 
        0.33145         373.836         273.108 
       0.337538         359.574         262.124 
       0.343633         348.578         252.333 
       0.349808         339.033         243.547 
       0.355968         332.227         235.652 
       0.362074         321.323         228.293 
       0.368217         317.935          221.07 
       0.374374         310.741         213.819 
       0.380519         297.852         206.552 
       0.386598         293.554          199.46 
       0.392688         285.555         192.592 
        0.39888         278.721         186.008 
       0.405048         272.568         179.941 
       0.411186         270.691         174.358 
       0.417313         265.713         169.178 
       0.423458         258.394         164.267 
       0.429607         251.155         159.517 
       0.435692         247.204         154.919 
       0.441815         242.272          150.38 
       0.447964         235.805         145.916 
       0.454126           232.5         141.578 
       0.460267         229.207         137.445 
       0.466387         223.909         133.539 
        0.47254         221.142         129.816 
       0.478662         215.031         126.304 
       0.484765         212.025         122.967 
       0.490885         208.973         119.746 
       0.497035         205.795         116.602 
       0.503198         203.877         113.534 
       0.509342         198.615         110.563 
       0.515458         195.512         107.699 
       0.521598         191.185         104.921 
       0.527764         189.219         102.236 
       0.533884         188.013           99.68 
           0.54         183.986         97.2333 
       0.546137         179.756         94.8739 
       0.552299         178.031         92.5872 
       0.558452         174.985         90.3742 
       0.564573         174.057         88.2364 
       0.570708         169.805         86.1573 
       0.576825         167.484         84.1483 
       0.582926         165.781         82.2079 
       0.589034         163.119         80.3274 
       0.595184         161.673         78.4954 
       0.601379          158.74         76.7111 
       0.607522         155.262         75.0004 
       0.613639         154.375         73.3524 
       0.619772         152.669         71.7521 
       0.625918         151.232         70.1968 
       0.632068         147.806         68.6859 
       0.638161         146.825         67.2309 
         0.6443         145.465         65.8059 
       0.650464         142.661         64.4163 
       0.656582         141.733         63.0769 
       0.662703         140.467         61.7762 
       0.668861         137.503         60.5066 
       0.675024         137.349         59.2733 
       0.681124         135.194         58.0879 
       0.687237         133.749         56.9333 
       0.693381         131.925         55.8049 
       0.699536         130.739          54.705 
       0.705665         129.331          53.639 
       0.711789         127.535         52.6022 
       0.717957         126.202         51.5856 
        0.72409         124.739         50.6015 
       0.730186         124.797         49.6492 
       0.736317         122.915         48.7166 
       0.742472         120.923         47.8049 
       0.748622         119.192         46.9178 
        0.75476         119.607         46.0553 
       0.760888         118.118         45.2162 
       0.767043         115.945         44.3948 
       0.773185          114.76         43.5958 
       0.779291         113.542          42.821 
       0.785407         112.814         42.0641 
       0.791564         111.875         41.3207 
       0.797719         110.116         40.5958 
       0.803834         110.218          39.893 
       0.809972         109.102         39.2045 
       0.816124         107.277         38.5308 
       0.822261         106.507         37.8748 
       0.828378         106.157         37.2362 
       0.834502         104.891         36.6119 
       0.840667         104.301          35.998 
       0.846816         102.957            35.4 
       0.852925         102.024         34.8195 
       0.859047         101.265         34.2509 
       0.865192         100.484         33.6932 
       0.871341          99.494         33.1477 
       0.877463         98.5528         32.6168 
       0.883569         98.5372         32.0989 
       0.889708         97.5266         31.5898 
       0.895864         96.6304         31.0904 
       0.902008         95.5387          30.603 
       0.908149          94.426         30.1264 
       0.914301         94.2247         29.6592 
       0.920448         94.0866         29.2025 
       0.926574         92.1569          28.757 
       0.932687         92.1411         28.3218 
       0.938823         91.4611         27.8941 
       0.944975         90.5572         27.4744 
       0.951105         89.7007         27.0648 
       0.957225         89.3961         26.6643 
       0.963368         88.4739         26.2706 
       0.969511         87.9545         25.8848 
       0.975621         86.8261          25.509 
       0.981748         86.3963         25.1396 
       0.987916         85.7643         24.7753 
        0.99406         85.4789         24.4196 
        1.00019         84.5216         24.0717 
        1.00632         83.8138         23.7308 
        1.01246         83.4322         23.3961 
        1.01859         82.9693         23.0684 
        1.02471         82.3738         22.7475 
        1.03085         81.5644         22.4315 
        1.03698         80.9893         22.1222 
        1.04314         80.4787         21.8175 
        1.04929         80.1348         21.5193 
        1.05541         79.4441         21.2279 
        1.06154         78.8753         20.9412 
        1.06769         78.3871         20.6594 
        1.07382         77.7601         20.3837 
        1.07993         77.4398         20.1137 
        1.08607         76.8797         19.8475 
        1.09222         76.4633         19.5859 
        1.09836          75.806         19.3294 
        1.10449         75.3735         19.0777 
        1.11063         74.8824         18.8303 
        1.11677         74.4748         18.5874 
         1.1229         73.7298         18.3492 
        1.12903         73.4399          18.115 
        1.13518         72.9806         17.8848 
        1.14131         72.5014         17.6586 
        1.14745         72.2327         17.4366 
        1.15359         71.3131         17.2183 
        1.15973         71.2124         17.0037 
        1.16584         70.7489         16.7937 
        1.17197          70.351          16.587 
        1.17811         69.7682         16.3831 
        1.18424         69.2173         16.1833 
        1.19038         69.0442         15.9862 
        1.19652         68.6612         15.7925 
        1.20267         68.1595          15.602 
        1.20881         67.7006         15.4148 
        1.21495         67.3036         15.2309 
        1.22108         67.1351           15.05 
         1.2272         66.4818         14.8725 
        1.23334         66.3248         14.6975 
        1.23949         65.8125         14.5249 
        1.24562         65.2806         14.3555 
        1.25174         65.1018         14.1891 
        1.25789          64.766         14.0249 
        1.26402         64.3489         13.8635 
        1.27014         63.9761         13.7051 
        1.27628         63.5686         13.5487 
        1.28244          63.514         13.3944 
        1.28858         62.9264         13.2428 
        1.29471         62.5153         13.0938 
        1.30084         61.9929         12.9473 
        1.30697         61.9896         12.8028 
        1.31312          61.612         12.6604 
        1.31925         61.0589         12.5205 
        1.32537         60.8291         12.3829 
        1.33151         60.5859         12.2469 
        1.33765         60.2102          12.113 
        1.34378          59.801         11.9814 
        1.34992         59.6448         11.8517 
        1.35606         59.1953         11.7236 
         1.3622          59.033         11.5977 
        1.36833         58.6038         11.4739 
        1.37445         58.1755          11.352 
        1.38059         58.0094         11.2314 
        1.38675         57.5038         11.1124 
        1.39288         57.3472         10.9956 
        1.39901         56.9142         10.8805 
        1.40515         56.7208         10.7667 
         1.4113         56.4544         10.6547 
        1.41742         56.0805         10.5447 
        1.42355         55.9576          10.436 
         1.4297         55.6142         10.3286 
        1.43585         55.3281         10.2227 
        1.44198         54.9479         10.1187 
        1.44809         54.5573         10.0163 
        1.45423         54.4858         9.91502 
        1.46036         54.1818         9.81528 
        1.46649         53.8152         9.71689 
        1.47263         53.5445         9.61977 
        1.47877         53.3391         9.52402 
        1.48491         52.9482         9.42943 
        1.49104         52.7014         9.33632 
        1.49718         52.4969         9.24441 
        1.50333         52.2666         9.15359 
        1.50947         52.0141         9.06418 
         1.5156         51.8361         8.97609 
        1.52172         51.4111         8.88919 
        1.52787         51.1707         8.80326 
          1.534         50.8525         8.71857 
        1.54013         50.8465         8.63509 
        1.54627         50.3464         8.55256 
        1.55241         50.2459         8.47109 
        1.55855         49.8724          8.3908 
        1.56467          49.488         8.31178 
         1.5708         49.5287         8.23355 
        1.57695         49.1757         8.15622 
        1.58308         48.9309         8.08005 
        1.58922         48.7212         8.00482 
        1.59535         48.6676         7.93057 
         1.6015         48.4313         7.85716 
        1.60764         48.1103         7.78471 
        1.61376         47.8733         7.71339 
        1.61989         47.4734          7.6429 
        1.62604         47.3712         7.57314 
        1.63218         47.0687         7.50429 
        1.63831         46.9595         7.43646 
        1.64444         46.7915         7.36944 
        1.65059         46.4304         7.30309 
        1.65673         46.2412         7.23763 
        1.66285         46.0343         7.17316 
        1.66898         45.7398         7.10945 
        1.67512         45.4888         7.04639 
        1.68127         45.4585         6.98404 
         1.6874         45.1957         6.92258 
        1.69353         44.9212          6.8619 
        1.69967         44.7628         6.80181 
        1.70581         44.5108         6.74246 
        1.71193         44.3038         6.68404 
        1.71806         44.1585          6.6262 
        1.72421         43.9381         6.56892 
        1.73035         43.7413         6.51239 
        1.73649         43.4633         6.45654 
        1.74262         43.1897         6.40139 
        1.74876         43.2481         6.34685 
        1.75489          42.914         6.29305 
        1.76101         42.7845          6.2399 
        1.76715         42.5338         6.18729 
        1.77329         42.2375         6.13522 
        1.77943         42.2689         6.08373 
        1.78557         41.9606         6.03291 
        1.79171         41.7368         5.98265 
        1.79785         41.6052         5.93297 
        1.80399         41.3643         5.88386 
        1.81012         41.1672         5.83537 
        1.81625         40.9731         5.78745 
        1.82239         40.7701         5.73999 
        1.82853         40.6261          5.6931 
        1.83466         40.4323         5.64677 
        1.84078         40.2386         5.60101 
        1.84692          40.115         5.55568 
        1.85306         39.8905          5.5108 
         1.8592         39.6542         5.46649 
        1.86533         39.5489         5.42269 
        1.87147         39.3414         5.37932 
        1.87761         39.1941         5.33641 
        1.88375         39.0015         5.29401 
        1.88988         38.7926         5.25213 
        1.89601         38.6887         5.21067 
        1.90215          38.408         5.16963 
        1.90829         38.3178         5.12905 
        1.91442         38.0872          5.0889 
        1.92056         37.9889         5.04922 
         1.9267          37.858         5.00992 
        1.93284         37.6969         4.97102 
        1.93897         37.4257          4.9326 
        1.94509         37.2799         4.89467 
        1.95123         37.1478         4.85705 
        1.95737         37.0357         4.81979 
        1.96349         36.8823         4.78302 
        1.96964         36.6287         4.74653 
        1.97578         36.4843          4.7104 
        1.98192         36.2675         4.67472 
        1.98805         36.0884         4.63941 
        1.99419         36.0145         4.60446 
        2.00033          35.865         4.56986 
        2.00647         35.6952         4.53562 
         2.0126         35.5167         4.50179 
        2.01874         35.4579         4.46825 
        2.02488          35.176         4.43503 
        2.03101         35.1324         4.40221 
        2.03714         34.9407         4.36975 
        2.04328          34.833         4.33758 
        2.04941         34.5544         4.30576 
        2.05554         34.4918         4.27428 
        2.06167         34.3338         4.24307 
        2.06781         34.1867         4.21218 
        2.07396         33.9854         4.18154 
        2.08009         33.8621         4.15127 
        2.08622         33.7827         4.12132 
        2.09237         33.5658         4.09162 
        2.09851         33.4357          4.0622 
        2.10464         33.3299         4.03312 
        2.11077         33.1978         4.00436 
        2.11691         32.9795         3.97582 
        2.12305         32.8238         3.94756 
        2.12918         32.7388         3.91964 
        2.13531         32.4928         3.89198 
        2.14145         32.4399         3.86453 
         2.1476         32.3568         3.83731 
        2.15372         32.2353          3.8105 
        2.15985         32.0004         3.78391 
        2.16599          31.847          3.7575 
        2.17213         31.7912         3.73137 
        2.17827         31.6528         3.70549 
         2.1844         31.4412         3.67989 
        2.19054         31.4008         3.65451 
        2.19666          31.213         3.62941 
         2.2028         31.0109         3.60453 
        2.20893         30.9758         3.57987 
        2.21508         30.8424         3.55541 
        2.22122         30.7236         3.53117 
        2.22736         30.5119          3.5072 
        2.23349           30.47         3.48347 
        2.23962         30.3174         3.45994 
        2.24577         30.1766         3.43661 
         2.2519         30.0322         3.41353 
        2.25802         29.8922         3.39069 
        2.26417         29.7561           3.368 
        2.27031          29.632          3.3455 
        2.27644         29.6142         3.32327 
        2.28257         29.4057         3.30124 
        2.28872         29.3051         3.27937 
        2.29486           29.22         3.25771 
        2.30099         29.0597         3.23628 
        2.30712         28.9473         3.21504 
        2.31326         28.8061         3.19395 
         2.3194         28.6704         3.17306 
        2.32553         28.5948          3.1524 
        2.33166         28.4501         3.13193 
         2.3378         28.3021         3.11161 
        2.34394         28.2246         3.09147 
        2.35007         28.1467         3.07153 
        2.35619         27.9912         3.05179 
        2.36233         27.8597         3.03218 
        2.36848         27.8106          3.0127 
        2.37462         27.6423         2.99344 
        2.38075         27.5412         2.97436 
        2.38689         27.4423         2.95543 
        2.39303         27.3291         2.93667 
        2.39916         27.1399         2.91809 
        2.40529         27.0929         2.89968 
        2.41143         26.9947         2.88141 
        2.41757         26.8905         2.86328 
         2.4237         26.7721         2.84535 
        2.42983         26.5935         2.82757 
        2.43598         26.5334          2.8099 
        2.44211         26.3976         2.79241 
        2.44823         26.3046         2.77511 
        2.45437         26.2449          2.7579 
        2.46052         26.0701         2.74083 
        2.46665         26.0257         2.72393 
        2.47279         25.8384         2.70718 
        2.47892         25.7954         2.69056 
        2.48507         25.6924         2.67407 
         2.4912         25.5649         2.65774 
