# k  (h/Mpc)    P(k)  (Mpc/h)^3    P_linear(k)  (Mpc/h)^3
     0.00783031         11522.5         11608.6 
       0.013688         14650.9         15037.5 
       0.019231         15522.3         15769.8 
      0.0249154         14990.6         15011.4 
      0.0312784         13166.3         13335.2 
      0.0375637         11331.3         11564.1 
      0.0433917         10084.9         10180.6 
      0.0492413         8981.44          9146.6 
      0.0555754         8280.91         8376.88 
      0.0619321         7505.49         7830.26 
       0.067871         7173.92          7384.7 
      0.0738098         6750.36         6904.31 
      0.0800417         6193.41          6322.1 
      0.0862327         5552.76         5687.41 
      0.0921407         5000.81         5087.02 
      0.0982031         4535.88         4537.93 
       0.104506          4040.4         4082.12 
       0.110769         3742.79         3755.23 
       0.116806         3590.81         3539.79 
       0.122832         3391.32         3386.43 
       0.129052         3241.04         3250.45 
       0.135211         3150.04         3102.97 
       0.141259         2931.36         2928.12 
       0.147318          2710.3         2724.76 
       0.153489          2542.2         2505.18 
       0.159709         2416.94         2294.09 
       0.165845         2198.83         2114.86 
       0.171974         2136.76         1974.19 
       0.178125         2061.96          1870.7 
       0.184229         1912.88         1796.41 
        0.19034         1888.66         1737.16 
       0.196428         1838.28         1679.93 
       0.202534         1729.37         1614.67 
       0.208729         1695.63         1536.61 
       0.214876         1621.14         1449.76 
       0.220989         1529.26         1360.67 
       0.227147         1487.14          1275.9 
        0.23329          1427.2          1202.3 
       0.239377         1413.19         1142.91 
       0.245482          1345.8         1096.23 
       0.251667         1297.97         1058.74 
       0.257832         1281.87         1026.37 
       0.263955         1222.79         994.634 
       0.270079         1189.54         960.172 
        0.27624         1140.51         921.667 
       0.282372          1123.9         880.556 
        0.28843         1108.57         839.364 
       0.294538         1054.96         799.867 
       0.300721         1031.44         763.991 
        0.30691          1010.2         733.238 
       0.313033         969.934         707.654 
       0.319153          958.56         685.742 
       0.325316         945.942         665.736 
        0.33145          926.66         646.316 
       0.337538         895.516         626.394 
       0.343633         873.492         605.469 
       0.349808         855.508         583.484 
       0.355968         839.849         561.564 
       0.362074         813.317         540.672 
       0.368217          810.84         521.258 
       0.374374         798.282         503.755 
       0.380519         769.159         488.198 
       0.386598         763.693         474.355 
       0.392688         746.643         461.443 
        0.39888         728.591          448.77 
       0.405048         716.064         436.193 
       0.411186         713.987         423.489 
       0.417313         709.537         410.739 
       0.423458          687.45         398.065 
       0.429607         669.076         385.776 
       0.435692         662.275         374.286 
       0.441815         650.467         363.524 
       0.447964         640.884         353.503 
       0.454126         633.212         344.189 
       0.460267         623.874         335.435 
       0.466387         614.343         327.019 
        0.47254         604.271          318.72 
       0.478662         594.541         310.571 
       0.484765         588.826         302.519 
       0.490885         582.466         294.563 
       0.497035         571.585         286.797 
       0.503198           571.2         279.341 
       0.509342         559.483         272.265 
       0.515458         549.209         265.575 
       0.521598         544.544         259.209 
       0.527764         533.975         253.115 
       0.533884         530.677         247.287 
           0.54         524.995          241.61 
       0.546137         515.995         236.025 
       0.552299          514.68         230.537 
       0.558452         507.409         225.187 
       0.564573         502.502         220.003 
       0.570708         497.669         214.962 
       0.576825         487.973         210.113 
       0.582926         485.936         205.469 
       0.589034         478.895         201.011 
       0.595184         475.103         196.688 
       0.601379         467.824         192.475 
       0.607522         460.061          188.41 
       0.613639         458.875          184.46 
       0.619772         456.853         180.598 
       0.625918         448.778         176.829 
       0.632068         445.466         173.158 
       0.638161          441.37         169.622 
         0.6443         436.652         166.161 
       0.650464         431.979         162.788 
       0.656582         428.479         159.541 
       0.662703         424.831         156.394 
       0.668861         418.943         153.323 
       0.675024         416.317          150.34 
       0.681124         410.756         147.468 
       0.687237         408.868         144.663 
       0.693381          403.47         141.912 
       0.699536         401.495         139.222 
       0.705665         397.053         136.608 
       0.711789         395.672         134.062 
       0.717957         390.045         131.564 
        0.72409         386.181         129.148 
       0.730186         387.997         126.811 
       0.736317         381.037         124.525 
       0.742472         377.465          122.29 
       0.748622          374.38         120.114 
        0.75476         372.523         117.996 
       0.760888         369.167         115.932 
       0.767043          366.19         113.908 
       0.773185         364.115         111.935 
       0.779291          359.06          110.02 
       0.785407         357.563         108.145 
       0.791564         354.445         106.303 
       0.797719         349.128         104.505 
       0.803834          351.72         102.761 
       0.809972         346.223         101.051 
       0.816124         342.673         99.3784 
       0.822261         339.948         97.7489 
       0.828378         339.008         96.1617 
       0.834502          333.86         94.6091 
       0.840667         334.096         93.0813 
       0.846816         328.407          91.592 
       0.852925         328.857          90.145 
       0.859047         325.784         88.7264 
       0.865192         324.727         87.3338 
       0.871341         320.259         85.9704 
       0.877463         317.936         84.6425 
       0.883569         316.137         83.3462 
       0.889708         313.344         82.0707 
       0.895864         310.737         80.8189 
       0.902008         309.065         79.5961 
       0.908149         306.542         78.3996 
       0.914301         304.898          77.226 
       0.920448         303.048         76.0778 
       0.926574         300.908         74.9573 
       0.932687         299.325          73.862 
       0.938823         296.248         72.7848 
       0.944975         295.379         71.7269 
       0.951105         292.521          70.694 
       0.957225         289.494         69.6835 
       0.963368           289.8         68.6894 
       0.969511         284.411         67.7149 
       0.975621         283.887         66.7647 
       0.981748         282.549         65.8305 
       0.987916         280.991         64.9084 
        0.99406         278.481         64.0076 
        1.00019         276.277         63.1259 
        1.00632         275.854         62.2617 
        1.01246         273.555         61.4125 
        1.01859         270.451         60.5808 
        1.02471         268.755         59.7656 
        1.03085         267.996         58.9627 
        1.03698         266.279         58.1764 
        1.04314         265.606         57.4012 
        1.04929         263.677         56.6421 
        1.05541         261.067         55.8999 
        1.06154         259.438         55.1693 
        1.06769         257.227         54.4508 
        1.07382         256.776         53.7476 
        1.07993         254.058         53.0585 
        1.08607         252.534         52.3788 
        1.09222         250.993         51.7104 
        1.09836         250.248         51.0545 
        1.10449         248.145         50.4109 
        1.11063         246.272         49.7778 
        1.11677         244.613         49.1559 
         1.1229         243.535         48.5458 
        1.12903         242.012         47.9456 
        1.13518         240.227         47.3552 
        1.14131         239.565         46.7751 
        1.14745         236.803         46.2051 
        1.15359         235.061         45.6447 
        1.15973         234.458         45.0933 
        1.16584         233.255         44.5537 
        1.17197         231.604         44.0221 
        1.17811          229.73         43.4977 
        1.18424         228.503         42.9834 
        1.19038         227.342          42.476 
        1.19652         224.856          41.977 
        1.20267         224.364         41.4861 
        1.20881         222.613         41.0032 
        1.21495         222.341         40.5288 
        1.22108         220.521         40.0621 
         1.2272         218.314         39.6039 
        1.23334         217.668         39.1518 
        1.23949         216.734         38.7058 
        1.24562         215.143          38.268 
        1.25174         213.795         37.8377 
        1.25789         211.959         37.4127 
        1.26402         211.814         36.9951 
        1.27014         210.886         36.5849 
        1.27628         208.447         36.1797 
        1.28244         207.571           35.78 
        1.28858         206.251         35.3869 
        1.29471         205.264         35.0005 
        1.30084         203.999         34.6204 
        1.30697         202.272         34.2454 
        1.31312         201.212         33.8754 
        1.31925         200.038         33.5121 
        1.32537         199.429         33.1545 
        1.33151         198.113         32.8009 
        1.33765         196.526         32.4527 
        1.34378         195.738         32.1103 
        1.34992         194.457         31.7727 
        1.35606         193.365         31.4392 
         1.3622         192.357         31.1111 
        1.36833          190.64         30.7885 
        1.37445         190.623         30.4707 
        1.38059         188.705         30.1564 
        1.38675         187.593         29.8459 
        1.39288         186.503         29.5409 
        1.39901         185.416         29.2405 
        1.40515         184.721         28.9435 
         1.4113         183.215         28.6508 
        1.41742         181.804         28.3633 
        1.42355          182.15         28.0793 
         1.4297          180.32         27.7983 
        1.43585         179.459         27.5212 
        1.44198         177.682         27.2491 
        1.44809         177.051         26.9811 
        1.45423         176.324         26.7158 
        1.46036         175.018         26.4546 
        1.46649         173.981         26.1968 
        1.47263          173.43         25.9422 
        1.47877         172.061         25.6911 
        1.48491         170.773          25.443 
        1.49104         169.259         25.1987 
        1.49718         168.972         24.9574 
        1.50333         167.864          24.719 
        1.50947         167.013         24.4841 
         1.5156         165.921         24.2527 
        1.52172         165.275         24.0243 
        1.52787         164.266         23.7984 
          1.534         163.295         23.5757 
        1.54013         162.396          23.356 
        1.54627         161.377         23.1388 
        1.55241         160.767         22.9244 
        1.55855         160.006          22.713 
        1.56467         158.746         22.5048 
         1.5708         157.527         22.2987 
        1.57695         157.052         22.0949 
        1.58308         155.865         21.8941 
        1.58922         155.342         21.6957 
        1.59535         154.158         21.4998 
         1.6015         153.276         21.3061 
        1.60764         152.354         21.1149 
        1.61376          151.44         20.9265 
        1.61989         150.747         20.7403 
        1.62604         149.594          20.556 
        1.63218         149.015         20.3741 
        1.63831         148.115         20.1948 
        1.64444         147.103         20.0176 
        1.65059         146.451         19.8421 
        1.65673         145.655         19.6689 
        1.66285         145.145         19.4983 
        1.66898         143.941         19.3297 
        1.67512         143.259         19.1627 
        1.68127         142.495         18.9976 
         1.6874         141.481         18.8348 
        1.69353         141.063          18.674 
        1.69967         139.934         18.5147 
        1.70581         139.515         18.3573 
        1.71193         138.408         18.2024 
        1.71806         137.342          18.049 
        1.72421         136.981          17.897 
        1.73035         136.189         17.7469 
        1.73649         135.097         17.5986 
        1.74262         134.852         17.4522 
        1.74876         133.895         17.3073 
        1.75489         133.268         17.1643 
        1.76101          132.32         17.0231 
        1.76715         131.382         16.8832 
        1.77329         130.874         16.7447 
        1.77943         129.889         16.6078 
        1.78557         129.532         16.4726 
        1.79171         128.819         16.3388 
        1.79785         127.686         16.2066 
        1.80399         127.244         16.0758 
        1.81012         126.193         15.9467 
        1.81625         125.912          15.819 
        1.82239         125.124         15.6926 
        1.82853          124.51         15.5676 
        1.83466         123.568         15.4441 
        1.84078         123.149         15.3221 
        1.84692         122.753         15.2012 
        1.85306          121.73         15.0814 
         1.8592         121.235         14.9632 
        1.86533         120.236         14.8463 
        1.87147         119.984         14.7305 
        1.87761         118.936         14.6159 
        1.88375         118.152         14.5027 
        1.88988         117.508         14.3908 
        1.89601         117.296           14.28 
        1.90215         116.757         14.1703 
        1.90829         115.613         14.0618 
        1.91442         114.835         13.9544 
        1.92056         114.448         13.8483 
         1.9267         113.753         13.7432 
        1.93284         113.115         13.6391 
        1.93897         112.591         13.5363 
        1.94509         111.955         13.4347 
        1.95123         111.368          13.334 
        1.95737         110.908         13.2342 
        1.96349          110.28         13.1357 
        1.96964         109.528         13.0379 
        1.97578         108.972         12.9411 
        1.98192         108.557         12.8455 
        1.98805         107.818         12.7508 
        1.99419         107.127         12.6571 
        2.00033         106.594         12.5643 
        2.00647         106.115         12.4724 
         2.0126         105.494         12.3816 
        2.01874         105.303         12.2916 
        2.02488         104.211         12.2024 
        2.03101         103.882         12.1143 
        2.03714         103.211         12.0271 
        2.04328         102.859         11.9406 
        2.04941         102.364         11.8552 
        2.05554         101.705         11.7706 
        2.06167         100.842         11.6867 
        2.06781         100.355         11.6036 
        2.07396          99.991         11.5212 
        2.08009         99.1455         11.4398 
        2.08622         98.9445         11.3592 
        2.09237         98.3172         11.2793 
        2.09851         97.7416         11.2002 
        2.10464         97.4151         11.1219 
        2.11077         96.7768         11.0444 
        2.11691         96.4708         10.9676 
        2.12305         95.7859         10.8915 
        2.12918         95.2716         10.8162 
        2.13531         94.7413         10.7417 
        2.14145         94.1636         10.6677 
         2.1476         93.7958         10.5944 
        2.15372         93.1862         10.5221 
        2.15985         92.7093         10.4503 
        2.16599         92.0953         10.3791 
        2.17213         91.7612         10.3086 
        2.17827         91.0657         10.2388 
         2.1844         90.8152         10.1697 
        2.19054         90.2622         10.1012 
        2.19666         89.7948         10.0334 
         2.2028         89.3986         9.96625 
        2.20893         88.8842         9.89964 
        2.21508         88.3541         9.83357 
        2.22122         87.8558         9.76808 
        2.22736         87.6051         9.70332 
        2.23349          86.938         9.63917 
        2.23962         86.5434         9.57557 
        2.24577         86.1371         9.51249 
         2.2519         85.6049         9.45007 
        2.25802         85.1225         9.38831 
        2.26417         84.6801         9.32693 
        2.27031         84.1626         9.26604 
        2.27644         83.8293         9.20588 
        2.28257         83.3799         9.14626 
        2.28872         82.9853         9.08705 
        2.29486         82.7575         9.02839 
        2.30099         81.9607         8.97036 
        2.30712         81.7574         8.91282 
        2.31326         81.3413         8.85569 
         2.3194         80.7648         8.79909 
        2.32553         80.3442         8.74309 
        2.33166         79.8773          8.6876 
         2.3378         79.7362         8.63252 
        2.34394          79.267          8.5779 
        2.35007         78.6319         8.52383 
        2.35619          78.391         8.47029 
        2.36233         77.9753         8.41709 
        2.36848         77.4793         8.36424 
        2.37462         77.1269         8.31196 
        2.38075         76.6974         8.26017 
        2.38689         76.3676         8.20879 
        2.39303         75.9854         8.15785 
        2.39916         75.5443          8.1074 
        2.40529         75.2652         8.05738 
        2.41143         74.8652         8.00775 
        2.41757         74.3843         7.95852 
         2.4237         73.9531         7.90979 
        2.42983         73.6028         7.86147 
        2.43598         73.3661         7.81344 
        2.44211         72.8399         7.76588 
        2.44823         72.6428         7.71883 
        2.45437         72.1971         7.67204 
        2.46052         71.7741          7.6256 
        2.46665         71.2661         7.57963 
        2.47279         71.0293         7.53405 
        2.47892         70.6668         7.48882 
        2.48507         70.3134         7.44393 
         2.4912         69.9405         7.39948 
