# k  (h/Mpc)    P(k)  (Mpc/h)^3    P_linear(k)  (Mpc/h)^3
     0.00783031         196.708         198.249 
       0.013688         254.545         256.453 
       0.019231         271.774          272.54 
      0.0249154         265.284         265.579 
      0.0312784         243.522         243.731 
      0.0375637         217.969         218.153 
      0.0433917         196.711         196.418 
      0.0492413         178.643         178.631 
      0.0555754         164.271         163.909 
      0.0619321         152.034         152.484 
       0.067871         143.183         143.201 
      0.0738098         133.989         133.992 
      0.0800417         123.871          123.73 
      0.0862327         112.991         113.005 
      0.0921407         102.828         102.844 
      0.0982031         93.3842         93.2231 
       0.104506         84.5922         84.6935 
       0.110769         77.8991         77.9561 
       0.116806         73.1479         72.9729 
       0.122832         69.0584         69.0935 
       0.129052         65.8081           65.72 
       0.135211         62.6791         62.5262 
       0.141259         59.2407          59.223 
       0.147318         55.5358         55.6566 
       0.153489         51.8758         51.8645 
       0.159709         48.2034         48.1108 
       0.165845         44.5963         44.7155 
       0.171974         41.9468         41.7969 
       0.178125         39.5334         39.3962 
       0.184229         37.5178         37.4819 
        0.19034         36.0754         35.9018 
       0.196428         34.6249         34.5025 
       0.202534         33.0935         33.1315 
       0.208729         31.7693           31.68 
       0.214876         30.3365         30.1548 
       0.220989         28.5914         28.5898 
       0.227147         27.2474          27.037 
        0.23329         25.8222         25.5885 
       0.239377         24.5585         24.3078 
       0.245482         23.4358         23.1984 
       0.251667         22.3974         22.2402 
       0.257832         21.6636         21.4115 
       0.263955         20.8394         20.6621 
       0.270079         20.1172          19.939 
        0.27624         19.3161         19.2065 
       0.282372         18.5874           18.46 
        0.28843          17.946         17.7137 
       0.294538          17.184         16.9715 
       0.300721         16.4088         16.2552 
        0.30691          15.835         15.5922 
       0.313033         15.2171         14.9993 
       0.319153         14.7834         14.4678 
       0.325316         14.1628         13.9835 
        0.33145         13.7154         13.5371 
       0.337538         13.3199         13.1139 
       0.343633         12.9319         12.6981 
       0.349808         12.4888           12.28 
       0.355968         12.0665         11.8651 
       0.362074         11.7036         11.4616 
       0.368217         11.3018         11.0697 
       0.374374         10.9905         10.6974 
       0.380519         10.5815         10.3502 
       0.386598         10.2419         10.0308 
       0.392688         9.93545          9.7331 
        0.39888         9.67617         9.44822 
       0.405048         9.41241         9.17757 
       0.411186         9.14259         8.91715 
       0.417313          8.8959         8.66281 
       0.423458         8.61301           8.413 
       0.429607         8.41225         8.16889 
       0.435692         8.19169         7.93452 
       0.441815         7.93323          7.7078 
       0.447964         7.69173         7.49082 
       0.454126         7.52006          7.2842 
       0.460267         7.36001         7.08886 
       0.466387         7.15296         6.90361 
        0.47254         6.98769         6.72505 
       0.478662         6.80381         6.55355 
       0.484765         6.64209         6.38779 
       0.490885         6.46462         6.22609 
       0.497035         6.28588         6.06778 
       0.503198         6.15259         5.91379 
       0.509342         5.98493         5.76534 
       0.515458         5.86304         5.62293 
       0.521598         5.72674         5.48535 
       0.527764         5.61443          5.3526 
       0.533884         5.45034         5.22605 
           0.54          5.3403         5.10422 
       0.546137         5.20186         4.98603 
       0.552299         5.09761         4.87094 
       0.558452         4.98733         4.75941 
       0.564573         4.88626         4.65164 
       0.570708          4.7786         4.54668 
       0.576825         4.67586         4.44505 
       0.582926         4.56797         4.34676 
       0.589034         4.48883         4.25146 
       0.595184         4.40405         4.15866 
       0.601379         4.29653         4.06828 
       0.607522         4.20694         3.98148 
       0.613639         4.10737         3.89765 
       0.619772         4.04416         3.81605 
       0.625918         3.96159          3.7366 
       0.632068         3.88736         3.65934 
       0.638161         3.80984          3.5849 
         0.6443         3.73293         3.51194 
       0.650464         3.65754         3.44071 
       0.656582         3.60426         3.37195 
       0.662703         3.53465         3.30509 
       0.668861         3.44832         3.23973 
       0.675024         3.39053         3.17617 
       0.681124         3.36127         3.11503 
       0.687237         3.28105         3.05543 
       0.693381         3.20379         2.99712 
       0.699536         3.16897         2.94022 
       0.705665         3.10951         2.88501 
       0.711789         3.04199         2.83126 
       0.717957         2.99022         2.77851 
        0.72409         2.93979          2.7274 
       0.730186         2.90202          2.6779 
       0.736317         2.84131         2.62938 
       0.742472         2.80089         2.58192 
       0.748622         2.75635         2.53569 
        0.75476         2.69773         2.49071 
       0.760888         2.66526         2.44691 
       0.767043         2.59629         2.40399 
       0.773185         2.56577         2.36219 
       0.779291         2.53843         2.32162 
       0.785407         2.49013         2.28195 
       0.791564         2.45105         2.24297 
       0.797719         2.40896         2.20492 
       0.803834         2.37037           2.168 
       0.809972         2.33431         2.13181 
       0.816124          2.2981         2.09637 
       0.822261         2.26507         2.06184 
       0.828378         2.22535          2.0282 
       0.834502         2.19351         1.99529 
       0.840667         2.16556         1.96291 
       0.846816         2.13051         1.93134 
       0.852925         2.09308         1.90067 
       0.859047         2.06402          1.8706 
       0.865192         2.03526         1.84109 
       0.871341         2.00765          1.8122 
       0.877463         1.97217         1.78406 
       0.883569         1.94538          1.7566 
       0.889708         1.92224         1.72958 
       0.895864         1.89483         1.70306 
       0.902008          1.8625         1.67715 
       0.908149         1.83992         1.65181 
       0.914301          1.8189         1.62695 
       0.920448         1.79291         1.60262 
       0.926574         1.77346         1.57889 
       0.932687         1.74593         1.55569 
       0.938823         1.71561         1.53287 
       0.944975         1.69794         1.51046 
       0.951105         1.66722         1.48859 
       0.957225         1.64685         1.46719 
       0.963368         1.62968         1.44614 
       0.969511         1.61071          1.4255 
       0.975621         1.58538         1.40538 
       0.981748         1.55776          1.3856 
       0.987916         1.54061         1.36608 
        0.99406         1.52578         1.34701 
        1.00019         1.50434         1.32835 
        1.00632         1.49051         1.31005 
        1.01246         1.46895         1.29208 
        1.01859         1.45093         1.27448 
        1.02471         1.42695         1.25722 
        1.03085         1.40959         1.24023 
        1.03698         1.39625         1.22359 
        1.04314         1.37951         1.20719 
        1.04929         1.36552         1.19113 
        1.05541         1.34196         1.17542 
        1.06154         1.33026         1.15996 
        1.06769         1.31569         1.14476 
        1.07382         1.29857         1.12988 
        1.07993          1.2832         1.11531 
        1.08607         1.26843         1.10093 
        1.09222         1.25057         1.08679 
        1.09836         1.23922         1.07291 
        1.10449          1.2209          1.0593 
        1.11063         1.20682         1.04591 
        1.11677         1.19648         1.03275 
         1.1229         1.17741         1.01985 
        1.12903         1.16853         1.00715 
        1.13518         1.15257        0.994662 
        1.14131         1.14188        0.982394 
        1.14745         1.13133         0.97034 
        1.15359          1.1162        0.958487 
        1.15973         1.10533        0.946828 
        1.16584         1.09057        0.935417 
        1.17197         1.07807        0.924178 
        1.17811           1.066         0.91309 
        1.18424         1.05459        0.902217 
        1.19038         1.04176        0.891491 
        1.19652         1.03524        0.880944 
        1.20267         1.02456        0.870568 
        1.20881         1.00864        0.860363 
        1.21495         1.00029        0.850337 
        1.22108        0.990478        0.840474 
         1.2272        0.976978        0.830792 
        1.23334        0.968516         0.82124 
        1.23949        0.960725        0.811817 
        1.24562        0.949702        0.802568 
        1.25174         0.93949        0.793478 
        1.25789        0.927378        0.784501 
        1.26402        0.919148         0.77568 
        1.27014        0.907729        0.767016 
        1.27628         0.90156         0.75846 
        1.28244        0.892953        0.750017 
        1.28858        0.881326        0.741716 
        1.29471        0.872892        0.733558 
        1.30084        0.864819        0.725531 
        1.30697        0.858735        0.717613 
        1.31312        0.849368        0.709802 
        1.31925        0.840568        0.702132 
        1.32537        0.832793        0.694584 
        1.33151        0.823799         0.68712 
        1.33765        0.815975         0.67977 
        1.34378        0.806134        0.672543 
        1.34992        0.802386        0.665416 
        1.35606         0.79252        0.658377 
         1.3622        0.785599        0.651453 
        1.36833        0.779159        0.644645 
        1.37445        0.772062        0.637938 
        1.38059        0.764054        0.631306 
        1.38675        0.756253        0.624753 
        1.39288        0.748208         0.61832 
        1.39901        0.743344         0.61198 
        1.40515        0.735497        0.605715 
         1.4113        0.731371         0.59954 
        1.41742        0.722813        0.593476 
        1.42355        0.713858        0.587484 
         1.4297        0.711053        0.581557 
        1.43585        0.702375        0.575714 
        1.44198        0.697201        0.569975 
        1.44809        0.689701        0.564324 
        1.45423        0.685174         0.55873 
        1.46036        0.678487        0.553222 
        1.46649        0.671945        0.547786 
        1.47263        0.665101        0.542419 
        1.47877        0.662972        0.537127 
        1.48491        0.653012        0.531897 
        1.49104        0.651039        0.526748 
        1.49718        0.643178        0.521663 
        1.50333        0.638955        0.516638 
        1.50947        0.634096         0.51169 
         1.5156        0.627749        0.506813 
        1.52172        0.623237        0.502001 
        1.52787        0.615774        0.497242 
          1.534        0.612802         0.49255 
        1.54013        0.607438        0.487923 
        1.54627        0.602111        0.483348 
        1.55241        0.596264        0.478831 
        1.55855        0.591809        0.474378 
        1.56467        0.587382        0.469994 
         1.5708        0.581728        0.465654 
        1.57695        0.576826        0.461361 
        1.58308        0.570341        0.457133 
        1.58922        0.568266        0.452954 
        1.59535         0.56227         0.44883 
         1.6015        0.558113        0.444751 
        1.60764        0.553663        0.440725 
        1.61376        0.549159         0.43676 
        1.61989        0.544587        0.432841 
        1.62604        0.539934        0.428961 
        1.63218        0.537013        0.425131 
        1.63831        0.531424        0.421357 
        1.64444        0.527822        0.417627 
        1.65059        0.522962        0.413933 
        1.65673        0.519307        0.410289 
        1.66285        0.516076        0.406699 
        1.66898        0.511414         0.40315 
        1.67512        0.506878        0.399637 
        1.68127        0.502524        0.396163 
         1.6874        0.499767        0.392738 
        1.69353         0.49572        0.389355 
        1.69967        0.491583        0.386005 
        1.70581        0.488799        0.382695 
        1.71193        0.485362        0.379437 
        1.71806        0.481242         0.37621 
        1.72421         0.47736        0.373014 
        1.73035         0.47299        0.369859 
        1.73649        0.471453        0.366741 
        1.74262        0.466126        0.363661 
        1.74876        0.463754        0.360615 
        1.75489        0.460427        0.357611 
        1.76101        0.456165        0.354641 
        1.76715         0.45352        0.351701 
        1.77329        0.449776        0.348791 
        1.77943        0.446331        0.345913 
        1.78557        0.444576        0.343071 
        1.79171        0.440941        0.340261 
        1.79785        0.437082        0.337482 
        1.80399        0.433091        0.334735 
        1.81012         0.43117        0.332021 
        1.81625        0.428669         0.32934 
        1.82239        0.425759        0.326683 
        1.82853        0.421834        0.324058 
        1.83466        0.418728        0.321463 
        1.84078        0.415493          0.3189 
        1.84692        0.413001        0.316361 
        1.85306        0.410402        0.313846 
         1.8592         0.40736        0.311363 
        1.86533        0.405085        0.308907 
        1.87147        0.401509        0.306476 
        1.87761         0.39879         0.30407 
        1.88375        0.396068        0.301692 
        1.88988        0.393097        0.299342 
        1.89601        0.389579        0.297016 
        1.90215          0.3879        0.294713 
        1.90829        0.384639        0.292436 
        1.91442        0.382966        0.290182 
        1.92056         0.38109        0.287955 
         1.9267        0.377466        0.285748 
        1.93284        0.374545        0.283563 
        1.93897        0.372851        0.281406 
        1.94509        0.370408        0.279275 
        1.95123        0.367227        0.277161 
        1.95737        0.365142        0.275068 
        1.96349        0.362647        0.273001 
        1.96964        0.360129         0.27095 
        1.97578        0.357522        0.268919 
        1.98192         0.35602        0.266913 
        1.98805        0.353827        0.264927 
        1.99419        0.351852        0.262961 
        2.00033        0.349122        0.261014 
        2.00647        0.346637        0.259088 
         2.0126        0.344761        0.257184 
        2.01874        0.342764        0.255297 
        2.02488        0.340353        0.253426 
        2.03101        0.337783        0.251578 
        2.03714        0.336769        0.249751 
        2.04328        0.333488        0.247939 
        2.04941        0.332235        0.246147 
        2.05554        0.330118        0.244374 
        2.06167        0.327822        0.242615 
        2.06781        0.324666        0.240874 
        2.07396         0.32371        0.239148 
        2.08009        0.321559        0.237441 
        2.08622        0.319885        0.235754 
        2.09237         0.31768        0.234079 
        2.09851        0.315317         0.23242 
        2.10464         0.31366         0.23078 
        2.11077        0.311451        0.229158 
        2.11691        0.310026        0.227547 
        2.12305        0.307552        0.225953 
        2.12918        0.305857        0.224377 
        2.13531        0.304458        0.222816 
        2.14145        0.302329        0.221267 
         2.1476        0.300853         0.21973 
        2.15372        0.298986        0.218216 
        2.15985        0.296805        0.216714 
        2.16599        0.295139        0.215222 
        2.17213        0.293724        0.213747 
        2.17827        0.291652        0.212285 
         2.1844        0.290365        0.210838 
        2.19054        0.288779        0.209404 
        2.19666         0.28707        0.207985 
         2.2028          0.2846        0.206579 
        2.20893        0.283531        0.205185 
        2.21508        0.281839        0.203802 
        2.22122        0.280594        0.202431 
        2.22736        0.278285        0.201076 
        2.23349        0.276544        0.199733 
        2.23962         0.27514        0.198402 
        2.24577        0.273916        0.197082 
         2.2519        0.272347        0.195776 
        2.25802        0.270689        0.194484 
        2.26417        0.269402          0.1932 
        2.27031        0.267544        0.191926 
        2.27644        0.266925        0.190668 
        2.28257        0.264903        0.189421 
        2.28872        0.263406        0.188182 
        2.29486        0.261948        0.186955 
        2.30099        0.260304        0.185742 
        2.30712        0.258976        0.184538 
        2.31326        0.257294        0.183344 
         2.3194        0.256315         0.18216 
        2.32553        0.254884        0.180989 
        2.33166        0.253469        0.179829 
         2.3378        0.251999        0.178677 
        2.34394         0.25071        0.177535 
        2.35007        0.249302        0.176405 
        2.35619        0.248111        0.175286 
        2.36233        0.246346        0.174174 
        2.36848        0.245348        0.173069 
        2.37462        0.244441        0.171977 
        2.38075        0.242873        0.170894 
        2.38689        0.241708         0.16982 
        2.39303        0.240277        0.168756 
        2.39916        0.238844        0.167702 
        2.40529        0.237798        0.166657 
        2.41143        0.236003         0.16562 
        2.41757        0.235079        0.164591 
         2.4237        0.233991        0.163573 
        2.42983        0.233311        0.162564 
        2.43598        0.231543         0.16156 
        2.44211        0.229665        0.160567 
        2.44823        0.229486        0.159584 
        2.45437        0.228118        0.158607 
        2.46052        0.226956        0.157637 
        2.46665        0.225566        0.156677 
        2.47279        0.224344        0.155726 
        2.47892        0.223727        0.154781 
        2.48507         0.22215        0.153844 
         2.4912        0.221405        0.152916 
