# k  (h/Mpc)    Pcb(k)  (Mpc/h)^3    Pcb_linear(k)  (Mpc/h)^3
     0.00783031         4731.34         4788.75 
       0.013688         5547.87         5533.24 
       0.019231         5251.68         5240.65 
      0.0249154         4473.49         4512.44 
      0.0312784         3629.23         3631.06 
      0.0375637         2953.67          2936.5 
      0.0433917          2497.8         2503.44 
      0.0492413         2239.89         2236.06 
      0.0555754         2036.76         2056.86 
      0.0619321          1922.6         1909.34 
       0.067871         1738.27         1750.51 
      0.0738098         1549.47         1559.24 
      0.0800417         1330.93         1342.88 
      0.0862327         1145.17          1144.6 
      0.0921407         1004.02         994.279 
      0.0982031         891.383          887.41 
       0.104506         836.746         820.144 
       0.110769         792.271         780.638 
       0.116806          754.42         749.883 
       0.122832         720.212         712.233 
       0.129052         661.115         659.897 
       0.135211         601.981         597.681 
       0.141259         547.812         535.111 
       0.147318         496.726         479.766 
       0.153489         450.528         436.417 
       0.159709         422.759           406.8 
       0.165845          407.07          388.24 
       0.171974         388.312         375.035 
       0.178125         374.834         361.839 
       0.184229         358.774         345.288 
        0.19034         332.202         324.455 
       0.196428           315.3         301.052 
       0.202534         296.895         277.737 
       0.208729         275.109         256.922 
       0.214876         257.376         240.576 
       0.220989          247.61         228.603 
       0.227147         235.745         219.733 
        0.23329         227.523          212.39 
       0.239377         221.449         205.041 
       0.245482          208.13         196.633 
       0.251667         202.422         186.888 
       0.257832         192.993         176.508 
       0.263955         183.346          166.42 
       0.270079         174.469         157.329 
        0.27624          169.38         149.646 
       0.282372         162.957         143.428 
        0.28843         156.573         138.349 
       0.294538         150.397         133.777 
       0.300721         147.702         129.222 
        0.30691         140.919         124.426 
       0.313033         136.352         119.395 
       0.319153         129.661         114.243 
       0.325316         126.621          109.19 
        0.33145         121.261         104.536 
       0.337538          118.36         100.427 
       0.343633         113.963         96.8172 
       0.349808          110.47          93.582 
       0.355968          107.93         90.5988 
       0.362074         104.607         87.7402 
       0.368217         101.364         84.8579 
       0.374374         98.1453         81.9343 
       0.380519         95.7502         79.0297 
       0.386598         92.9145          76.232 
       0.392688         90.8984         73.5822 
        0.39888         88.1996         71.0921 
       0.405048         85.8566         68.8119 
       0.411186         83.8107         66.7205 
       0.417313         81.4278         64.7584 
       0.423458         79.3875         62.8614 
       0.429607         77.3538         61.0054 
       0.435692         74.6945         59.1986 
       0.441815         73.7473         57.4104 
       0.447964         72.3547         55.6671 
       0.454126         69.0735         53.9975 
       0.460267          68.145         52.4207 
       0.466387         66.5621         50.9356 
        0.47254         65.2483         49.5257 
       0.478662         64.3157         48.1922 
       0.484765         62.3132         46.9125 
       0.490885         61.0338         45.6655 
       0.497035          60.223          44.445 
       0.503198         58.4543         43.2569 
       0.509342         57.0373         42.1082 
       0.515458         55.9808         41.0038 
       0.521598         55.0715         39.9381 
       0.527764         54.0313         38.9149 
       0.533884         53.1545         37.9436 
           0.54         51.9008         37.0113 
       0.546137          51.248         36.1077 
       0.552299         50.4249         35.2281 
       0.558452         48.9894         34.3764 
       0.564573         48.1082         33.5549 
       0.570708          47.391         32.7568 
       0.576825         46.4978         31.9862 
       0.582926         45.4566         31.2424 
       0.589034         44.4448         30.5223 
       0.595184         43.8728         29.8221 
       0.601379         43.1204         29.1414 
       0.607522         42.1279         28.4889 
       0.613639          41.885         27.8598 
       0.619772         40.8645         27.2479 
       0.625918         40.4905         26.6522 
       0.632068         39.9176         26.0728 
       0.638161         39.2091         25.5152 
         0.6443         38.5182         24.9698 
       0.650464         37.9009         24.4388 
       0.656582         37.5354         23.9277 
       0.662703         36.7573          23.432 
       0.668861          36.193          22.948 
       0.675024         35.6464         22.4777 
       0.681124         35.0338         22.0254 
       0.687237         34.3988         21.5846 
       0.693381         34.1199         21.1535 
       0.699536         33.3677         20.7333 
       0.705665         33.4237         20.3262 
       0.711789         32.5322         19.9305 
       0.717957         32.1315         19.5426 
        0.72409         31.7091         19.1674 
       0.730186         31.2002         18.8045 
       0.736317         30.9674         18.4491 
       0.742472          30.425         18.1018 
       0.748622         30.1306         17.7639 
        0.75476         29.6859         17.4354 
       0.760888         29.1989         17.1158 
       0.767043         28.8442         16.8029 
       0.773185         28.4224         16.4985 
       0.779291          28.273         16.2034 
       0.785407         27.9913         15.9152 
       0.791564         27.5037         15.6321 
       0.797719         26.8968         15.3562 
       0.803834         26.8501         15.0886 
       0.809972          26.495         14.8266 
       0.816124         26.0211         14.5702 
       0.822261         25.7779         14.3206 
       0.828378         25.6055         14.0777 
       0.834502         25.2943         13.8402 
       0.840667         24.9812         13.6067 
       0.846816         24.5543         13.3794 
       0.852925         24.3442         13.1586 
       0.859047         24.0496         12.9425 
       0.865192          23.798         12.7305 
       0.871341         23.6754         12.5231 
       0.877463         23.2161         12.3214 
       0.883569         22.9781         12.1246 
       0.889708         22.7274         11.9312 
       0.895864         22.4954         11.7415 
       0.902008         22.3063         11.5563 
       0.908149         22.0679         11.3753 
       0.914301         21.9931         11.1979 
       0.920448         21.6111         11.0245 
       0.926574         21.3993         10.8553 
       0.932687           21.17         10.6901 
       0.938823         20.8806         10.5277 
       0.944975         20.7399         10.3684 
       0.951105         20.5257         10.2129 
       0.957225         20.2795          10.061 
       0.963368         20.2277         9.91156 
       0.969511         19.9917         9.76521 
       0.975621         19.8338         9.62261 
       0.981748         19.5267         9.48251 
       0.987916         19.4133         9.34432 
        0.99406         19.2142         9.20942 
        1.00019         18.9825         9.07745 
        1.00632         18.8628          8.9482 
        1.01246         18.7637         8.82128 
        1.01859         18.4363         8.69704 
        1.02471         18.3942         8.57536 
        1.03085         18.2229          8.4556 
        1.03698         17.9201         8.33839 
        1.04314         17.8198         8.22291 
        1.04929         17.6335         8.10991 
        1.05541         17.4454         7.99949 
        1.06154         17.3692         7.89086 
        1.06769         17.2548          7.7841 
        1.07382         17.0587         7.67967 
        1.07993         16.9506         7.57741 
        1.08607         16.7368         7.47659 
        1.09222         16.6611         7.37752 
        1.09836         16.4622         7.28037 
        1.10449         16.3516         7.18509 
        1.11063         16.1435         7.09142 
        1.11677         16.0957         6.99946 
         1.1229         15.9981         6.90929 
        1.12903         15.7954         6.82065 
        1.13518         15.6475         6.73349 
        1.14131         15.6027         6.64791 
        1.14745         15.4409         6.56387 
        1.15359         15.3758         6.48127 
        1.15973         15.1932         6.40006 
        1.16584         15.0137         6.32062 
        1.17197         15.0127         6.24241 
        1.17811         14.8197         6.16529 
        1.18424         14.7077          6.0897 
        1.19038         14.6503         6.01517 
        1.19652         14.5403         5.94191 
        1.20267         14.4181         5.86988 
        1.20881         14.3076         5.79906 
        1.21495          14.222         5.72953 
        1.22108         14.0897         5.66114 
         1.2272         13.9619         5.59404 
        1.23334         13.9005         5.52787 
        1.23949         13.7628         5.46262 
        1.24562         13.6965          5.3986 
        1.25174         13.6131         5.33571 
        1.25789         13.4853         5.27363 
        1.26402         13.4422         5.21265 
        1.27014         13.2835         5.15278 
        1.27628         13.1745         5.09369 
        1.28244         13.1185          5.0354 
        1.28858         13.0708         4.97811 
        1.29471           12.95         4.92185 
        1.30084         12.8429          4.8665 
        1.30697         12.7644         4.81193 
        1.31312         12.6301         4.75812 
        1.31925         12.5527         4.70531 
        1.32537         12.5152         4.65335 
        1.33151         12.4115         4.60199 
        1.33765          12.346         4.55144 
        1.34378         12.2639         4.50175 
        1.34992          12.125         4.45277 
        1.35606         12.1104         4.40442 
         1.3622         12.0327         4.35687 
        1.36833         11.9126         4.31015 
        1.37445         11.8902         4.26413 
        1.38059         11.7816         4.21864 
        1.38675         11.6474         4.17371 
        1.39288         11.6364         4.12962 
        1.39901          11.544         4.08618 
        1.40515         11.4963         4.04327 
         1.4113         11.4048           4.001 
        1.41742         11.3117         3.95949 
        1.42355         11.2631         3.91849 
         1.4297         11.2294         3.87795 
        1.43585         11.1604           3.838 
        1.44198         11.0733         3.79877 
        1.44809         11.0001         3.76016 
        1.45423         10.9386         3.72194 
        1.46036         10.8759         3.68433 
        1.46649         10.8273         3.64722 
        1.47263         10.7265         3.61059 
        1.47877         10.6735         3.57449 
        1.48491         10.6443         3.53882 
        1.49104         10.5844         3.50372 
        1.49718          10.498         3.46906 
        1.50333         10.4504         3.43483 
        1.50947         10.3837         3.40112 
         1.5156         10.3092         3.36792 
        1.52172         10.2671         3.33516 
        1.52787         10.2175         3.30277 
          1.534         10.1347         3.27085 
        1.54013           10.06         3.23939 
        1.54627         10.0084         3.20829 
        1.55241         9.96333         3.17759 
        1.55855         9.90054         3.14733 
        1.56467         9.84899         3.11756 
         1.5708         9.84162         3.08808 
        1.57695         9.74781         3.05895 
        1.58308         9.71043         3.03025 
        1.58922         9.66119         3.00191 
        1.59535         9.59936         2.97394 
         1.6015         9.53245         2.94629 
        1.60764         9.49429           2.919 
        1.61376         9.44605         2.89214 
        1.61989         9.37829         2.86559 
        1.62604         9.36632         2.83931 
        1.63218         9.30306         2.81338 
        1.63831         9.26344         2.78784 
        1.64444         9.18069          2.7626 
        1.65059         9.13628         2.73761 
        1.65673         9.12323         2.71296 
        1.66285         9.03478         2.68869 
        1.66898         9.02477          2.6647 
        1.67512         8.97617         2.64096 
        1.68127         8.93102         2.61749 
         1.6874         8.87158         2.59435 
        1.69353         8.80749         2.57151 
        1.69967         8.78706         2.54889 
        1.70581         8.75241         2.52655 
        1.71193          8.6897         2.50457 
        1.71806         8.65243          2.4828 
        1.72421         8.60741         2.46124 
        1.73035         8.55994         2.43997 
        1.73649         8.53137         2.41895 
        1.74262         8.50457          2.3982 
        1.74876         8.46164         2.37768 
        1.75489         8.41267         2.35744 
        1.76101         8.35012         2.33744 
        1.76715         8.34328         2.31765 
        1.77329          8.2685         2.29806 
        1.77943         8.23652         2.27869 
        1.78557         8.21984         2.25957 
        1.79171         8.18451         2.24067 
        1.79785          8.1125         2.22198 
        1.80399         8.09164         2.20351 
        1.81012         8.07169         2.18527 
        1.81625         8.01689         2.16725 
        1.82239         7.97772          2.1494 
        1.82853          7.9278         2.13177 
        1.83466         7.88893         2.11435 
        1.84078         7.85464         2.09714 
        1.84692         7.83421          2.0801 
        1.85306         7.78701         2.06322 
         1.8592         7.75584         2.04656 
        1.86533         7.73449         2.03009 
        1.87147         7.69143         2.01379 
        1.87761         7.66748         1.99766 
        1.88375         7.59667         1.98172 
        1.88988         7.59584         1.96597 
        1.89601          7.5603         1.95039 
        1.90215          7.5169         1.93496 
        1.90829         7.48199         1.91971 
        1.91442         7.45243         1.90461 
        1.92056         7.42167          1.8897 
         1.9267           7.389         1.87493 
        1.93284          7.3449         1.86031 
        1.93897          7.3143         1.84587 
        1.94509         7.28144         1.83162 
        1.95123         7.26472         1.81748 
        1.95737         7.23352         1.80348 
        1.96349         7.20137         1.78967 
        1.96964         7.15493         1.77595 
        1.97578         7.12748         1.76238 
        1.98192         7.09918         1.74898 
        1.98805         7.08128         1.73571 
        1.99419         7.03711         1.72258 
        2.00033          7.0143         1.70958 
        2.00647         6.98522         1.69672 
         2.0126         6.95494         1.68401 
        2.01874         6.92181         1.67142 
        2.02488         6.87981         1.65894 
        2.03101         6.87484         1.64661 
        2.03714         6.83608         1.63442 
        2.04328         6.81475         1.62234 
        2.04941         6.76371         1.61039 
        2.05554         6.75974         1.59856 
        2.06167          6.7167         1.58685 
        2.06781         6.70625         1.57524 
        2.07396         6.68586         1.56374 
        2.08009         6.65888         1.55237 
        2.08622         6.59565         1.54113 
        2.09237         6.60283         1.52998 
        2.09851         6.57128         1.51893 
        2.10464         6.53583         1.50802 
        2.11077         6.49942         1.49722 
        2.11691          6.4802          1.4865 
        2.12305         6.46285         1.47589 
        2.12918         6.43265         1.46541 
        2.13531         6.41081         1.45503 
        2.14145         6.38264         1.44473 
         2.1476         6.37131         1.43451 
        2.15372         6.33909         1.42445 
        2.15985         6.30772         1.41447 
        2.16599         6.29412         1.40456 
        2.17213         6.26182         1.39475 
        2.17827         6.24526         1.38504 
         2.1844         6.21744         1.37543 
        2.19054         6.18233         1.36591 
        2.19666          6.1727         1.35649 
         2.2028         6.14492         1.34715 
        2.20893         6.12874          1.3379 
        2.21508         6.09381         1.32872 
        2.22122         6.06762         1.31963 
        2.22736         6.05287         1.31063 
        2.23349         6.01851         1.30173 
        2.23962         6.01045          1.2929 
        2.24577         5.98137         1.28415 
         2.2519         5.96487         1.27549 
        2.25802         5.93541         1.26692 
        2.26417         5.91894         1.25841 
        2.27031         5.88228         1.24997 
        2.27644         5.86985         1.24163 
        2.28257         5.84532         1.23337 
        2.28872         5.82936         1.22517 
        2.29486         5.80831         1.21704 
        2.30099         5.80137         1.20901 
        2.30712         5.76477         1.20104 
        2.31326          5.7421         1.19313 
         2.3194         5.72211          1.1853 
        2.32553         5.70137         1.17755 
        2.33166         5.67769         1.16987 
         2.3378         5.66038         1.16225 
        2.34394         5.64318          1.1547 
        2.35007         5.61627         1.14722 
        2.35619         5.59122         1.13982 
        2.36233         5.57462         1.13247 
        2.36848         5.56594         1.12517 
        2.37462         5.54361         1.11794 
        2.38075         5.51549         1.11079 
        2.38689         5.49683          1.1037 
        2.39303         5.47747         1.09666 
        2.39916         5.46614          1.0897 
        2.40529         5.44408         1.08279 
        2.41143         5.42197         1.07594 
        2.41757         5.41281         1.06915 
         2.4237         5.39147         1.06243 
        2.42983         5.36453         1.05577 
        2.43598         5.36274         1.04914 
        2.44211          5.3329         1.04259 
        2.44823         5.31257          1.0361 
        2.45437         5.30377         1.02965 
        2.46052          5.2759         1.02326 
        2.46665         5.25852         1.01692 
        2.47279         5.23574         1.01065 
        2.47892         5.22201         1.00442 
        2.48507         5.20012        0.998238 
         2.4912         5.18511         0.99212 
