# k  (h/Mpc)    P(k)  (Mpc/h)^3    P_linear(k)  (Mpc/h)^3
     0.00783031         17073.3           17132 
       0.013688         20815.2         21403.5 
       0.019231         21611.9         21990.4 
      0.0249154         20691.2         20697.5 
      0.0312784         18058.3         18336.8 
      0.0375637         15597.6         15988.8 
      0.0433917         14013.1         14199.1 
      0.0492413         12560.9         12853.4 
      0.0555754           11590         11795.1 
      0.0619321           10402         10952.5 
       0.067871         9829.66         10200.4 
      0.0738098         9154.03         9395.11 
      0.0800417         8294.21         8488.18 
      0.0862327         7403.92         7586.12 
      0.0921407         6705.01         6800.94 
      0.0982031         6151.85         6129.81 
       0.104506         5544.72         5597.04 
       0.110769          5193.2         5213.11 
       0.116806         4993.31         4934.36 
       0.122832         4704.73          4693.6 
       0.129052         4434.26         4440.16 
       0.135211         4278.54         4161.64 
       0.141259         3939.58         3863.96 
       0.147318         3638.91         3561.33 
       0.153489         3426.06         3274.15 
       0.159709         3298.41         3026.74 
       0.165845         3029.76            2832 
       0.171974         2957.43         2681.94 
       0.178125         2877.86         2562.59 
       0.184229          2656.6         2458.57 
        0.19034         2621.17         2354.51 
       0.196428         2545.12         2242.76 
       0.202534         2395.68         2121.84 
       0.208729         2339.72         1995.52 
       0.214876         2233.39         1874.72 
       0.220989         2133.31         1766.28 
       0.227147         2074.99         1672.92 
        0.23329         1996.22         1595.69 
       0.239377         1989.95         1531.65 
       0.245482         1902.52         1474.89 
       0.251667         1833.89         1420.01 
       0.257832         1802.91         1364.39 
       0.263955         1727.14         1306.92 
       0.270079         1686.85         1248.13 
        0.27624         1617.35         1189.86 
       0.282372         1602.64         1135.17 
        0.28843         1568.37         1086.16 
       0.294538            1504         1042.38 
       0.300721         1480.13         1003.38 
        0.30691         1440.52         968.253 
       0.313033         1391.84         935.782 
       0.319153         1379.64         904.151 
       0.325316         1362.11         872.386 
        0.33145         1332.26         840.669 
       0.337538         1292.23          809.58 
       0.343633         1264.47         779.487 
       0.349808         1244.78         750.756 
       0.355968         1218.26         724.236 
       0.362074         1186.42         700.104 
       0.368217         1182.26         677.732 
       0.374374         1163.67         656.718 
       0.380519         1126.42         636.688 
       0.386598         1122.91         617.404 
       0.392688         1093.73         598.428 
        0.39888         1075.34         579.516 
       0.405048         1054.08         561.175 
       0.411186          1049.8         543.631 
       0.417313         1045.42         526.998 
       0.423458         1014.89         511.241 
       0.429607          989.77         496.394 
       0.435692           982.4         482.503 
       0.441815         963.305         469.151 
       0.447964         955.348         456.233 
       0.454126          942.35          443.69 
       0.460267         932.058         431.521 
       0.466387         916.129         419.721 
        0.47254         901.738         408.239 
       0.478662         891.131         397.243 
       0.484765         881.727         386.725 
       0.490885         872.554         376.629 
       0.497035         856.876         366.931 
       0.503198         856.362         357.618 
       0.509342         840.174         348.675 
       0.515458          824.07         340.064 
       0.521598         825.394         331.685 
       0.527764         805.414         323.526 
       0.533884         796.326         315.669 
           0.54          792.19          308.06 
       0.546137         782.171         300.676 
       0.552299         775.608         293.524 
       0.558452         767.926         286.645 
       0.564573         764.533          280.04 
       0.570708         755.313          273.64 
       0.576825         740.363         267.463 
       0.582926         738.899         261.493 
       0.589034         730.308         255.694 
       0.595184         721.577         250.028 
       0.601379          710.79         244.488 
       0.607522         701.963         239.155 
       0.613639         701.145         234.003 
       0.619772          694.35         228.994 
       0.625918         685.837         224.129 
       0.632068         682.001         219.412 
       0.638161         672.417         214.879 
         0.6443         666.043         210.444 
       0.650464         661.621         206.117 
       0.656582          656.62         201.941 
       0.662703         648.294         197.878 
       0.668861         641.676         193.902 
       0.675024           638.5         190.032 
       0.681124         626.223         186.309 
       0.687237         627.037          182.68 
       0.693381         616.223         179.133 
       0.699536         618.361         175.676 
       0.705665         608.744         172.326 
       0.711789         607.118         169.068 
       0.717957         600.032         165.872 
        0.72409         595.093         162.776 
       0.730186         593.015         159.779 
       0.736317         585.741          156.84 
       0.742472         578.486         153.966 
       0.748622         578.111         151.166 
        0.75476         569.149         148.443 
       0.760888         567.478         145.791 
       0.767043         565.039         143.195 
       0.773185         560.174         140.668 
       0.779291         554.304         138.217 
       0.785407         549.809         135.821 
       0.791564         547.377         133.467 
       0.797719         538.843         131.171 
       0.803834         539.495         128.943 
       0.809972         531.706          126.76 
       0.816124         528.554         124.622 
       0.822261         525.441          122.54 
       0.828378         523.516         120.512 
       0.834502         515.274         118.529 
       0.840667         513.505         116.578 
       0.846816         509.635         114.676 
       0.852925         508.414         112.829 
       0.859047          502.43          111.02 
       0.865192         499.933         109.244 
       0.871341         494.662         107.506 
       0.877463         493.934         105.815 
       0.883569         489.041         104.164 
       0.889708         483.424          102.54 
       0.895864         478.712         100.947 
       0.902008         478.503         99.3914 
       0.908149         473.591         97.8697 
       0.914301         472.067         96.3776 
       0.920448         466.316         94.9182 
       0.926574         464.055         93.4943 
       0.932687         462.653         92.1028 
       0.938823          457.31         90.7348 
       0.944975         455.365         89.3916 
       0.951105         452.305         88.0805 
       0.957225         446.538         86.7982 
       0.963368         446.761         85.5371 
       0.969511         441.479         84.3012 
       0.975621         438.626         83.0965 
       0.981748         436.617         81.9123 
       0.987916         433.862         80.7439 
        0.99406         429.684         79.6027 
        1.00019         425.812          78.486 
        1.00632         424.037         77.3919 
        1.01246         420.753          76.317 
        1.01859         417.815         75.2644 
        1.02471         416.185         74.2331 
        1.03085         412.945         73.2176 
        1.03698         411.046         72.2233 
        1.04314         407.388         71.2433 
        1.04929         406.233         70.2839 
        1.05541         401.196         69.3461 
        1.06154         399.408         68.4232 
        1.06769         396.087         67.5157 
        1.07382         392.694         66.6278 
        1.07993         392.877          65.758 
        1.08607             390         64.9001 
        1.09222         386.262         64.0568 
        1.09836         384.016         63.2296 
        1.10449         380.764          62.418 
        1.11063         379.719         61.6198 
        1.11677         375.599         60.8359 
         1.1229         374.063         60.0671 
        1.12903         370.731         59.3109 
        1.13518         369.641         58.5672 
        1.14131         367.166         57.8368 
        1.14745         363.707         57.1192 
        1.15359         360.972         56.4138 
        1.15973         359.329           55.72 
        1.16584         357.889         55.0411 
        1.17197         355.056         54.3725 
        1.17811         350.961         53.7131 
        1.18424         350.454         53.0665 
        1.19038         348.345         52.4287 
        1.19652         344.772         51.8017 
        1.20267         343.418          51.185 
        1.20881         341.974         50.5785 
        1.21495          337.96         49.9827 
        1.22108         337.859         49.3968 
         1.2272         332.845         48.8216 
        1.23334         331.796         48.2543 
        1.23949         329.432         47.6946 
        1.24562         328.763         47.1455 
        1.25174         326.246         46.6058 
        1.25789         323.398          46.073 
        1.26402         321.898         45.5494 
        1.27014         320.136         45.0353 
        1.27628         317.759         44.5276 
        1.28244         315.033         44.0268 
        1.28858          314.02         43.5344 
        1.29471         312.345         43.0506 
        1.30084         311.162         42.5746 
        1.30697         307.548         42.1051 
        1.31312         305.944         41.6421 
        1.31925         304.425         41.1875 
        1.32537         303.135         40.7402 
        1.33151         299.842         40.2979 
        1.33765         297.889         39.8625 
        1.34378         296.722         39.4344 
        1.34992         293.973         39.0123 
        1.35606         292.117         38.5954 
         1.3622         290.319         38.1855 
        1.36833         290.033         37.7825 
        1.37445         288.324         37.3855 
        1.38059         284.727          36.993 
        1.38675         283.591         36.6053 
        1.39288         282.637         36.2247 
        1.39901         280.145         35.8496 
        1.40515         278.738         35.4791 
         1.4113         276.786         35.1139 
        1.41742          274.75         34.7553 
        1.42355         273.546         34.4011 
         1.4297         271.763         34.0507 
        1.43585         269.441         33.7053 
        1.44198         268.251         33.3661 
        1.44809         266.778         33.0322 
        1.45423         265.161         32.7016 
        1.46036         264.341         32.3762 
        1.46649         261.963          32.055 
        1.47263         259.696          31.738 
        1.47877         258.714         31.4254 
        1.48491         256.564         31.1165 
        1.49104         254.409         30.8125 
        1.49718         253.701         30.5122 
        1.50333         251.986         30.2156 
        1.50947         250.462         29.9234 
         1.5156         248.793         29.6356 
        1.52172         247.155         29.3515 
        1.52787         245.456         29.0706 
          1.534         245.061         28.7938 
        1.54013          242.78         28.5208 
        1.54627         241.243         28.2509 
        1.55241         240.465         27.9845 
        1.55855         238.476         27.7218 
        1.56467         236.953         27.4633 
         1.5708           235.6         27.2073 
        1.57695         234.742         26.9543 
        1.58308         233.544          26.705 
        1.58922         231.437         26.4587 
        1.59535         229.771         26.2156 
         1.6015         228.826         25.9753 
        1.60764         227.304          25.738 
        1.61376         225.809         25.5044 
        1.61989         224.306         25.2736 
        1.62604         223.031          25.045 
        1.63218         221.356         24.8194 
        1.63831         220.487         24.5972 
        1.64444         218.836         24.3776 
        1.65059         217.978         24.1601 
        1.65673         216.527         23.9456 
        1.66285         215.064         23.7342 
        1.66898         213.643         23.5253 
        1.67512         212.484         23.3186 
        1.68127         211.218         23.1141 
         1.6874         209.638         22.9126 
        1.69353          209.23         22.7135 
        1.69967         207.551         22.5164 
        1.70581         206.213         22.3217 
        1.71193         205.099           22.13 
        1.71806         203.246         21.9402 
        1.72421         202.678         21.7522 
        1.73035         201.107         21.5666 
        1.73649         199.661         21.3833 
        1.74262         198.933         21.2022 
        1.74876         197.306         21.0231 
        1.75489         196.773         20.8465 
        1.76101         195.625         20.6719 
        1.76715          194.33         20.4991 
        1.77329         192.727          20.328 
        1.77943         191.455         20.1589 
        1.78557         190.565         19.9919 
        1.79171         189.862         19.8268 
        1.79785         188.252         19.6635 
        1.80399         187.293         19.5021 
        1.81012         186.643         19.3427 
        1.81625         184.822         19.1851 
        1.82239         184.208         19.0291 
        1.82853         183.037         18.8749 
        1.83466         181.693         18.7226 
        1.84078         180.792         18.5721 
        1.84692         179.971          18.423 
        1.85306          178.61         18.2754 
         1.8592         177.922         18.1296 
        1.86533         176.254         17.9855 
        1.87147         175.531         17.8428 
        1.87761         174.392         17.7016 
        1.88375         173.296         17.5621 
        1.88988         172.532         17.4242 
        1.89601         171.812         17.2877 
        1.90215         170.755         17.1526 
        1.90829          169.25          17.019 
        1.91442         168.392         16.8869 
        1.92056         167.413         16.7562 
         1.9267         166.406         16.6268 
        1.93284         165.123         16.4987 
        1.93897         164.444         16.3722 
        1.94509         163.699         16.2472 
        1.95123         162.754         16.1233 
        1.95737         162.109         16.0005 
        1.96349         160.732         15.8794 
        1.96964         159.726         15.7592 
        1.97578         158.929         15.6401 
        1.98192         158.408         15.5225 
        1.98805         157.267         15.4062 
        1.99419         156.298          15.291 
        2.00033         155.462         15.1769 
        2.00647          154.12          15.064 
         2.0126         153.505         14.9525 
        2.01874         152.643         14.8419 
        2.02488         151.781         14.7323 
        2.03101          151.09         14.6241 
        2.03714         150.597          14.517 
        2.04328         149.159         14.4109 
        2.04941         148.404         14.3059 
        2.05554         147.495         14.2021 
        2.06167         146.951         14.0992 
        2.06781         146.143         13.9972 
        2.07396         144.903         13.8961 
        2.08009         144.451         13.7962 
        2.08622         143.695         13.6974 
        2.09237         142.385         13.5994 
        2.09851          141.93         13.5023 
        2.10464         141.218         13.4063 
        2.11077         140.544         13.3114 
        2.11691         139.642         13.2171 
        2.12305         138.669         13.1238 
        2.12918         137.918         13.0316 
        2.13531         137.007         12.9403 
        2.14145         136.361         12.8496 
         2.1476         135.377         12.7597 
        2.15372         134.823         12.6712 
        2.15985         134.177         12.5833 
        2.16599         133.316         12.4961 
        2.17213         132.447         12.4098 
        2.17827         131.958         12.3243 
         2.1844         130.999         12.2397 
        2.19054         130.305         12.1558 
        2.19666         129.639         12.0729 
         2.2028         128.988         11.9907 
        2.20893         128.262         11.9091 
        2.21508         127.414         11.8283 
        2.22122         126.544         11.7482 
        2.22736         126.222          11.669 
        2.23349         125.494         11.5905 
        2.23962         124.819         11.5127 
        2.24577         123.838         11.4356 
         2.2519         123.092         11.3593 
        2.25802         122.768         11.2838 
        2.26417         122.042         11.2087 
        2.27031         121.278         11.1343 
        2.27644         120.633         11.0608 
        2.28257         120.209         10.9879 
        2.28872         119.372         10.9156 
        2.29486         118.702         10.8439 
        2.30099          117.76          10.773 
        2.30712          117.47         10.7027 
        2.31326         116.559          10.633 
         2.3194         116.114         10.5639 
        2.32553         115.449         10.4955 
        2.33166         115.036         10.4277 
         2.3378         114.221         10.3605 
        2.34394         113.522         10.2938 
        2.35007         112.842         10.2278 
        2.35619         112.335         10.1625 
        2.36233         111.967         10.0976 
        2.36848         111.334         10.0331 
        2.37462         110.773         9.96931 
        2.38075         110.081         9.90615 
        2.38689         109.457         9.84347 
        2.39303         108.985         9.78135 
        2.39916          108.37         9.71983 
        2.40529         107.633         9.65885 
        2.41143         107.039         9.59834 
        2.41757         106.424         9.53833 
         2.4237         105.888         9.47893 
        2.42983         105.447         9.42005 
        2.43598          104.72         9.36151 
        2.44211         104.187         9.30357 
        2.44823         103.777         9.24624 
        2.45437         103.246         9.18924 
        2.46052         102.542         9.13268 
        2.46665         102.122         9.07668 
        2.47279         101.548         9.02118 
        2.47892         101.008          8.9661 
        2.48507         100.544         8.91144 
         2.4912         99.9226         8.85733 
