# k  (h/Mpc)    Pcb(k)  (Mpc/h)^3    Pcb_linear(k)  (Mpc/h)^3
     0.00783031         643.602         649.117 
       0.013688         852.774         854.251 
       0.019231         915.967         916.403 
      0.0249154         894.099         898.875 
      0.0312784         828.594         829.986 
      0.0375637         748.538          747.64 
      0.0433917         676.186         677.744 
      0.0492413         620.956         620.862 
      0.0555754          571.33         573.773 
      0.0619321         538.064         536.451 
       0.067871          503.08         504.827 
      0.0738098         470.203         472.248 
      0.0800417         432.349         435.384 
      0.0862327         395.473         397.093 
      0.0921407         360.749         361.511 
      0.0982031         327.309         328.656 
       0.104506         301.093         300.318 
       0.110769         279.002         278.442 
       0.116806           261.5         262.349 
       0.122832          249.65         249.475 
       0.129052         236.561         237.571 
       0.135211         224.411         225.589 
       0.141259         212.631         212.873 
       0.147318         199.833         199.279 
       0.153489          185.25         185.268 
       0.159709         172.273         171.956 
       0.165845         162.083         160.416 
       0.171974         151.406          150.85 
       0.178125         143.909         143.142 
       0.184229         138.098          136.93 
        0.19034         131.494         131.535 
       0.196428         127.161         126.391 
       0.202534         122.668         121.051 
       0.208729         116.417         115.294 
       0.214876         109.924         109.351 
       0.220989          105.29         103.481 
       0.227147         98.7056         97.9191 
        0.23329         93.9218         92.9571 
       0.239377         90.0483         88.7151 
       0.245482         85.8743         85.0916 
       0.251667         83.4687         81.9119 
       0.257832         80.4468         79.0279 
       0.263955         77.6867         76.2597 
       0.270079         74.9729         73.4609 
        0.27624         72.6542         70.5746 
       0.282372         69.6961         67.6706 
        0.28843         66.6102         64.8514 
       0.294538         63.9734         62.1544 
       0.300721         61.9474         59.6444 
        0.30691         59.2888         57.3849 
       0.313033         57.3772         55.3831 
       0.319153         54.9208         53.5665 
       0.325316         54.0123         51.8583 
        0.33145         52.1875           50.22 
       0.337538         50.6784         48.6135 
       0.343633         48.9552         47.0119 
       0.349808         47.4955         45.4033 
       0.355968         45.9735         43.8385 
       0.362074         44.4637         42.3533 
       0.368217         43.1364         40.9484 
       0.374374          41.669         39.6389 
       0.380519         40.6273         38.4264 
       0.386598         39.5539         37.3061 
       0.392688         38.6319         36.2419 
        0.39888         37.5094          35.201 
       0.405048          36.597         34.1911 
       0.411186         35.7048         33.2054 
       0.417313         34.4995         32.2429 
       0.423458         33.6554          31.304 
       0.429607         32.6746         30.3986 
       0.435692         31.7485         29.5435 
       0.441815         31.0658         28.7264 
       0.447964         30.5033         27.9479 
       0.454126         29.4504          27.207 
       0.460267         28.8131         26.5008 
       0.466387         27.9858         25.8223 
        0.47254         27.5052         25.1607 
       0.478662         26.9464         24.5208 
       0.484765         26.2125         23.8995 
       0.490885         25.5761          23.294 
       0.497035           25.22         22.7055 
       0.503198         24.5639         22.1378 
       0.509342         23.9851         21.5937 
       0.515458          23.426         21.0735 
       0.521598         22.9904         20.5717 
       0.527764          22.456         20.0866 
       0.533884         22.0662         19.6212 
           0.54         21.6019         19.1702 
       0.546137         21.2007         18.7305 
       0.552299         20.8067         18.3017 
       0.558452         20.1888         17.8861 
       0.564573          19.922         17.4848 
       0.570708          19.548          17.095 
       0.576825          19.048         16.7188 
       0.582926         18.7437         16.3561 
       0.589034          18.218         16.0049 
       0.595184         17.9531         15.6625 
       0.601379         17.5959         15.3281 
       0.607522         17.3393          15.006 
       0.613639          17.124         14.6943 
       0.619772         16.6775         14.3905 
       0.625918         16.5145         14.0946 
       0.632068         16.2467         13.8067 
       0.638161         15.8745         13.5295 
         0.6443         15.5562         13.2579 
       0.650464         15.2528          12.993 
       0.656582          15.119         12.7376 
       0.662703         14.8512         12.4892 
       0.668861         14.5958         12.2464 
       0.675024         14.3076           12.01 
       0.681124          14.063         11.7823 
       0.687237         13.8624           11.56 
       0.693381         13.6767         11.3423 
       0.699536         13.3099         11.1298 
       0.705665         13.1644         10.9237 
       0.711789         12.9595          10.723 
       0.717957         12.7492         10.5261 
        0.72409         12.5436         10.3353 
       0.730186         12.3753         10.1506 
       0.736317         12.2486         9.96953 
       0.742472          12.056         9.79226 
       0.748622         11.8558         9.61952 
        0.75476         11.6036         9.45136 
       0.760888         11.4839         9.28748 
       0.767043         11.3466         9.12685 
       0.773185         11.1197         8.97037 
       0.779291          11.022         8.81848 
       0.785407         10.8494         8.66993 
       0.791564         10.6765         8.52391 
       0.797719         10.5232         8.38137 
       0.803834         10.4222         8.24304 
       0.809972         10.3117         8.10739 
       0.816124         10.1027         7.97454 
       0.822261         9.96086         7.84507 
       0.828378         9.84467          7.7189 
       0.834502         9.75035         7.59543 
       0.840667         9.57508         7.47388 
       0.846816         9.42762         7.35537 
       0.852925         9.34483          7.2402 
       0.859047         9.22571         7.12727 
       0.865192         9.13932         7.01641 
       0.871341         9.03244         6.90785 
       0.877463         8.90723         6.80211 
       0.883569         8.75729         6.69888 
       0.889708         8.61998         6.59728 
       0.895864         8.55895         6.49754 
       0.902008         8.44598         6.40011 
       0.908149         8.35372         6.30474 
       0.914301          8.2239         6.21119 
       0.920448         8.11438         6.11965 
       0.926574         8.01468         6.03029 
       0.932687         7.95094         5.94292 
       0.938823         7.85014         5.85699 
       0.944975         7.74604         5.77258 
       0.951105         7.67514         5.69015 
       0.957225         7.63181         5.60949 
       0.963368         7.52265         5.53013 
       0.969511         7.43435         5.45232 
       0.975621         7.33146         5.37644 
       0.981748         7.26316         5.30182 
       0.987916         7.18975         5.22817 
        0.99406         7.07556          5.1562 
        1.00019         6.98897         5.08574 
        1.00632         6.95022         5.01668 
        1.01246         6.87619         4.94881 
        1.01859         6.78995         4.88231 
        1.02471         6.71716         4.81713 
        1.03085         6.65264         4.75292 
        1.03698         6.56436         4.69003 
        1.04314         6.51143         4.62802 
        1.04929         6.42604         4.56728 
        1.05541         6.36113         4.50789 
        1.06154         6.30357         4.44942 
        1.06769         6.26432         4.39191 
        1.07382          6.1714         4.33561 
        1.07993         6.10064         4.28044 
        1.08607         6.06658           4.226 
        1.09222         6.00157         4.17246 
        1.09836         5.95195         4.11993 
        1.10449         5.88479         4.06836 
        1.11063         5.82827         4.01763 
        1.11677         5.77418         3.96779 
         1.1229         5.71666         3.91889 
        1.12903         5.65783         3.87077 
        1.13518         5.60856         3.82344 
        1.14131         5.53414         3.77692 
        1.14745         5.46538         3.73121 
        1.15359         5.44321         3.68626 
        1.15973         5.37848         3.64204 
        1.16584         5.33861         3.59874 
        1.17197         5.28838          3.5561 
        1.17811         5.24167         3.51402 
        1.18424         5.21193         3.47274 
        1.19038         5.16098         3.43202 
        1.19652         5.11245         3.39197 
        1.20267         5.06024         3.35257 
        1.20881         5.01527          3.3138 
        1.21495         4.97842         3.27571 
        1.22108         4.93007         3.23824 
         1.2272         4.90683         3.20144 
        1.23334         4.84131         3.16513 
        1.23949         4.79674          3.1293 
        1.24562         4.77533         3.09413 
        1.25174         4.71487         3.05956 
        1.25789         4.68331         3.02542 
        1.26402         4.63495         2.99185 
        1.27014         4.59241         2.95889 
        1.27628         4.57379         2.92632 
        1.28244         4.51452         2.89419 
        1.28858         4.49346         2.86258 
        1.29471         4.44932         2.83152 
        1.30084          4.4083         2.80096 
        1.30697         4.39676          2.7708 
        1.31312         4.31918         2.74104 
        1.31925          4.3075         2.71182 
        1.32537         4.27221         2.68306 
        1.33151         4.24615         2.65461 
        1.33765         4.19277          2.6266 
        1.34378         4.15959         2.59905 
        1.34992         4.14855         2.57187 
        1.35606         4.09506         2.54503 
         1.3622         4.07756         2.51862 
        1.36833         4.04376         2.49266 
        1.37445         4.01138         2.46707 
        1.38059         3.98628         2.44177 
        1.38675         3.96445         2.41676 
        1.39288         3.91928         2.39221 
        1.39901         3.88701         2.36801 
        1.40515         3.86371          2.3441 
         1.4113         3.83554         2.32052 
        1.41742         3.80977         2.29736 
        1.42355         3.78822         2.27448 
         1.4297         3.74436         2.25184 
        1.43585         3.73162         2.22952 
        1.44198          3.7106         2.20759 
        1.44809         3.66345           2.186 
        1.45423         3.64009         2.16462 
        1.46036         3.61522         2.14356 
        1.46649         3.58406         2.12278 
        1.47263         3.55837         2.10226 
        1.47877         3.52713         2.08202 
        1.48491         3.50561         2.06202 
        1.49104         3.49018         2.04232 
        1.49718         3.46544         2.02287 
        1.50333         3.44004         2.00364 
        1.50947         3.41879         1.98471 
         1.5156         3.39528         1.96604 
        1.52172         3.37301         1.94762 
        1.52787         3.34697          1.9294 
          1.534         3.32835         1.91144 
        1.54013         3.30186         1.89372 
        1.54627         3.27239          1.8762 
        1.55241         3.25137          1.8589 
        1.55855         3.23803         1.84184 
        1.56467         3.21553         1.82504 
         1.5708         3.18326         1.80841 
        1.57695         3.17078         1.79196 
        1.58308         3.14798         1.77575 
        1.58922         3.13321         1.75973 
        1.59535         3.11091         1.74392 
         1.6015          3.0917         1.72828 
        1.60764         3.07393         1.71285 
        1.61376         3.05295         1.69764 
        1.61989         3.03116         1.68261 
        1.62604         3.01024         1.66772 
        1.63218         3.00163         1.65303 
        1.63831         2.97028         1.63855 
        1.64444         2.95219         1.62424 
        1.65059         2.93913         1.61006 
        1.65673         2.92023         1.59607 
        1.66285          2.8969         1.58229 
        1.66898         2.88597         1.56867 
        1.67512         2.86093         1.55518 
        1.68127          2.8455         1.54184 
         1.6874         2.83392         1.52868 
        1.69353         2.80431         1.51569 
        1.69967          2.7918         1.50282 
        1.70581         2.78491          1.4901 
        1.71193          2.7624         1.47758 
        1.71806         2.75037         1.46518 
        1.72421         2.73158          1.4529 
        1.73035         2.71484         1.44077 
        1.73649         2.69732         1.42878 
        1.74262         2.68192         1.41694 
        1.74876         2.67222         1.40523 
        1.75489          2.6492         1.39367 
        1.76101         2.63349         1.38225 
        1.76715         2.62012         1.37094 
        1.77329         2.60482         1.35975 
        1.77943         2.58672         1.34868 
        1.78557         2.57518         1.33774 
        1.79171         2.56392         1.32693 
        1.79785         2.54485         1.31623 
        1.80399         2.53407         1.30565 
        1.81012         2.52485         1.29521 
        1.81625         2.50272         1.28488 
        1.82239         2.48813         1.27466 
        1.82853         2.46882         1.26454 
        1.83466         2.46353         1.25455 
        1.84078         2.44832         1.24468 
        1.84692         2.43681          1.2349 
        1.85306         2.41939         1.22521 
         1.8592          2.4091         1.21564 
        1.86533          2.3946         1.20618 
        1.87147         2.38534         1.19681 
        1.87761         2.37218         1.18754 
        1.88375         2.35082         1.17837 
        1.88988         2.34556         1.16932 
        1.89601         2.32984         1.16035 
        1.90215         2.31447         1.15147 
        1.90829         2.30406         1.14269 
        1.91442          2.2923           1.134 
        1.92056         2.28038          1.1254 
         1.9267         2.27094         1.11689 
        1.93284         2.26033         1.10846 
        1.93897         2.24687         1.10014 
        1.94509         2.23169         1.09192 
        1.95123         2.21887         1.08376 
        1.95737          2.2088         1.07568 
        1.96349         2.19827          1.0677 
        1.96964         2.18996         1.05978 
        1.97578         2.17744         1.05194 
        1.98192         2.16864          1.0442 
        1.98805          2.1533         1.03653 
        1.99419         2.14441         1.02894 
        2.00033         2.14072         1.02142 
        2.00647         2.12275         1.01398 
         2.0126         2.11636         1.00662 
        2.01874         2.10092        0.999333 
        2.02488         2.09274        0.992107 
        2.03101         2.07888        0.984966 
        2.03714         2.06554        0.977903 
        2.04328          2.0614        0.970901 
        2.04941         2.04729        0.963973 
        2.05554         2.04209        0.957119 
        2.06167         2.02794        0.950322 
        2.06781         2.02143         0.94359 
        2.07396         2.01065        0.936915 
        2.08009         2.00085        0.930315 
        2.08622         1.98712        0.923787 
        2.09237         1.98653        0.917309 
        2.09851         1.97547        0.910892 
        2.10464         1.96607        0.904548 
        2.11077         1.95403        0.898271 
        2.11691         1.94301        0.892041 
        2.12305         1.93806        0.885869 
        2.12918         1.92737        0.879772 
        2.13531         1.92004        0.873731 
        2.14145         1.90774        0.867733 
         2.1476         1.89975        0.861785 
        2.15372           1.891        0.855922 
        2.15985         1.88221        0.850109 
        2.16599         1.87193        0.844333 
        2.17213         1.86436        0.838617 
        2.17827          1.8585        0.832956 
         2.1844         1.84987        0.827352 
        2.19054         1.84342        0.821798 
        2.19666         1.83172        0.816303 
         2.2028         1.82494        0.810854 
        2.20893         1.81261        0.805451 
        2.21508         1.81002        0.800092 
        2.22122         1.79723        0.794781 
        2.22736         1.78764        0.789528 
        2.23349          1.7863        0.784325 
        2.23962         1.77387        0.779166 
        2.24577         1.76561        0.774048 
         2.2519         1.75813        0.768984 
        2.25802         1.75489        0.763974 
        2.26417         1.74167        0.758994 
        2.27031         1.73826        0.754055 
        2.27644         1.72981        0.749174 
        2.28257         1.72256        0.744336 
        2.28872          1.7129        0.739532 
        2.29486         1.70908        0.734772 
        2.30099         1.69863        0.730064 
        2.30712         1.69265        0.725395 
        2.31326         1.68815        0.720759 
         2.3194         1.67912        0.716166 
        2.32553         1.67284        0.711621 
        2.33166         1.66343        0.707118 
         2.3378         1.65598        0.702648 
        2.34394         1.64781        0.698215 
        2.35007           1.642        0.693826 
        2.35619         1.63861        0.689481 
        2.36233         1.62785        0.685163 
        2.36848         1.62328        0.680873 
        2.37462         1.61586        0.676629 
        2.38075         1.61035        0.672426 
        2.38689         1.60288        0.668254 
        2.39303         1.59786        0.664119 
        2.39916         1.58827        0.660024 
        2.40529         1.58572        0.655963 
        2.41143         1.57745        0.651933 
        2.41757         1.56998        0.647936 
         2.4237         1.56515         0.64398 
        2.42983         1.55764        0.640057 
        2.43598         1.55388        0.636157 
        2.44211          1.5463        0.632295 
        2.44823         1.53998        0.628475 
        2.45437         1.53481        0.624675 
        2.46052         1.53023        0.620905 
        2.46665         1.52413        0.617171 
        2.47279         1.51734         0.61347 
        2.47892         1.50976        0.609797 
        2.48507         1.50529        0.606151 
         2.4912         1.49854        0.602542 
