# k  (h/Mpc)    Pcb(k)  (Mpc/h)^3    Pcb_linear(k)  (Mpc/h)^3
     0.00783031          3842.4         3888.26 
       0.013688         4343.18         4336.45 
       0.019231         3982.57         3974.52 
      0.0249154         3272.47         3294.91 
      0.0312784         2528.75         2525.52 
      0.0375637         1957.94         1943.89 
      0.0433917         1597.08         1595.84 
      0.0492413         1400.28         1394.92 
      0.0555754         1270.58         1279.01 
      0.0619321         1208.87         1200.01 
       0.067871         1108.03            1114 
      0.0738098          993.69         998.501 
      0.0800417         848.823         854.408 
      0.0862327         714.113         712.531 
      0.0921407         606.296         599.754 
      0.0982031         521.311         517.655 
       0.104506         477.614         467.367 
       0.110769         450.721         443.121 
       0.116806         434.675         431.186 
       0.122832         422.979         418.354 
       0.129052         396.172         395.728 
       0.135211         363.702         362.199 
       0.141259         328.493         322.813 
       0.147318         291.975         283.851 
       0.153489         258.047         250.743 
       0.159709         235.631         227.148 
       0.165845         223.158         213.177 
       0.171974         212.853         205.807 
       0.178125         208.098         201.253 
       0.184229         202.338         195.956 
        0.19034         190.703         187.571 
       0.196428         181.498         175.751 
       0.202534         169.966         161.707 
       0.208729         155.201         147.375 
       0.214876         142.541         135.017 
       0.220989         134.422          125.64 
       0.227147         126.881           119.2 
        0.23329         122.253         115.046 
       0.239377         119.567         112.023 
       0.245482          113.91         108.943 
       0.251667         111.477         104.972 
       0.257832         106.569         99.9164 
       0.263955         100.975         94.1346 
       0.270079         95.2292         88.2094 
        0.27624          91.146         82.7397 
       0.282372         86.9156         78.2134 
        0.28843         82.7785         74.7342 
       0.294538         79.5091         72.0727 
       0.300721         77.9648         69.8887 
        0.30691          74.837         67.8363 
       0.313033         72.5483          65.633 
       0.319153         69.0733         63.1419 
       0.325316         67.4975         60.3791 
        0.33145         64.3169         57.5546 
       0.337538         62.2067         54.8673 
       0.343633          59.497         52.4618 
       0.349808         57.5414          50.375 
       0.355968          55.928          48.632 
       0.362074         54.1582         47.1374 
       0.368217         52.4887         45.7483 
       0.374374         50.8967         44.3676 
       0.380519         49.6179         42.9283 
       0.386598         48.1188         41.4467 
       0.392688         46.9145          39.936 
        0.39888         45.3027         38.4315 
       0.405048         43.9587         37.0292 
       0.411186         42.7544         35.7589 
       0.417313         41.3913         34.6189 
       0.423458         40.2657         33.5898 
       0.429607         39.2163         32.6323 
       0.435692         37.8949         31.7178 
       0.441815         37.2321         30.8089 
       0.447964         36.4992         29.8936 
       0.454126         34.9121         28.9748 
       0.460267         34.3183         28.0766 
       0.466387         33.2998         27.2185 
        0.47254          32.636         26.4031 
       0.478662         32.0787         25.6435 
       0.484765         31.0022         24.9385 
       0.490885         30.3041         24.2749 
       0.497035         29.9007         23.6363 
       0.503198         29.0152         23.0131 
       0.509342         28.2542         22.4046 
       0.515458         27.6366         21.8112 
       0.521598         27.1162         21.2279 
       0.527764         26.5027          20.658 
       0.533884         26.0619         20.1134 
           0.54         25.3842         19.5946 
       0.546137          25.003         19.1006 
       0.552299         24.5547         18.6273 
       0.558452         23.7876         18.1731 
       0.564573         23.3759         17.7357 
       0.570708         22.9693         17.3097 
       0.576825         22.4412         16.8971 
       0.582926         21.9262         16.4968 
       0.589034         21.3807          16.107 
       0.595184          21.093         15.7258 
       0.601379         20.6348         15.3544 
       0.607522         20.2242         14.9989 
       0.613639         20.0071         14.6583 
       0.619772         19.4834         14.3295 
       0.625918         19.3278         14.0114 
       0.632068         19.0203         13.7031 
       0.638161         18.5939         13.4061 
         0.6443         18.2211         13.1146 
       0.650464          17.869         12.8295 
       0.656582         17.7325         12.5544 
       0.662703         17.3745         12.2871 
       0.668861          17.031         12.0265 
       0.675024         16.7228         11.7739 
       0.681124          16.426         11.5317 
       0.687237         16.1314         11.2963 
       0.693381         15.9699         11.0665 
       0.699536         15.5466         10.8428 
       0.705665         15.4882          10.626 
       0.711789         15.1145          10.415 
       0.717957         14.8808         10.2082 
        0.72409         14.6625         10.0079 
       0.730186         14.4423         9.81418 
       0.736317         14.2773         9.62455 
       0.742472         14.0173         9.43932 
       0.748622         13.8599         9.25928 
        0.75476         13.6082         9.08445 
       0.760888         13.3773         8.91451 
       0.767043         13.1942         8.74831 
       0.773185         12.9674         8.58674 
       0.779291         12.8796         8.43019 
       0.785407         12.7357         8.27731 
       0.791564         12.5011         8.12724 
       0.797719         12.1884         7.98093 
       0.803834         12.1718         7.83913 
       0.809972         12.0359         7.70025 
       0.816124         11.7777         7.56444 
       0.822261         11.6211         7.43226 
       0.828378          11.508         7.30365 
       0.834502         11.3923         7.17798 
       0.840667         11.2093         7.05447 
       0.846816         10.9936         6.93424 
       0.852925         10.8847         6.81757 
       0.859047         10.7548         6.70336 
       0.865192         10.6477         6.59141 
       0.871341         10.5413         6.48195 
       0.877463         10.3622         6.37548 
       0.883569         10.2228         6.27168 
       0.889708         10.0503         6.16967 
       0.895864           9.939         6.06968 
       0.902008         9.86794         5.97211 
       0.908149         9.75424         5.87676 
       0.914301         9.68646         5.78334 
       0.920448         9.51022         5.69204 
       0.926574         9.40349         5.60304 
       0.932687         9.28102         5.51613 
       0.938823         9.16583         5.43076 
       0.944975         9.05881           5.347 
       0.951105         8.95683         5.26532 
       0.957225         8.87315         5.18548 
       0.963368         8.80233         5.10703 
       0.969511         8.69543          5.0302 
       0.975621         8.61288         4.95537 
       0.981748         8.47867         4.88187 
       0.987916         8.42689         4.80941 
        0.99406         8.30122         4.73868 
        1.00019         8.18206         4.66952 
        1.00632         8.14452         4.60181 
        1.01246         8.06671         4.53534 
        1.01859         7.92156         4.47028 
        1.02471         7.88891         4.40659 
        1.03085         7.79879         4.34392 
        1.03698          7.6711         4.28259 
        1.04314         7.62405          4.2222 
        1.04929          7.5291         4.16311 
        1.05541         7.43916         4.10539 
        1.06154         7.38828         4.04862 
        1.06769         7.34916         3.99285 
        1.07382         7.24238          3.9383 
        1.07993         7.16782         3.88491 
        1.08607         7.10364         3.83228 
        1.09222         7.04472         3.78058 
        1.09836         6.95368         3.72989 
        1.10449         6.90274         3.68019 
        1.11063         6.81128         3.63135 
        1.11677          6.7776          3.5834 
         1.1229         6.73227         3.53641 
        1.12903         6.63776         3.49023 
        1.13518         6.55268         3.44483 
        1.14131         6.52466         3.40026 
        1.14745         6.45475         3.35651 
        1.15359         6.40961         3.31352 
        1.15973         6.33208         3.27126 
        1.16584         6.25075         3.22993 
        1.17197         6.21177         3.18926 
        1.17811         6.17237         3.14917 
        1.18424         6.11069         3.10987 
        1.19038         6.07847         3.07114 
        1.19652         6.00856         3.03308 
        1.20267         5.95283         2.99567 
        1.20881         5.92445         2.95889 
        1.21495         5.87162         2.92279 
        1.22108         5.79546          2.8873 
         1.2272         5.75066         2.85248 
        1.23334         5.70121         2.81815 
        1.23949         5.64242         2.78431 
        1.24562         5.61385         2.75112 
        1.25174          5.5693         2.71852 
        1.25789         5.51682         2.68634 
        1.26402         5.49084         2.65475 
        1.27014         5.43588         2.62373 
        1.27628          5.3756         2.59312 
        1.28244         5.32479         2.56294 
        1.28858         5.31984         2.53328 
        1.29471           5.254         2.50415 
        1.30084         5.19876         2.47551 
        1.30697         5.18468         2.44728 
        1.31312         5.10889         2.41944 
        1.31925         5.06506         2.39212 
        1.32537         5.04045         2.36526 
        1.33151         5.01544          2.3387 
        1.33765         4.96255         2.31258 
        1.34378         4.92702          2.2869 
        1.34992         4.88305          2.2616 
        1.35606         4.85251         2.23662 
         1.3622         4.82555         2.21206 
        1.36833         4.76538         2.18794 
        1.37445         4.74056         2.16418 
        1.38059          4.7172         2.14071 
        1.38675         4.66999         2.11752 
        1.39288         4.65449         2.09477 
        1.39901         4.59673         2.07237 
        1.40515         4.57587         2.05024 
         1.4113         4.53898         2.02845 
        1.41742         4.50125         2.00705 
        1.42355         4.46194         1.98593 
         1.4297         4.44912         1.96504 
        1.43585         4.41592         1.94446 
        1.44198         4.39242         1.92425 
        1.44809         4.35213         1.90437 
        1.45423         4.31914          1.8847 
        1.46036         4.28281         1.86534 
        1.46649          4.2654         1.84624 
        1.47263         4.22238         1.82739 
        1.47877         4.19409         1.80882 
        1.48491          4.1716         1.79047 
        1.49104         4.14337         1.77242 
        1.49718         4.11476          1.7546 
        1.50333         4.08899           1.737 
        1.50947         4.04999         1.71967 
         1.5156         4.03289         1.70261 
        1.52172         4.01274         1.68577 
        1.52787         3.98007         1.66913 
          1.534         3.94795         1.65274 
        1.54013         3.92459         1.63658 
        1.54627         3.89533         1.62061 
        1.55241         3.86736         1.60485 
        1.55855         3.85036         1.58932 
        1.56467         3.82069         1.57404 
         1.5708         3.80506         1.55892 
        1.57695         3.77498         1.54397 
        1.58308         3.73959         1.52925 
        1.58922         3.73288         1.51471 
        1.59535         3.71093         1.50037 
         1.6015         3.67334         1.48619 
        1.60764         3.64806         1.47221 
        1.61376         3.63612         1.45844 
        1.61989          3.6076         1.44484 
        1.62604         3.59144         1.43137 
        1.63218         3.57743         1.41809 
        1.63831         3.54088         1.40501 
        1.64444          3.5265         1.39209 
        1.65059         3.48969          1.3793 
        1.65673         3.49098         1.36668 
        1.66285         3.45519         1.35426 
        1.66898         3.43512         1.34198 
        1.67512         3.42041         1.32984 
        1.68127         3.39667         1.31783 
         1.6874         3.37702         1.30599 
        1.69353         3.34794         1.29431 
        1.69967         3.34207         1.28275 
        1.70581         3.32407         1.27133 
        1.71193         3.29506         1.26009 
        1.71806         3.28014         1.24896 
        1.72421           3.263         1.23795 
        1.73035         3.24426         1.22708 
        1.73649         3.22494         1.21634 
        1.74262          3.2028         1.20574 
        1.74876          3.1932         1.19526 
        1.75489         3.17108         1.18492 
        1.76101         3.15048         1.17471 
        1.76715         3.13648         1.16461 
        1.77329         3.11491         1.15461 
        1.77943         3.09405         1.14473 
        1.78557         3.08231         1.13497 
        1.79171         3.06658         1.12533 
        1.79785         3.04591         1.11579 
        1.80399         3.03297         1.10637 
        1.81012         3.01334         1.09707 
        1.81625         2.99865         1.08788 
        1.82239         2.98455         1.07879 
        1.82853         2.96182          1.0698 
        1.83466         2.94698         1.06092 
        1.84078         2.93862         1.05215 
        1.84692         2.92381         1.04346 
        1.85306         2.90389         1.03487 
         1.8592         2.88633         1.02638 
        1.86533         2.87091         1.01799 
        1.87147         2.85552         1.00969 
        1.87761         2.84254         1.00148 
        1.88375         2.82114        0.993362 
        1.88988         2.81555        0.985347 
        1.89601         2.79605        0.977416 
        1.90215         2.78068        0.969565 
        1.90829         2.76448        0.961805 
        1.91442         2.75132        0.954128 
        1.92056         2.74272        0.946542 
         1.9267         2.72278         0.93903 
        1.93284         2.70908        0.931595 
        1.93897         2.69408        0.924254 
        1.94509         2.68885        0.917008 
        1.95123         2.67191        0.909821 
        1.95737         2.65256        0.902705 
        1.96349         2.64635        0.895684 
        1.96964         2.63266        0.888717 
        1.97578         2.61405        0.881821 
        1.98192          2.6069        0.875011 
        1.98805         2.59153        0.868273 
        1.99419           2.576        0.861605 
        2.00033         2.56956        0.855003 
        2.00647         2.55359        0.848472 
         2.0126         2.54562        0.842021 
        2.01874         2.53043        0.835626 
        2.02488         2.51567        0.829292 
        2.03101         2.50599        0.823036 
        2.03714         2.48723        0.816849 
        2.04328         2.47798        0.810719 
        2.04941          2.4635        0.804657 
        2.05554         2.45726        0.798661 
        2.06167         2.43946        0.792717 
        2.06781         2.43606        0.786833 
        2.07396         2.42597        0.781001 
        2.08009         2.41345        0.775237 
        2.08622         2.39866        0.769538 
        2.09237         2.38333        0.763885 
        2.09851         2.38179        0.758287 
        2.10464         2.36985        0.752755 
        2.11077         2.35182        0.747284 
        2.11691         2.34134        0.741856 
        2.12305         2.33444        0.736481 
        2.12918         2.32589        0.731172 
        2.13531         2.31608        0.725915 
        2.14145         2.30303        0.720697 
         2.1476         2.29153        0.715524 
        2.15372         2.27933        0.710428 
        2.15985          2.2779        0.705377 
        2.16599         2.25814        0.700359 
        2.17213         2.24855        0.695397 
        2.17827         2.24427        0.690483 
         2.1844         2.23483         0.68562 
        2.19054         2.21774        0.680803 
        2.19666         2.21004        0.676039 
         2.2028         2.20087        0.671316 
        2.20893         2.19049        0.666636 
        2.21508         2.18329        0.661995 
        2.22122         2.17073        0.657397 
        2.22736         2.16082        0.652851 
        2.23349         2.15594         0.64835 
        2.23962         2.14425        0.643888 
        2.24577         2.13778        0.639465 
         2.2519         2.13205        0.635089 
        2.25802         2.11831         0.63076 
        2.26417         2.11232         0.62646 
        2.27031          2.1009        0.622196 
        2.27644         2.08911        0.617984 
        2.28257         2.07413        0.613811 
        2.28872         2.07707        0.609669 
        2.29486         2.06508        0.605565 
        2.30099         2.05496        0.601508 
        2.30712         2.04546        0.597486 
        2.31326         2.03592        0.593493 
         2.3194         2.02772         0.58954 
        2.32553         2.02425        0.585629 
        2.33166         2.01503        0.581755 
         2.3378         2.00588         0.57791 
        2.34394         1.99659        0.574099 
        2.35007         1.98723        0.570328 
        2.35619         1.98072        0.566595 
        2.36233         1.97192        0.562887 
        2.36848          1.9641        0.559204 
        2.37462         1.95971        0.555561 
        2.38075         1.94805        0.551955 
        2.38689         1.94375        0.548377 
        2.39303          1.9318        0.544832 
        2.39916         1.92623        0.541321 
        2.40529         1.91805        0.537842 
        2.41143         1.91018         0.53439 
        2.41757         1.90739        0.530967 
         2.4237         1.89684         0.52758 
        2.42983         1.88792        0.524224 
        2.43598         1.87955        0.520887 
        2.44211         1.87243        0.517585 
        2.44823         1.86516        0.514318 
        2.45437         1.85772        0.511071 
        2.46052         1.85363        0.507849 
        2.46665           1.846         0.50466 
        2.47279         1.83436          0.5015 
        2.47892         1.82922        0.498365 
        2.48507         1.82417        0.495253 
         2.4912          1.8136        0.492174 
