# k  (h/Mpc)    P(k)  (Mpc/h)^3    P_linear(k)  (Mpc/h)^3
     0.00783031         9458.06         9512.87 
       0.013688         11814.6         12086.8 
       0.019231         12484.4         12652.3 
      0.0249154         12148.6         12153.8 
      0.0312784           10874         10993.2 
      0.0375637          9547.6         9721.62 
      0.0433917         8608.15          8679.2 
      0.0492413         7719.93         7847.84 
      0.0555754         7101.52         7173.25 
      0.0619321         6407.36         6654.45 
       0.067871         6078.66          6230.8 
      0.0738098         5698.93         5806.38 
      0.0800417         5245.02         5332.15 
      0.0862327         4740.19         4839.84 
      0.0921407         4307.15          4379.9 
      0.0982031         3937.18         3952.13 
       0.104506         3528.82         3580.77 
       0.110769         3265.18          3293.6 
       0.116806         3114.86         3084.48 
       0.122832         2919.02          2921.9 
       0.129052            2777         2777.75 
       0.135211            2683         2637.23 
       0.141259         2501.38         2489.21 
       0.147318         2318.09         2329.25 
       0.153489         2184.45         2161.21 
       0.159709         2081.05          1998.1 
       0.165845         1897.74          1853.9 
       0.171974         1843.32         1732.74 
       0.178125         1770.02          1634.9 
       0.184229         1640.08         1557.43 
        0.19034         1609.72         1492.72 
       0.196428          1561.2         1433.74 
       0.202534         1466.02          1374.2 
       0.208729         1437.83         1310.22 
       0.214876         1378.23         1243.16 
       0.220989         1296.95         1175.35 
       0.227147         1264.18         1109.45 
        0.23329         1214.37         1049.31 
       0.239377         1196.83         997.156 
       0.245482         1137.39         952.565 
       0.251667         1094.52         914.074 
       0.257832         1081.08         880.303 
       0.263955         1028.05         849.045 
       0.270079         998.057         818.179 
        0.27624         956.776         786.554 
       0.282372         940.591         754.409 
        0.28843         930.521         722.618 
       0.294538         884.164         691.551 
       0.300721          861.24         662.073 
        0.30691         845.451         635.215 
       0.313033         810.379         611.373 
       0.319153         798.719         589.998 
       0.325316         786.703         570.316 
        0.33145         770.474         551.898 
       0.337538         743.615         534.159 
       0.343633         723.751          516.61 
       0.349808         707.544         498.923 
       0.355968         694.623         481.525 
       0.362074         672.743          464.78 
       0.368217          669.45         448.714 
       0.374374         658.035         433.617 
       0.380519          633.14         419.598 
       0.386598         627.202         406.724 
       0.392688         613.989         394.645 
        0.39888         597.882         382.989 
       0.405048         588.101         371.824 
       0.411186         585.664         361.002 
       0.417313         580.115          350.43 
       0.423458          562.45          340.08 
       0.429607         547.716         330.018 
       0.435692         540.381         320.435 
       0.441815         531.554         311.229 
       0.447964         521.599         302.443 
       0.454126         515.323          294.09 
       0.460267         507.171         286.181 
       0.466387          499.51         278.642 
        0.47254         491.679          271.34 
       0.478662         481.916         264.309 
       0.484765         477.177         257.502 
       0.490885         472.139         250.859 
       0.497035         463.137          244.38 
       0.503198         462.559         238.105 
       0.509342         451.737         232.077 
       0.515458         444.475         226.304 
       0.521598         438.272         220.736 
       0.527764         431.271         215.367 
       0.533884         429.396         210.237 
           0.54         423.487         205.286 
       0.546137          415.17         200.473 
       0.552299         414.318         195.785 
       0.558452         407.975         191.245 
       0.564573         403.643         186.859 
       0.570708          399.07         182.592 
       0.576825         391.764          178.47 
       0.582926         389.126         174.491 
       0.589034         383.668         170.639 
       0.595184         380.977         166.889 
       0.601379         374.743         163.232 
       0.607522         368.332         159.717 
       0.613639         366.711         156.321 
       0.619772         365.139         153.015 
       0.625918         359.214         149.797 
       0.632068         354.971         146.668 
       0.638161         351.889         143.654 
         0.6443         348.847         140.701 
       0.650464         344.026         137.821 
       0.656582         340.938         135.043 
       0.662703          338.54         132.345 
       0.668861         333.241         129.708 
       0.675024         331.386         127.143 
       0.681124          327.65         124.675 
       0.687237         325.006         122.267 
       0.693381         321.376         119.912 
       0.699536         318.496         117.614 
       0.705665         315.336         115.385 
       0.711789         313.475         113.217 
       0.717957         309.402         111.089 
        0.72409         306.279          109.03 
       0.730186         307.959         107.035 
       0.736317          302.27         105.081 
       0.742472          298.91         103.169 
       0.748622         295.598         101.306 
        0.75476         295.544         99.4946 
       0.760888         292.077           97.73 
       0.767043         289.065         96.0014 
       0.773185          287.58         94.3184 
       0.779291         283.047         92.6856 
       0.785407         282.294         91.0893 
       0.791564         279.368         89.5209 
       0.797719         275.166         87.9906 
       0.803834         277.303         86.5061 
       0.809972         273.583         85.0508 
       0.816124         270.128         83.6262 
       0.822261         267.612         82.2384 
       0.828378         267.491         80.8865 
       0.834502         263.391          79.564 
       0.840667          263.31         78.2628 
       0.846816         259.009         76.9945 
       0.852925         258.487         75.7625 
       0.859047         255.868          74.555 
       0.865192         255.544           73.37 
       0.871341          251.95         72.2101 
       0.877463          249.83         71.0806 
       0.883569         249.251         69.9784 
       0.889708         246.945          68.894 
       0.895864         245.009           67.83 
       0.902008         242.884         66.7908 
       0.908149          240.87         65.7741 
       0.914301         239.721         64.7771 
       0.920448         238.617         63.8018 
       0.926574         236.406         62.8501 
       0.932687         235.045           61.92 
       0.938823         233.101         61.0055 
       0.944975         231.841         60.1075 
       0.951105         229.587         59.2309 
       0.957225         228.019         58.3734 
       0.963368         227.252           57.53 
       0.969511         223.697         56.7034 
       0.975621         222.733         55.8976 
       0.981748          221.44         55.1054 
       0.987916         220.493         54.3238 
        0.99406         218.561         53.5603 
        1.00019         217.213         52.8131 
        1.00632         216.406         52.0809 
        1.01246         214.702         51.3616 
        1.01859         212.546         50.6571 
        1.02471         210.942         49.9668 
        1.03085         210.033          49.287 
        1.03698         208.504         48.6214 
        1.04314         208.189         47.9653 
        1.04929         206.711          47.323 
        1.05541         205.031          46.695 
        1.06154         203.497          46.077 
        1.06769         201.841         45.4692 
        1.07382         201.537         44.8745 
        1.07993         199.331         44.2918 
        1.08607         197.939          43.717 
        1.09222         196.971         43.1519 
        1.09836         196.033         42.5976 
        1.10449         194.178         42.0536 
        1.11063         193.049         41.5186 
        1.11677         192.207         40.9931 
         1.1229         190.662         40.4776 
        1.12903          189.92         39.9706 
        1.13518         188.468         39.4719 
        1.14131         187.492         38.9821 
        1.14745         185.831         38.5008 
        1.15359         184.142         38.0276 
        1.15973         183.839         37.5622 
        1.16584         183.002         37.1067 
        1.17197         181.717         36.6582 
        1.17811         180.037         36.2157 
        1.18424         179.213         35.7818 
        1.19038         178.038         35.3538 
        1.19652         176.637          34.933 
        1.20267         175.809         34.5191 
        1.20881          174.51          34.112 
        1.21495         174.186         33.7121 
        1.22108         172.788         33.3188 
         1.2272         171.412         32.9327 
        1.23334         170.778         32.5518 
        1.23949           170.2         32.1761 
        1.24562         168.846         31.8073 
        1.25174         167.599          31.445 
        1.25789         166.514         31.0871 
        1.26402         166.261         30.7356 
        1.27014         165.175         30.3903 
        1.27628         163.207         30.0493 
        1.28244         162.854         29.7129 
        1.28858         161.738         29.3821 
        1.29471         160.865         29.0572 
        1.30084         159.805         28.7374 
        1.30697         158.891          28.422 
        1.31312         157.878         28.1109 
        1.31925         156.688         27.8055 
        1.32537         156.323         27.5049 
        1.33151         155.356         27.2076 
        1.33765         153.867          26.915 
        1.34378         153.793         26.6272 
        1.34992         152.919         26.3435 
        1.35606          151.79         26.0633 
         1.3622         151.333         25.7876 
        1.36833         149.593         25.5167 
        1.37445         149.506         25.2497 
        1.38059         148.314         24.9858 
        1.38675         147.524          24.725 
        1.39288         146.468          24.469 
        1.39901         145.663         24.2167 
        1.40515         145.041         23.9675 
         1.4113         144.231         23.7218 
        1.41742         143.053         23.4806 
        1.42355         142.933         23.2422 
         1.4297         141.592         23.0065 
        1.43585         140.815         22.7741 
        1.44198         139.599         22.5459 
        1.44809         138.827         22.3212 
        1.45423         138.578         22.0987 
        1.46036         137.483         21.8797 
        1.46649         136.608         21.6636 
        1.47263         136.238         21.4502 
        1.47877         135.004         21.2398 
        1.48491         134.384          21.032 
        1.49104         132.878         20.8273 
        1.49718          132.96         20.6252 
        1.50333         132.317         20.4255 
        1.50947         131.412         20.2289 
         1.5156         130.577         20.0351 
        1.52172         129.871         19.8439 
        1.52787         129.174         19.6548 
          1.534         128.551         19.4683 
        1.54013         127.842         19.2845 
        1.54627         126.894         19.1028 
        1.55241         126.408         18.9234 
        1.55855         125.682         18.7465 
        1.56467         124.735         18.5723 
         1.5708          123.98         18.3999 
        1.57695         123.583         18.2295 
        1.58308         122.733         18.0615 
        1.58922         122.603         17.8956 
        1.59535         121.885         17.7319 
         1.6015         120.605         17.5699 
        1.60764         119.908         17.4101 
        1.61376         119.407         17.2527 
        1.61989         118.872         17.0971 
        1.62604         118.066         16.9431 
        1.63218          117.64         16.7911 
        1.63831         116.768         16.6413 
        1.64444         116.039         16.4932 
        1.65059         115.294         16.3467 
        1.65673         115.032          16.202 
        1.66285         114.455         16.0596 
        1.66898         113.472         15.9188 
        1.67512         113.108         15.7794 
        1.68127         112.407         15.6415 
         1.6874          111.56         15.5057 
        1.69353         110.946         15.3715 
        1.69967         110.547         15.2386 
        1.70581         110.127         15.1073 
        1.71193           109.3          14.978 
        1.71806         108.619           14.85 
        1.72421         108.063         14.7233 
        1.73035         107.636         14.5982 
        1.73649         106.861         14.4745 
        1.74262         106.417         14.3524 
        1.74876         105.621         14.2316 
        1.75489         105.261         14.1125 
        1.76101         104.575         13.9947 
        1.76715         103.831         13.8782 
        1.77329         103.496         13.7628 
        1.77943         102.705         13.6487 
        1.78557         102.386         13.5361 
        1.79171         101.934         13.4247 
        1.79785         101.011         13.3145 
        1.80399         100.793         13.2056 
        1.81012         99.9761         13.0981 
        1.81625         99.5672         12.9918 
        1.82239         99.1353         12.8865 
        1.82853         98.5399         12.7824 
        1.83466         97.7699         12.6796 
        1.84078         97.4235         12.5781 
        1.84692         97.1485         12.4775 
        1.85306         96.4553         12.3778 
         1.8592         96.1014         12.2794 
        1.86533         95.4491         12.1822 
        1.87147         94.9207         12.0858 
        1.87761         94.2624         11.9905 
        1.88375         93.7562         11.8963 
        1.88988         93.0579         11.8033 
        1.89601         92.9561         11.7112 
        1.90215           92.27           11.62 
        1.90829         91.6875         11.5298 
        1.91442          91.361         11.4405 
        1.92056         90.9266         11.3523 
         1.9267          90.287         11.2649 
        1.93284          89.911         11.1784 
        1.93897         89.5382          11.093 
        1.94509         88.8278         11.0086 
        1.95123         88.4348         10.9249 
        1.95737         88.0448          10.842 
        1.96349         87.5609         10.7602 
        1.96964         87.1812          10.679 
        1.97578         86.5133         10.5986 
        1.98192         86.0146         10.5192 
        1.98805         85.5985         10.4406 
        1.99419         85.1946         10.3628 
        2.00033         84.5569         10.2858 
        2.00647         84.3518         10.2095 
         2.0126         83.8916         10.1342 
        2.01874         83.6207         10.0595 
        2.02488         82.9794         9.98547 
        2.03101          82.619         9.91234 
        2.03714         82.2173         9.84002 
        2.04328         81.7527         9.76833 
        2.04941         81.2264         9.69742 
        2.05554         80.9089         9.62726 
        2.06167         80.2683         9.55771 
        2.06781         79.8518         9.48882 
        2.07396         79.6365         9.42052 
        2.08009          79.087         9.35301 
        2.08622         78.7927         9.28624 
        2.09237         78.4059         9.21999 
        2.09851         77.7175         9.15437 
        2.10464          77.583          9.0895 
        2.11077          77.167         9.02534 
        2.11691         76.8447         8.96165 
        2.12305         76.3257         8.89858 
        2.12918         75.9117         8.83626 
        2.13531         75.5736         8.77454 
        2.14145         74.9619         8.71326 
         2.1476         74.7614          8.6525 
        2.15372         74.3723         8.59262 
        2.15985         73.8813         8.53325 
        2.16599         73.5565         8.47427 
        2.17213         73.2023         8.41591 
        2.17827         72.6507         8.35812 
         2.1844         72.3423         8.30092 
        2.19054         72.1193         8.24424 
        2.19666         71.6478         8.18816 
         2.2028         71.2428         8.13256 
        2.20893         70.8631         8.07744 
        2.21508         70.4635         8.02278 
        2.22122          70.062          7.9686 
        2.22736         69.7801         7.91504 
        2.23349         69.4231         7.86198 
        2.23962         69.1902         7.80937 
        2.24577         68.6494         7.75721 
         2.2519         68.3441         7.70559 
        2.25802         67.9588         7.65453 
        2.26417         67.5559         7.60378 
        2.27031         67.2131         7.55345 
        2.27644         66.9934         7.50372 
        2.28257         66.6324         7.45444 
        2.28872         66.3088         7.40551 
        2.29486         66.0154         7.35704 
        2.30099         65.4882         7.30909 
        2.30712          65.354         7.26155 
        2.31326         65.0075         7.21435 
         2.3194          64.548          7.1676 
        2.32553         64.3066         7.12134 
        2.33166         63.8729         7.07551 
         2.3378         63.6194         7.03002 
        2.34394         63.3237         6.98492 
        2.35007         63.0072         6.94028 
        2.35619         62.6427         6.89608 
        2.36233         62.3455         6.85216 
        2.36848         62.0075         6.80853 
        2.37462         61.6395         6.76537 
        2.38075         61.3798         6.72263 
        2.38689         61.0698         6.68022 
        2.39303         60.7266         6.63819 
        2.39916         60.5148         6.59656 
        2.40529         60.1651         6.55529 
        2.41143         59.8732         6.51434 
        2.41757         59.4847         6.47373 
         2.4237         59.3772         6.43353 
        2.42983         58.9114         6.39368 
        2.43598         58.6922         6.35406 
        2.44211         58.2648         6.31485 
        2.44823         58.0513         6.27605 
        2.45437         57.7643         6.23747 
        2.46052         57.4158         6.19919 
        2.46665         57.0898         6.16129 
        2.47279         56.8639         6.12372 
        2.47892         56.6534         6.08644 
        2.48507         56.2623         6.04944 
         2.4912         56.0496         6.01281 
