# k  (h/Mpc)    P(k)  (Mpc/h)^3    P_linear(k)  (Mpc/h)^3
     0.00783031         13953.2         14201.8 
       0.013688         17352.8         17241.6 
       0.019231         17071.9         17054.6 
      0.0249154         15026.1         15331.8 
      0.0312784         12747.4         12869.4 
      0.0375637           10727         10707.1 
      0.0433917         9098.62         9228.67 
      0.0492413         8201.96         8240.46 
      0.0555754         7355.18         7558.37 
      0.0619321         7070.72         7051.95 
       0.067871         6410.51         6570.25 
      0.0738098         5860.36         6000.88 
      0.0800417         5157.05         5320.85 
      0.0862327         4570.06         4638.41 
      0.0921407         4092.27         4062.26 
      0.0982031         3616.02            3600 
       0.104506         3385.64         3268.54 
       0.110769         3155.27         3060.99 
       0.116806         2995.06         2927.55 
       0.122832         2872.49          2809.5 
       0.129052         2667.34         2664.33 
       0.135211         2503.38         2481.83 
       0.141259         2358.58         2274.45 
       0.147318         2185.76         2062.54 
       0.153489         1982.64         1868.34 
       0.159709         1862.64         1712.15 
       0.165845         1787.19         1600.95 
       0.171974          1695.8         1524.98 
       0.178125         1622.88          1469.6 
       0.184229         1560.19         1419.64 
        0.19034         1468.39         1362.57 
       0.196428         1433.16         1293.54 
       0.202534         1373.31         1214.17 
       0.208729         1297.64         1130.46 
       0.214876         1231.98         1052.57 
       0.220989         1185.71         986.395 
       0.227147          1132.2         933.537 
        0.23329         1088.21         893.255 
       0.239377          1068.8         861.645 
       0.245482         1000.69         833.351 
       0.251667         993.995         803.943 
       0.257832         954.214         771.485 
       0.263955          921.19         736.041 
       0.270079         885.836         699.145 
        0.27624         873.972         663.034 
       0.282372         837.371         630.346 
        0.28843         823.739         602.434 
       0.294538          781.71         578.738 
       0.300721         777.953         558.395 
        0.30691         744.649         540.155 
       0.313033         730.018         522.777 
       0.319153         712.118          505.03 
       0.325316         690.155         486.473 
        0.33145         671.556         467.547 
       0.337538         660.532         448.997 
       0.343633         642.039         431.358 
       0.349808         619.181         414.966 
       0.355968         614.831         400.313 
       0.362074         606.227          387.28 
       0.368217         588.401         375.322 
       0.374374         563.383          363.99 
       0.380519         562.357          352.95 
       0.386598         546.982         342.081 
       0.392688         544.343         331.187 
        0.39888         528.377         320.268 
       0.405048         518.546          309.74 
       0.411186          510.58         299.788 
       0.417313         500.418         290.515 
       0.423458         490.643         281.865 
       0.429607         483.223         273.774 
       0.435692         471.486         266.212 
       0.441815         467.402         258.899 
       0.447964         457.523         251.734 
       0.454126         448.458         244.703 
       0.460267         439.843         237.849 
       0.466387         434.878         231.195 
        0.47254         427.414         224.741 
       0.478662         425.871         218.612 
       0.484765         411.285         212.802 
       0.490885         407.727         207.255 
       0.497035         400.126         201.935 
       0.503198         395.124         196.826 
       0.509342         392.154         191.905 
       0.515458         388.072         187.141 
       0.521598         378.413         182.481 
       0.527764         372.382         177.935 
       0.533884         369.958         173.566 
           0.54         364.864         169.348 
       0.546137         363.147         165.265 
       0.552299         355.905          161.32 
       0.558452         354.104         157.535 
       0.564573         349.015         153.908 
       0.570708         342.968         150.394 
       0.576825         335.915         146.996 
       0.582926         334.345         143.701 
       0.589034         331.244         140.494 
       0.595184         328.246          137.36 
       0.601379         323.501         134.301 
       0.607522         318.864         131.362 
       0.613639         317.372         128.527 
       0.619772         310.301         125.772 
       0.625918         309.331         123.097 
       0.632068         304.266         120.502 
       0.638161         303.069         118.008 
         0.6443         298.038         115.569 
       0.650464         295.311          113.19 
       0.656582         293.056         110.895 
       0.662703         292.134         108.661 
       0.668861          286.98         106.474 
       0.675024         283.825         104.346 
       0.681124         282.007         102.298 
       0.687237          279.05         100.303 
       0.693381         274.925         98.3532 
       0.699536         272.347         96.4542 
       0.705665         270.104         94.6151 
       0.711789         268.319         92.8268 
       0.717957         266.487         91.0732 
        0.72409         263.898         89.3749 
       0.730186         260.714         87.7301 
       0.736317         258.082         86.1178 
       0.742472         256.584         84.5401 
       0.748622         254.265         83.0037 
        0.75476         251.797         81.5091 
       0.760888         248.949          80.054 
       0.767043         249.076         78.6293 
       0.773185          246.06         77.2429 
       0.779291         241.829         75.8983 
       0.785407         241.372         74.5843 
       0.791564         238.638         73.2937 
       0.797719         236.103         72.0347 
       0.803834         234.486         70.8136 
       0.809972          233.53         69.6168 
       0.816124         232.869         68.4453 
       0.822261         230.065         67.3042 
       0.828378         227.955         66.1929 
       0.834502         226.949          65.106 
       0.840667         224.264         64.0367 
       0.846816         222.676         62.9948 
       0.852925         221.713         61.9828 
       0.859047         219.781         60.9912 
       0.865192         217.203         60.0183 
       0.871341         215.569         59.0662 
       0.877463         214.334         58.1393 
       0.883569         213.614         57.2349 
       0.889708         211.152         56.3453 
       0.895864         209.002         55.4725 
       0.902008         207.989         54.6203 
       0.908149         207.137         53.7867 
       0.914301         204.391         52.9693 
       0.920448         203.261         52.1699 
       0.926574         201.696           51.39 
       0.932687         201.749         50.6278 
       0.938823         199.206         49.8785 
       0.944975         197.992         49.1429 
       0.951105         196.947         48.4249 
       0.957225         195.332         47.7226 
       0.963368         192.763          47.032 
       0.969511         192.129         46.3553 
       0.975621         190.354         45.6956 
       0.981748         190.407         45.0471 
       0.987916         188.494         44.4073 
        0.99406         186.599         43.7825 
        1.00019         186.557          43.171 
        1.00632         184.847         42.5719 
        1.01246         183.541         41.9834 
        1.01859         183.319         41.4071 
        1.02471         180.822         40.8424 
        1.03085         179.246         40.2864 
        1.03698         178.498          39.742 
        1.04314         176.857         39.2054 
        1.04929         175.986         38.6801 
        1.05541         175.852         38.1666 
        1.06154         173.881         37.6613 
        1.06769         173.672         37.1644 
        1.07382          172.09         36.6782 
        1.07993         170.703         36.2019 
        1.08607         170.149         35.7321 
        1.09222         169.219         35.2703 
        1.09836          167.84         34.8173 
        1.10449         166.063         34.3729 
        1.11063          164.79         33.9357 
        1.11677         164.509         33.5065 
         1.1229           163.2         33.0854 
        1.12903         162.499         32.6713 
        1.13518         161.618          32.264 
        1.14131         160.052         31.8639 
        1.14745         159.926          31.471 
        1.15359         158.663         31.0846 
        1.15973         157.673         30.7046 
        1.16584         156.279         30.3327 
        1.17197         155.818         29.9666 
        1.17811         154.705         29.6054 
        1.18424         153.961         29.2512 
        1.19038         153.562         28.9019 
        1.19652         152.247         28.5584 
        1.20267         151.591         28.2206 
        1.20881         150.296         27.8884 
        1.21495         149.568         27.5621 
        1.22108         148.663         27.2411 
         1.2272         147.457          26.926 
        1.23334         147.034         26.6152 
        1.23949         145.979         26.3086 
        1.24562         145.178         26.0078 
        1.25174         144.106         25.7121 
        1.25789         143.265         25.4201 
        1.26402         142.097         25.1333 
        1.27014         141.226         24.8516 
        1.27628         140.867         24.5734 
        1.28244         140.505          24.299 
        1.28858         139.399         24.0292 
        1.29471         138.045         23.7641 
        1.30084         137.858         23.5033 
        1.30697         136.563          23.246 
        1.31312         136.011         22.9922 
        1.31925         135.128          22.743 
        1.32537         134.575         22.4978 
        1.33151         133.333         22.2554 
        1.33765         132.771         22.0167 
        1.34378         132.176          21.782 
        1.34992         131.737         21.5506 
        1.35606         131.265         21.3221 
         1.3622         129.928         21.0973 
        1.36833         129.038         20.8764 
        1.37445         128.487         20.6587 
        1.38059          127.73         20.4435 
        1.38675         127.088         20.2309 
        1.39288         126.645         20.0221 
        1.39901          126.21         19.8165 
        1.40515         124.932         19.6132 
         1.4113         124.283          19.413 
        1.41742         123.589         19.2163 
        1.42355         122.893          19.022 
         1.4297          122.35         18.8298 
        1.43585         121.359         18.6404 
        1.44198         120.955         18.4543 
        1.44809         120.343         18.2711 
        1.45423         119.727         18.0898 
        1.46036         119.009         17.9112 
        1.46649         118.132         17.7351 
        1.47263         117.506         17.5611 
        1.47877         117.108         17.3896 
        1.48491         115.901         17.2201 
        1.49104         115.902         17.0533 
        1.49718         114.905         16.8886 
        1.50333         114.435         16.7257 
        1.50947         113.916         16.5654 
         1.5156         113.159         16.4074 
        1.52172         112.498         16.2515 
        1.52787         111.884         16.0973 
          1.534         111.313         15.9454 
        1.54013         110.736         15.7955 
        1.54627         110.254         15.6473 
        1.55241         109.357          15.501 
        1.55855         108.782         15.3568 
        1.56467         108.555         15.2149 
         1.5708         107.625         15.0743 
        1.57695         107.407         14.9354 
        1.58308         106.665         14.7985 
        1.58922          106.37         14.6632 
        1.59535         105.608         14.5297 
         1.6015         105.118         14.3977 
        1.60764         104.526         14.2674 
        1.61376         104.193         14.1391 
        1.61989         103.408         14.0122 
        1.62604         102.976         13.8867 
        1.63218         102.597         13.7627 
        1.63831         101.656         13.6406 
        1.64444         101.357         13.5199 
        1.65059         100.853         13.4005 
        1.65673         99.9593         13.2826 
        1.66285         99.7383         13.1664 
        1.66898         99.3181         13.0516 
        1.67512         98.6735          12.938 
        1.68127         98.1752         12.8256 
         1.6874         97.4154         12.7148 
        1.69353         97.0461         12.6054 
        1.69967         96.7338         12.4971 
        1.70581          96.133           12.39 
        1.71193         95.7128         12.2847 
        1.71806          95.206         12.1803 
        1.72421         94.4766         12.0769 
        1.73035         94.2594         11.9749 
        1.73649         93.7008         11.8741 
        1.74262         93.0473         11.7745 
        1.74876         92.7932          11.676 
        1.75489         92.0723         11.5789 
        1.76101         91.6286         11.4829 
        1.76715         91.0542         11.3878 
        1.77329         90.8545         11.2937 
        1.77943         90.0623         11.2007 
        1.78557         89.9509         11.1088 
        1.79171         89.1146         11.0179 
        1.79785         88.7575         10.9281 
        1.80399         88.3061         10.8393 
        1.81012         87.9809         10.7516 
        1.81625         87.4978         10.6649 
        1.82239         87.1307          10.579 
        1.82853         86.7022         10.4942 
        1.83466         86.1004         10.4103 
        1.84078          85.815         10.3275 
        1.84692         85.3072         10.2454 
        1.85306         84.8262         10.1641 
         1.8592         84.5391         10.0839 
        1.86533         83.9523         10.0046 
        1.87147         83.4919         9.92598 
        1.87761         83.1647         9.84822 
        1.88375         82.6225          9.7714 
        1.88988         82.2677         9.69547 
        1.89601         81.8134         9.62032 
        1.90215         81.3989         9.54592 
        1.90829         80.9606         9.47233 
        1.91442         80.6441         9.39953 
        1.92056         80.0676         9.32755 
         1.9267         79.8158         9.25627 
        1.93284         79.3384         9.18568 
        1.93897         78.9901         9.11598 
        1.94509         78.6663         9.04715 
        1.95123         78.2301         8.97886 
        1.95737          77.733         8.91123 
        1.96349         77.3061         8.84447 
        1.96964         76.9382         8.77821 
        1.97578         76.5445         8.71261 
        1.98192         76.4154         8.64781 
        1.98805         75.6876         8.58366 
        1.99419         75.4297         8.52016 
        2.00033         75.2236         8.45728 
        2.00647         74.6932         8.39505 
         2.0126         74.3151         8.33356 
        2.01874         73.7684         8.27259 
        2.02488         73.5019         8.21218 
        2.03101         73.1215         8.15249 
        2.03714         72.6253         8.09345 
        2.04328         72.4212         8.03493 
        2.04941         72.0916         7.97705 
        2.05554         71.8016         7.91977 
        2.06167         71.3827         7.86299 
        2.06781         70.8671         7.80675 
        2.07396         70.5559         7.75099 
        2.08009         70.3056         7.69587 
        2.08622         69.9421         7.64136 
        2.09237         69.5823         7.58726 
        2.09851         69.3571         7.53369 
        2.10464         68.8706         7.48072 
        2.11077         68.5611         7.42833 
        2.11691         68.2687         7.37633 
        2.12305         67.8342         7.32483 
        2.12918         67.5176         7.27394 
        2.13531         67.1765         7.22353 
        2.14145         66.7808         7.17349 
         2.1476          66.429         7.12387 
        2.15372         66.2371         7.07497 
        2.15985         65.8044         7.02648 
        2.16599         65.5074          6.9783 
        2.17213         65.2266         6.93064 
        2.17827         64.8517         6.88343 
         2.1844         64.4936          6.8367 
        2.19054         64.3367          6.7904 
        2.19666          63.903         6.74459 
         2.2028         63.8209         6.69917 
        2.20893         63.3221         6.65414 
        2.21508         63.0549         6.60948 
        2.22122         62.7385         6.56522 
        2.22736         62.4307         6.52146 
        2.23349         62.0455         6.47811 
        2.23962         61.7054         6.43513 
        2.24577         61.4341          6.3925 
         2.2519         61.1988         6.35033 
        2.25802         60.9269          6.3086 
        2.26417         60.5005         6.26713 
        2.27031         60.2571           6.226 
        2.27644         60.0262         6.18536 
        2.28257         59.7038         6.14509 
        2.28872         59.3682          6.1051 
        2.29486         58.9526         6.06548 
        2.30099         58.6945         6.02629 
        2.30712         58.5765         5.98744 
        2.31326         58.2526         5.94885 
         2.3194         57.9158         5.91064 
        2.32553          57.649         5.87282 
        2.33166         57.2904         5.83536 
         2.3378         56.9952         5.79817 
        2.34394         56.7457         5.76129 
        2.35007         56.4975         5.72479 
        2.35619         56.2435         5.68865 
        2.36233         55.9965         5.65274 
        2.36848         55.7177         5.61707 
        2.37462         55.3245         5.58178 
        2.38075         55.2298         5.54683 
        2.38689          54.899         5.51215 
        2.39303         54.5847         5.47778 
        2.39916         54.3764         5.44373 
        2.40529         54.1435         5.40998 
        2.41143         53.8784         5.37649 
        2.41757          53.554         5.34327 
         2.4237         53.4119          5.3104 
        2.42983         53.0012          5.2778 
        2.43598         52.7494          5.2454 
        2.44211         52.5653         5.21332 
        2.44823         52.3142         5.18158 
        2.45437         51.9991         5.15002 
        2.46052         51.7847          5.1187 
        2.46665         51.6081          5.0877 
        2.47279         51.2317         5.05696 
        2.47892         51.0693         5.02646 
        2.48507         50.8005         4.99618 
         2.4912         50.5835         4.96621 
