# k  (h/Mpc)    Pcb(k)  (Mpc/h)^3    Pcb_linear(k)  (Mpc/h)^3
     0.00783031         662.833          667.11 
       0.013688         872.298         880.469 
       0.019231         940.643          944.36 
      0.0249154         925.186          925.75 
      0.0312784         853.609         855.063 
      0.0375637         769.671         771.824 
      0.0433917         702.658         702.011 
      0.0492413         644.365         645.541 
      0.0555754         599.235         598.434 
      0.0619321         555.812         559.939 
       0.067871         524.774         526.047 
      0.0738098         489.666         490.465 
      0.0800417          450.63         450.447 
      0.0862327         409.151         409.808 
      0.0921407         372.408         373.105 
      0.0982031         340.602         340.176 
       0.104506           311.2         312.473 
       0.110769          290.32         291.324 
       0.116806         276.153         275.503 
       0.122832         261.377         262.183 
       0.129052         249.086         249.064 
       0.135211         236.174         235.404 
       0.141259          220.98         221.021 
       0.147318          205.18         206.144 
       0.153489         191.455         191.459 
       0.159709         178.843         178.107 
       0.165845         166.161         166.946 
       0.171974         158.961         157.875 
       0.178125         151.561         150.493 
       0.184229         144.438         144.254 
        0.19034         139.573         138.439 
       0.196428         133.595          132.58 
       0.202534         126.332         126.414 
       0.208729         120.896         119.919 
       0.214876         115.197         113.494 
       0.220989         107.864         107.443 
       0.227147         103.858         101.946 
        0.23329         99.2945         97.1796 
       0.239377         95.4521         93.1273 
       0.245482         91.5718         89.5801 
       0.251667         87.8471         86.3072 
       0.257832         85.5091         83.1686 
       0.263955         81.7524         80.0446 
       0.270079         78.6514         76.8752 
        0.27624         75.0643         73.6802 
       0.282372         72.1794         70.5802 
        0.28843         70.1691         67.6864 
       0.294538         67.2777         65.0024 
       0.300721         64.4133         62.5487 
        0.30691         62.7985         60.3314 
       0.313033         60.5577         58.3217 
       0.319153         59.3027         56.4298 
       0.325316         56.6465         54.5882 
        0.33145         54.8301         52.7826 
       0.337538         53.2257         51.0117 
       0.343633         51.6583         49.2716 
       0.349808         49.8648         47.5683 
       0.355968         48.2122         45.9532 
       0.362074         47.0551         44.4512 
       0.368217         45.6002         43.0434 
       0.374374         44.6529         41.7251 
       0.380519         42.9137         40.4862 
       0.386598         41.6513         39.3156 
       0.392688         40.4727         38.1818 
        0.39888         39.5739         37.0597 
       0.405048          38.556         35.9689 
       0.411186         37.4684         34.9143 
       0.417313         36.4497         33.8987 
       0.423458         35.3209         32.9225 
       0.429607          34.675         31.9922 
       0.435692         33.9599          31.118 
       0.441815         32.7816         30.2798 
       0.447964         31.8383         29.4753 
       0.454126         31.2754         28.7006 
       0.460267         30.8492         27.9542 
       0.466387         29.9447         27.2323 
        0.47254         29.4008         26.5281 
       0.478662         28.5782         25.8491 
       0.484765         27.9474         25.1944 
       0.490885         27.1753         24.5614 
       0.497035         26.5706           23.95 
       0.503198          26.026         23.3614 
       0.509342         25.3507         22.7967 
       0.515458         24.9774          22.255 
       0.521598         24.4215         21.7297 
       0.527764         24.0615         21.2191 
       0.533884         23.3698         20.7274 
           0.54         22.9453         20.2505 
       0.546137         22.2984         19.7864 
       0.552299          21.918         19.3351 
       0.558452         21.4794         18.8989 
       0.564573         21.1668         18.4789 
       0.570708         20.6895         18.0715 
       0.576825         20.3204         17.6785 
       0.582926         19.9177          17.299 
       0.589034         19.5672         16.9305 
       0.595184         19.2976         16.5704 
       0.601379          18.797         16.2181 
       0.607522         18.4847         15.8787 
       0.613639          18.086         15.5503 
       0.619772         17.8358         15.2305 
       0.625918         17.4705         14.9192 
       0.632068         17.2659         14.6168 
       0.638161         16.9273         14.3257 
         0.6443         16.6222         14.0407 
       0.650464         16.2333         13.7626 
       0.656582         16.1182         13.4942 
       0.662703         15.8884          13.233 
       0.668861         15.4677         12.9773 
       0.675024         15.2497         12.7283 
       0.681124         15.1916         12.4883 
       0.687237         14.8601         12.2541 
       0.693381         14.4927         12.0249 
       0.699536         14.4198         11.8012 
       0.705665         14.1591         11.5843 
       0.711789         13.8746         11.3731 
       0.717957         13.6115         11.1659 
        0.72409         13.4791         10.9651 
       0.730186         13.3652         10.7705 
       0.736317         13.0902         10.5797 
       0.742472         12.9254         10.3929 
       0.748622         12.7357         10.2108 
        0.75476         12.4312         10.0335 
       0.760888         12.3429         9.86075 
       0.767043         12.0861         9.69142 
       0.773185         11.9494         9.52647 
       0.779291         11.8849         9.36634 
       0.785407         11.6517         9.20972 
       0.791564         11.5201         9.05575 
       0.797719         11.3067         8.90542 
       0.803834         11.2015         8.75952 
       0.809972         11.0092         8.61641 
       0.816124         10.8793         8.47624 
       0.822261         10.7438          8.3396 
       0.828378         10.5836         8.20644 
       0.834502         10.4717          8.0761 
       0.840667         10.3683         7.94779 
       0.846816         10.1717         7.82267 
       0.852925         10.0621         7.70107 
       0.859047          9.9414         7.58183 
       0.865192         9.80804         7.46475 
       0.871341         9.66911         7.35011 
       0.877463         9.55794         7.23842 
       0.883569         9.46144         7.12937 
       0.889708         9.33219         7.02204 
       0.895864          9.2165         6.91667 
       0.902008          9.0884         6.81371 
       0.908149         8.97859         6.71293 
       0.914301         8.90442         6.61406 
       0.920448         8.78416          6.5173 
       0.926574         8.73578         6.42283 
       0.932687         8.59203         6.33047 
       0.938823         8.46663         6.23961 
       0.944975         8.39792         6.15035 
       0.951105         8.26743         6.06318 
       0.957225          8.2124         5.97786 
       0.963368         8.12991         5.89392 
       0.969511         8.03705         5.81161 
       0.975621         7.93655         5.73133 
       0.981748          7.8031         5.65239 
       0.987916         7.74163         5.57445 
        0.99406         7.69982         5.49829 
        1.00019         7.61318         5.42372 
        1.00632         7.53841         5.35061 
        1.01246         7.43367         5.27876 
        1.01859         7.35684         5.20836 
        1.02471         7.25091         5.13935 
        1.03085         7.21855         5.07136 
        1.03698         7.14214         5.00475 
        1.04314           7.076         4.93908 
        1.04929         6.97806         4.87475 
        1.05541         6.91202         4.81184 
        1.06154         6.85731          4.7499 
        1.06769          6.8253         4.68896 
        1.07382         6.70898         4.62931 
        1.07993         6.63198         4.57084 
        1.08607         6.59799         4.51315 
        1.09222         6.50886          4.4564 
        1.09836         6.49731         4.40071 
        1.10449         6.36328         4.34605 
        1.11063         6.33617         4.29227 
        1.11677         6.28414         4.23942 
         1.1229         6.21481         4.18757 
        1.12903          6.1769         4.13654 
        1.13518         6.08518         4.08634 
        1.14131         6.03519           4.037 
        1.14745         5.96704         3.98852 
        1.15359         5.92371         3.94083 
        1.15973         5.86519         3.89392 
        1.16584          5.8154         3.84798 
        1.17197         5.75709         3.80273 
        1.17811         5.70468         3.75807 
        1.18424         5.65421         3.71427 
        1.19038         5.60586         3.67105 
        1.19652         5.57009         3.62854 
        1.20267         5.52291         3.58671 
        1.20881         5.46721         3.54555 
        1.21495         5.42099         3.50512 
        1.22108         5.38138         3.46532 
         1.2272         5.31148         3.42624 
        1.23334         5.30327         3.38768 
        1.23949         5.24342         3.34963 
        1.24562         5.20066         3.31228 
        1.25174         5.16326         3.27555 
        1.25789         5.09828         3.23927 
        1.26402         5.05698         3.20362 
        1.27014         5.02122         3.16859 
        1.27628         4.97412         3.13398 
        1.28244         4.94834         3.09983 
        1.28858         4.91105         3.06624 
        1.29471         4.84843         3.03323 
        1.30084         4.81387         3.00074 
        1.30697         4.78717         2.96868 
        1.31312         4.74894         2.93705 
        1.31925         4.70977         2.90598 
        1.32537         4.67992         2.87539 
        1.33151         4.63316         2.84514 
        1.33765         4.60177         2.81535 
        1.34378         4.57196         2.78605 
        1.34992         4.53708         2.75714 
        1.35606         4.50141         2.72859 
         1.3622         4.47139          2.7005 
        1.36833         4.42448         2.67287 
        1.37445         4.38902         2.64565 
        1.38059         4.36194         2.61873 
        1.38675         4.32875         2.59212 
        1.39288         4.30605         2.56599 
        1.39901         4.26103         2.54023 
        1.40515         4.23289         2.51478 
         1.4113         4.20865         2.48969 
        1.41742         4.16818         2.46503 
        1.42355         4.13585         2.44067 
         1.4297         4.11884         2.41657 
        1.43585         4.08501          2.3928 
        1.44198         4.05594         2.36945 
        1.44809         4.03441         2.34645 
        1.45423         4.00654         2.32368 
        1.46036         3.97718         2.30126 
        1.46649         3.93194         2.27912 
        1.47263         3.92405         2.25726 
        1.47877         3.89899          2.2357 
        1.48491         3.86246         2.21439 
        1.49104          3.8397         2.19341 
        1.49718         3.81453         2.17268 
        1.50333         3.78614         2.15219 
        1.50947         3.75945         2.13201 
         1.5156          3.7381         2.11212 
        1.52172          3.7152         2.09248 
        1.52787         3.68991         2.07306 
          1.534         3.66838         2.05391 
        1.54013         3.63779         2.03502 
        1.54627         3.61519         2.01634 
        1.55241         3.58629         1.99789 
        1.55855         3.57043          1.9797 
        1.56467         3.54685         1.96179 
         1.5708         3.52327         1.94405 
        1.57695         3.49209         1.92651 
        1.58308         3.46869         1.90922 
        1.58922         3.46307         1.89213 
        1.59535          3.4293         1.87527 
         1.6015         3.40339         1.85858 
        1.60764         3.38852         1.84211 
        1.61376         3.36316         1.82589 
        1.61989         3.34331         1.80985 
        1.62604         3.31881         1.79396 
        1.63218         3.30949         1.77828 
        1.63831         3.28973         1.76283 
        1.64444         3.26574         1.74755 
        1.65059         3.25159         1.73242 
        1.65673         3.22282         1.71749 
        1.66285         3.20476         1.70278 
        1.66898          3.1898         1.68823 
        1.67512          3.1611         1.67383 
        1.68127         3.14105         1.65958 
         1.6874         3.13911         1.64553 
        1.69353         3.10329         1.63166 
        1.69967         3.09125         1.61791 
        1.70581         3.08033         1.60433 
        1.71193         3.04754         1.59096 
        1.71806         3.03334         1.57771 
        1.72421         3.02141         1.56459 
        1.73035         2.99693         1.55163 
        1.73649         2.99199         1.53883 
        1.74262         2.96955         1.52618 
        1.74876         2.94926         1.51366 
        1.75489         2.93736         1.50132 
        1.76101         2.91391         1.48911 
        1.76715         2.90338         1.47703 
        1.77329         2.88352         1.46506 
        1.77943         2.86949         1.45322 
        1.78557         2.85521         1.44153 
        1.79171         2.84289         1.42997 
        1.79785         2.82329         1.41854 
        1.80399         2.80788         1.40723 
        1.81012         2.78917         1.39606 
        1.81625         2.77118         1.38502 
        1.82239         2.75932         1.37408 
        1.82853         2.74441         1.36327 
        1.83466         2.72416         1.35259 
        1.84078         2.71173         1.34203 
        1.84692         2.69909         1.33157 
        1.85306         2.68938          1.3212 
         1.8592         2.67116         1.31097 
        1.86533           2.657         1.30085 
        1.87147         2.64133         1.29082 
        1.87761         2.63167          1.2809 
        1.88375         2.61626         1.27109 
        1.88988         2.60317          1.2614 
        1.89601         2.58584          1.2518 
        1.90215         2.57248          1.2423 
        1.90829          2.5646          1.2329 
        1.91442         2.54691          1.2236 
        1.92056         2.53896          1.2144 
         1.9267         2.52667         1.20529 
        1.93284         2.51061         1.19627 
        1.93897         2.49252         1.18736 
        1.94509         2.48912         1.17856 
        1.95123         2.47002         1.16982 
        1.95737         2.46132         1.16117 
        1.96349         2.44855         1.15263 
        1.96964         2.43718         1.14415 
        1.97578         2.42122         1.13575 
        1.98192         2.40726         1.12746 
        1.98805         2.40124         1.11924 
        1.99419         2.38633         1.11111 
        2.00033         2.37429         1.10306 
        2.00647          2.3668         1.09509 
         2.0126          2.3564         1.08721 
        2.01874         2.34202          1.0794 
        2.02488         2.32847         1.07166 
        2.03101          2.3203           1.064 
        2.03714         2.31141         1.05644 
        2.04328         2.29626         1.04893 
        2.04941         2.28514         1.04151 
        2.05554         2.27662         1.03416 
        2.06167         2.26414         1.02688 
        2.06781         2.25212         1.01966 
        2.07396         2.24359         1.01251 
        2.08009         2.23435         1.00543 
        2.08622         2.22251        0.998434 
        2.09237         2.21498        0.991489 
        2.09851         2.19883        0.984609 
        2.10464         2.19782        0.977806 
        2.11077         2.18438        0.971077 
        2.11691         2.17137        0.964396 
        2.12305         2.16368        0.957778 
        2.12918         2.15042        0.951238 
        2.13531         2.14139        0.944759 
        2.14145          2.1332        0.938327 
         2.1476         2.12274        0.931946 
        2.15372         2.10995        0.925658 
        2.15985         2.10302        0.919422 
        2.16599         2.09731        0.913225 
        2.17213         2.08659        0.907093 
        2.17827          2.0742        0.901019 
         2.1844         2.06656        0.895007 
        2.19054         2.05802        0.889047 
        2.19666         2.04935        0.883151 
         2.2028         2.03837        0.877303 
        2.20893          2.0289        0.871505 
        2.21508         2.02359        0.865753 
        2.22122         2.01677        0.860052 
        2.22736         1.99924        0.854415 
        2.23349         1.99537        0.848829 
        2.23962         1.98729        0.843291 
        2.24577         1.97789        0.837797 
         2.2519         1.96766        0.832361 
        2.25802         1.96515        0.826981 
        2.26417         1.95371        0.821635 
        2.27031         1.94519        0.816331 
        2.27644         1.93852         0.81109 
        2.28257         1.92501        0.805895 
        2.28872          1.9224        0.800736 
        2.29486          1.9127        0.795624 
        2.30099         1.90273        0.790567 
        2.30712         1.89918        0.785552 
        2.31326         1.89026        0.780572 
         2.3194         1.88134        0.775639 
        2.32553          1.8748        0.770757 
        2.33166         1.86936        0.765919 
         2.3378         1.85978        0.761117 
        2.34394         1.85082        0.756354 
        2.35007            1.84        0.751639 
        2.35619         1.83653         0.74697 
        2.36233         1.82698         0.74233 
        2.36848         1.82253         0.73772 
        2.37462          1.8166        0.733159 
        2.38075         1.80534        0.728641 
        2.38689          1.8014        0.724158 
        2.39303          1.7948        0.719714 
        2.39916         1.78396        0.715311 
        2.40529         1.78141        0.710946 
        2.41143         1.77097        0.706615 
        2.41757         1.76628        0.702317 
         2.4237         1.75982        0.698064 
        2.42983          1.7493        0.693847 
        2.43598         1.74661        0.689653 
        2.44211         1.73772        0.685501 
        2.44823         1.73194        0.681393 
        2.45437         1.72616        0.677307 
        2.46052         1.71934        0.673252 
        2.46665         1.71307        0.669237 
        2.47279         1.70432        0.665257 
        2.47892         1.69868        0.661306 
        2.48507         1.69238        0.657384 
         2.4912         1.68542        0.653502 
