#  k  (h/Mpc)          P(k)  (Mpc/h)^3     P_linear(k) (Mpc/h)^3
     0.00783031         5653.79          5682.9 
       0.013688         7251.98         7383.77 
       0.019231          7735.4         7811.53 
      0.0249154         7539.33         7537.32 
      0.0312784         6760.02          6807.1 
      0.0375637         5903.95         5975.74 
      0.0433917         5262.95         5281.76 
      0.0492413          4680.7         4727.73 
      0.0555754         4276.77         4290.54 
      0.0619321         3876.65         3978.75 
       0.067871         3694.13         3748.22 
      0.0738098         3490.27         3529.55 
      0.0800417          3251.2         3280.93 
      0.0862327          2963.7         3006.05 
      0.0921407         2695.73         2729.55 
      0.0982031         2448.32         2453.72 
       0.104506         2174.09         2199.14 
       0.110769         1982.71         1994.02 
       0.116806         1867.08         1844.61 
       0.122832         1740.46          1736.1 
       0.129052         1662.32         1653.33 
       0.135211         1610.94         1584.86 
       0.141259         1522.72         1517.24 
       0.147318         1427.03         1440.83 
       0.153489         1351.25         1352.07 
       0.159709         1279.55         1255.41 
       0.165845         1163.75         1160.27 
       0.171974         1116.86         1072.96 
       0.178125         1054.57         998.424 
       0.184229         976.068         939.416 
        0.19034         949.381         894.075 
       0.196428         917.583         859.059 
       0.202534         865.343         829.487 
       0.208729         851.986          800.57 
       0.214876         823.306         769.647 
       0.220989         772.536         735.326 
       0.227147         754.293         697.736 
        0.23329         722.812         659.155 
       0.239377          701.99         622.256 
       0.245482         663.138         588.659 
       0.251667         634.214         559.386 
       0.257832         625.183         535.169 
       0.263955         592.057           515.3 
       0.270079         573.458         498.294 
        0.27624          550.74         482.554 
       0.282372         539.139         466.974 
        0.28843         535.789         450.872 
       0.294538         509.738          433.73 
       0.300721         491.744         415.798 
        0.30691         483.252         397.914 
       0.313033         462.074         381.042 
       0.319153         453.256         365.555 
       0.325316         441.937         351.669 
        0.33145         431.273         339.505 
       0.337538         416.747         328.806 
       0.343633         404.475         319.022 
       0.349808         394.151         309.609 
       0.355968         386.107         300.335 
       0.362074         376.259         291.052 
       0.368217         371.486         281.601 
       0.374374         363.273         272.116 
       0.380519         348.582         262.861 
       0.386598         343.297         254.103 
       0.392688          335.38          245.89 
        0.39888         327.292          238.19 
       0.405048         321.541         231.132 
       0.411186         318.441         224.636 
       0.417313         312.379         218.527 
       0.423458         304.186         212.634 
       0.429607         297.598         206.875 
       0.435692          292.17         201.242 
       0.441815         286.687         195.631 
       0.447964         279.205         190.099 
       0.454126         274.871         184.706 
       0.460267          271.75         179.537 
       0.466387         266.604         174.642 
        0.47254         263.398         169.989 
       0.478662         255.707          165.61 
       0.484765         252.727         161.468 
       0.490885         249.144         157.498 
       0.497035         246.265         153.644 
       0.503198         243.023         149.884 
       0.509342           236.6         146.222 
       0.515458         234.162          142.66 
       0.521598         228.935         139.166 
       0.527764         226.348         135.757 
       0.533884         225.823          132.49 
           0.54         220.491         129.352 
       0.546137           215.7         126.329 
       0.552299         214.119         123.413 
       0.558452         210.418         120.616 
       0.564573         209.192         117.932 
       0.570708         204.457         115.328 
       0.576825         201.824         112.802 
       0.582926         199.706         110.346 
       0.589034         197.045          107.95 
       0.595184         195.466         105.602 
       0.601379         191.186         103.305 
       0.607522           188.2         101.094 
       0.613639         186.763         98.9597 
       0.619772         184.721         96.8886 
       0.625918         183.228         94.8814 
       0.632068         179.322         92.9375 
       0.638161         177.279         91.0695 
         0.6443         176.538         89.2401 
       0.650464         173.374         87.4521 
       0.656582         172.457         85.7231 
       0.662703         170.676         84.0381 
       0.668861          167.33         82.3878 
       0.675024         167.383         80.7801 
       0.681124         164.776         79.2319 
       0.687237         162.296          77.722 
       0.693381          161.42         76.2454 
       0.699536         159.365         74.8062 
       0.705665         157.335         73.4122 
       0.711789         155.556         72.0567 
       0.717957         153.909         70.7276 
        0.72409         152.955         69.4401 
       0.730186           152.3         68.1927 
       0.736317         149.639         66.9688 
       0.742472         147.914         65.7698 
       0.748622         145.757         64.6008 
        0.75476         145.894         63.4626 
       0.760888         144.607         62.3538 
       0.767043         142.229         61.2675 
       0.773185         140.705         60.2102 
       0.779291         139.162         59.1847 
       0.785407         137.809         58.1824 
       0.791564         137.291         57.1977 
       0.797719         135.698         56.2368 
       0.803834         134.991         55.3044 
       0.809972         134.253         54.3899 
       0.816124         132.515         53.4942 
       0.822261         131.021         52.6211 
       0.828378          130.84         51.7702 
       0.834502         128.688         50.9376 
       0.840667         128.207          50.118 
       0.846816         127.128          49.319 
       0.852925         125.755         48.5427 
       0.859047         124.967         47.7817 
       0.865192          123.72         47.0349 
       0.871341         122.393         46.3037 
       0.877463         121.662         45.5917 
       0.883569         121.411         44.8967 
       0.889708         120.405         44.2128 
       0.895864         119.229         43.5415 
       0.902008         118.268         42.8857 
       0.908149         116.754          42.244 
       0.914301         116.758         41.6144 
       0.920448         116.068         40.9984 
       0.926574         114.073         40.3972 
       0.932687         113.848         39.8093 
       0.938823         112.925         39.2312 
       0.944975         111.668         38.6634 
       0.951105         110.845         38.1089 
       0.957225         110.832         37.5664 
       0.963368         109.531         37.0327 
       0.969511         108.642         36.5095 
       0.975621         107.868         35.9993 
       0.981748         106.945         35.4976 
       0.987916         106.247         35.0025 
        0.99406         105.836         34.5188 
        1.00019         104.631         34.0453 
        1.00632         104.066         33.5812 
        1.01246         103.361         33.1251 
        1.01859         102.931         32.6784 
        1.02471         101.939         32.2406 
        1.03085         101.115         31.8093 
        1.03698          100.57          31.387 
        1.04314         99.8517         30.9706 
        1.04929         99.4141         30.5628 
        1.05541         98.7397         30.1641 
        1.06154         98.1565         29.7716 
        1.06769         97.1762         29.3856 
        1.07382         96.4576         29.0078 
        1.07993         96.1564         28.6375 
        1.08607         95.3342         28.2723 
        1.09222         95.0853         27.9131 
        1.09836         94.0943         27.5606 
        1.10449         93.6215         27.2147 
        1.11063         92.9271         26.8744 
        1.11677         92.4606         26.5401 
         1.1229         91.7082         26.2121 
        1.12903         91.5027         25.8895 
        1.13518         91.0636          25.572 
        1.14131         90.3065         25.2601 
        1.14745         89.5674         24.9536 
        1.15359         88.6906         24.6522 
        1.15973         88.5726         24.3557 
        1.16584         87.9542         24.0654 
        1.17197         87.2526         23.7795 
        1.17811         86.7957         23.4973 
        1.18424         86.0167         23.2206 
        1.19038         85.9933         22.9477 
        1.19652         85.4377         22.6792 
        1.20267         84.7737         22.4151 
        1.20881         84.2717         22.1552 
        1.21495         83.8897         21.8999 
        1.22108          83.453         21.6488 
         1.2272         82.7109         21.4022 
        1.23334         82.4129         21.1589 
        1.23949           81.91         20.9188 
        1.24562         81.2663         20.6832 
        1.25174         80.7918         20.4516 
        1.25789         80.8604         20.2228 
        1.26402         80.0991          19.998 
        1.27014         79.7145         19.7772 
        1.27628         79.0104         19.5591 
        1.28244         78.7792         19.3439 
        1.28858         78.3282         19.1323 
        1.29471         77.9026         18.9243 
        1.30084         77.2509         18.7197 
        1.30697         77.2688         18.5177 
        1.31312         76.5521         18.3185 
        1.31925         76.1063         18.1229 
        1.32537         75.7033         17.9304 
        1.33151         75.4364           17.74 
        1.33765         74.9152         17.5525 
        1.34378         74.6547         17.3681 
        1.34992         74.1873         17.1862 
        1.35606          73.709         17.0066 
         1.3622         73.3443         16.8299 
        1.36833         72.8524         16.6561 
        1.37445         72.2849         16.4849 
        1.38059         72.1736         16.3156 
        1.38675         71.4278         16.1482 
        1.39288         71.4658          15.984 
        1.39901         70.8146          15.822 
        1.40515         70.5572          15.662 
         1.4113         70.3537         15.5043 
        1.41742         69.9257         15.3494 
        1.42355         69.4267         15.1963 
         1.4297         69.0607         15.0448 
        1.43585         68.6171         14.8955 
        1.44198         68.2522         14.7488 
        1.44809         67.8879         14.6044 
        1.45423         67.5958         14.4614 
        1.46036         67.1807         14.3205 
        1.46649         67.0452         14.1815 
        1.47263            66.6         14.0443 
        1.47877          66.358         13.9089 
        1.48491         66.0157         13.7751 
        1.49104           65.47         13.6434 
        1.49718         65.2081         13.5133 
        1.50333         64.9313         13.3847 
        1.50947         64.5691         13.2581 
         1.5156         64.3102         13.1333 
        1.52172         63.8536         13.0101 
        1.52787         63.4993         12.8883 
          1.534         63.2959         12.7682 
        1.54013         63.0517         12.6497 
        1.54627         62.4817         12.5326 
        1.55241         62.1737         12.4169 
        1.55855         62.0703         12.3028 
        1.56467         61.5663         12.1906 
         1.5708         61.4254         12.0794 
        1.57695         61.0512         11.9694 
        1.58308         60.6522         11.8611 
        1.58922         60.4215         11.7541 
        1.59535         60.2345         11.6484 
         1.6015         60.1084         11.5439 
        1.60764         59.6933         11.4407 
        1.61376         59.3065         11.3391 
        1.61989         58.9249         11.2386 
        1.62604         58.7126         11.1392 
        1.63218         58.4203          11.041 
        1.63831          58.274         10.9442 
        1.64444         57.8875         10.8486 
        1.65059         57.6815         10.7539 
        1.65673         57.2217         10.6604 
        1.66285         57.1377         10.5683 
        1.66898         56.5675         10.4773 
        1.67512         56.5348         10.3871 
        1.68127         56.2104          10.298 
         1.6874         55.8701         10.2101 
        1.69353         55.7223         10.1233 
        1.69967          55.506         10.0373 
        1.70581         55.0887         9.95233 
        1.71193         54.8459         9.86868 
        1.71806         54.5978         9.78582 
        1.72421         54.3775         9.70375 
        1.73035          54.097         9.62272 
        1.73649         53.7503         9.54265 
        1.74262          53.403         9.46355 
        1.74876         53.2533          9.3853 
        1.75489         52.9534         9.30811 
        1.76101         52.7272         9.23181 
        1.76715         52.6881         9.15627 
        1.77329         52.1412         9.08148 
        1.77943          52.162         9.00751 
        1.78557         51.8836         8.93447 
        1.79171         51.6042         8.86223 
        1.79785          51.316         8.79079 
        1.80399         51.0847         8.72015 
        1.81012          50.881         8.65039 
        1.81625         50.5113         8.58143 
        1.82239         50.3236         8.51312 
        1.82853          50.195         8.44559 
        1.83466         49.8617         8.37887 
        1.84078         49.6462         8.31294 
        1.84692         49.3635         8.24762 
        1.85306         49.1394         8.18292 
         1.8592         49.0212         8.11903 
        1.86533         48.7376         8.05586 
        1.87147         48.5006         7.99329 
        1.87761         48.1824         7.93136 
        1.88375         48.1001         7.87017 
        1.88988         47.8657         7.80969 
        1.89601         47.5703         7.74981 
        1.90215         47.4006         7.69052 
        1.90829         47.1546         7.63189 
        1.91442         46.9148         7.57386 
        1.92056         46.7068         7.51649 
         1.9267         46.5673         7.45966 
        1.93284         46.2809         7.40339 
        1.93897         46.1497          7.3478 
        1.94509         45.8071         7.29291 
        1.95123          45.642         7.23844 
        1.95737         45.3325          7.1845 
        1.96349         45.2368         7.13124 
        1.96964         45.0518         7.07837 
        1.97578         44.8284         7.02602 
        1.98192         44.6032         6.97431 
        1.98805          44.375         6.92311 
        1.99419         44.2365         6.87243 
        2.00033         44.0493         6.82223 
        2.00647         43.8721         6.77256 
         2.0126         43.6018         6.72346 
        2.01874          43.343         6.67478 
        2.02488         43.1977         6.62654 
        2.03101         42.9748         6.57886 
        2.03714          42.798         6.53171 
        2.04328         42.6528         6.48497 
        2.04941         42.4019         6.43872 
        2.05554         42.2844         6.39296 
        2.06167         42.0733         6.34759 
        2.06781         41.8587         6.30265 
        2.07396         41.7031         6.25809 
        2.08009         41.5317         6.21403 
        2.08622         41.2943         6.17046 
        2.09237         41.1465         6.12721 
        2.09851         40.9018         6.08438 
        2.10464         40.6847         6.04203 
        2.11077         40.5784         6.00014 
        2.11691         40.3259         5.95855 
        2.12305         40.1611         5.91736 
        2.12918         39.9881         5.87665 
        2.13531         39.8417         5.83633 
        2.14145         39.6763          5.7963 
         2.1476         39.4246          5.7566 
        2.15372         39.3436         5.71747 
        2.15985         39.0656         5.67867 
        2.16599         38.9016         5.64012 
        2.17213         38.7548         5.60197 
        2.17827         38.5475         5.56418 
         2.1844         38.3969         5.52678 
        2.19054         38.2254         5.48971 
        2.19666         38.0099         5.45304 
         2.2028         37.9013         5.41667 
        2.20893          37.708         5.38061 
        2.21508         37.5828         5.34485 
        2.22122         37.3668         5.30939 
        2.22736         37.1546         5.27434 
        2.23349         37.0126         5.23961 
        2.23962         36.9066         5.20518 
        2.24577         36.7415         5.17103 
         2.2519         36.5355         5.13723 
        2.25802         36.3858         5.10379 
        2.26417         36.1882         5.07056 
        2.27031         36.1201         5.03759 
        2.27644         35.9991         5.00502 
        2.28257         35.7218         4.97273 
        2.28872         35.6435         4.94067 
        2.29486          35.432         4.90891 
        2.30099         35.2445         4.87748 
        2.30712         35.1413         4.84632 
        2.31326          34.977         4.81538 
         2.3194         34.8358         4.78473 
        2.32553          34.667          4.7544 
        2.33166         34.5023         4.72435 
         2.3378         34.4183         4.69452 
        2.34394         34.2014         4.66493 
        2.35007         34.0958         4.63565 
        2.35619         33.9607         4.60665 
        2.36233         33.7648         4.57783 
        2.36848         33.6228          4.5492 
        2.37462         33.5191         4.52088 
        2.38075         33.3488         4.49283 
        2.38689         33.1797         4.46499 
        2.39303         33.1494          4.4374 
        2.39916          32.854         4.41006 
        2.40529         32.6924         4.38296 
        2.41143         32.6395         4.35608 
        2.41757         32.4731          4.3294 
         2.4237         32.3332           4.303 
        2.42983         32.2171         4.27682 
        2.43598         32.0998         4.25079 
        2.44211         31.9389         4.22502 
        2.44823          31.743         4.19953 
        2.45437         31.7022         4.17417 
        2.46052         31.5121         4.14901 
        2.46665          31.348          4.1241 
        2.47279         31.1544          4.0994 
        2.47892          31.113         4.07489 
        2.48507         30.9531         4.05055 
         2.4912         30.8861         4.02647 
