# k  (h/Mpc)    P(k)  (Mpc/h)^3    P_linear(k)  (Mpc/h)^3
     0.00783031         16711.9         16946.2 
       0.013688         20724.6         20518.1 
       0.019231         20433.1           20384 
      0.0249154         18083.2         18475.6 
      0.0312784         15510.6         15683.4 
      0.0375637         13190.3         13181.1 
      0.0433917         11229.4         11427.8 
      0.0492413         10146.4         10216.7 
      0.0555754         9046.94         9344.17 
      0.0619321         8686.29         8679.81 
       0.067871         7830.04         8064.16 
      0.0738098         7161.98            7365 
      0.0800417         6314.65         6551.37 
      0.0862327          5635.5          5742.6 
      0.0921407         5084.59         5057.54 
      0.0982031         4513.11         4500.12 
       0.104506         4240.39          4089.1 
       0.110769         3944.42         3819.53 
       0.116806         3735.75         3637.45 
       0.122832         3566.35         3476.43 
       0.129052         3300.84         3288.54 
       0.135211         3102.45         3063.27 
       0.141259         2936.99         2813.48 
       0.147318         2736.63         2560.28 
       0.153489         2490.45         2327.39 
       0.159709         2348.43         2137.42 
       0.165845         2261.63         1998.63 
       0.171974         2146.51         1900.11 
       0.178125         2049.35         1825.63 
       0.184229         1963.35         1758.51 
        0.19034         1855.26         1684.66 
       0.196428         1810.13          1598.6 
       0.202534         1733.79         1501.81 
       0.208729          1646.1         1400.64 
       0.214876         1573.03         1306.43 
       0.220989         1515.65         1225.66 
       0.227147         1452.65          1160.1 
        0.23329         1396.21         1109.02 
       0.239377         1374.01         1068.12 
       0.245482         1288.56         1031.34 
       0.251667         1281.24         993.661 
       0.257832         1229.11         952.926 
       0.263955         1187.17         909.186 
       0.270079         1144.19         864.039 
        0.27624         1129.92          819.93 
       0.282372         1082.88         779.863 
        0.28843         1073.33         745.354 
       0.294538         1019.08          715.76 
       0.300721          1013.5         690.073 
        0.30691         973.317         666.945 
       0.313033         954.049         644.966 
       0.319153          935.65          622.73 
       0.325316         905.668         599.666 
        0.33145         884.189         576.314 
       0.337538         868.295         553.473 
       0.343633         847.937         531.757 
       0.349808         818.325         511.501 
       0.355968         812.744         493.319 
       0.362074         804.231         477.066 
       0.368217           779.1         462.106 
       0.374374         748.442         447.938 
       0.380519         749.333         434.155 
       0.386598         727.776         420.647 
       0.392688         725.194         407.153 
        0.39888         703.823         393.652 
       0.405048         693.881         380.652 
       0.411186          684.16         368.354 
       0.417313         669.903          356.87 
       0.423458         657.349         346.149 
       0.429607         649.272         336.102 
       0.435692         634.428         326.703 
       0.441815         628.807         317.623 
       0.447964         616.081         308.741 
       0.454126         608.932         300.029 
       0.460267         594.477         291.551 
       0.466387         587.708          283.33 
        0.47254         581.933         275.356 
       0.478662         577.276         267.774 
       0.484765         558.836         260.592 
       0.490885         555.031         253.733 
       0.497035         544.088          247.15 
       0.503198         539.824         240.824 
       0.509342         535.143         234.738 
       0.515458         531.072         228.854 
       0.521598         517.292         223.098 
       0.527764           508.9         217.482 
       0.533884         506.515         212.085 
           0.54          500.49          206.88 
       0.546137         497.217         201.845 
       0.552299          489.31         196.977 
       0.558452          486.27         192.303 
       0.564573         480.065         187.826 
       0.570708          473.61          183.49 
       0.576825         461.621         179.302 
       0.582926         462.287         175.241 
       0.589034         457.997         171.289 
       0.595184         454.102         167.425 
       0.601379          446.99         163.654 
       0.607522         440.986         160.033 
       0.613639          440.09         156.542 
       0.619772         430.962         153.152 
       0.625918         429.075          149.86 
       0.632068         422.552         146.667 
       0.638161         420.893         143.597 
         0.6443         414.059         140.594 
       0.650464         411.465         137.666 
       0.656582          407.97         134.843 
       0.662703          406.95         132.097 
       0.668861         400.181          129.41 
       0.675024         396.823         126.795 
       0.681124          393.66          124.28 
       0.687237         390.236         121.828 
       0.693381          384.81         119.433 
       0.699536         379.911           117.1 
       0.705665         378.185          114.84 
       0.711789         376.578         112.644 
       0.717957         373.241         110.491 
        0.72409          370.89         108.407 
       0.730186         365.791         106.389 
       0.736317         362.901         104.412 
       0.742472         360.951         102.477 
       0.748622         357.207         100.593 
        0.75476         352.734          98.761 
       0.760888         349.351         96.9774 
       0.767043         349.751         95.2311 
       0.773185         345.909          93.532 
       0.779291         341.266         91.8844 
       0.785407          340.14         90.2746 
       0.791564          335.99         88.6936 
       0.797719         333.847         87.1517 
       0.803834         330.377         85.6565 
       0.809972         329.842         84.1914 
       0.816124         328.791         82.7576 
       0.822261          324.71         81.3613 
       0.828378          322.34         80.0017 
       0.834502         319.301         78.6722 
       0.840667         316.932         77.3645 
       0.846816         315.449         76.0905 
       0.852925         313.409         74.8534 
       0.859047         311.215         73.6415 
       0.865192         307.512         72.4525 
       0.871341          305.15         71.2893 
       0.877463         304.694          70.157 
       0.883569         302.455         69.0523 
       0.889708          299.54          67.966 
       0.895864         298.062         66.9004 
       0.902008         295.635         65.8601 
       0.908149         293.074         64.8426 
       0.914301         290.416         63.8452 
       0.920448         288.903         62.8698 
       0.926574         285.446         61.9183 
       0.932687          285.62         60.9887 
       0.938823          282.56         60.0749 
       0.944975         282.091         59.1779 
       0.951105         279.627         58.3026 
       0.957225         277.777         57.4465 
       0.963368         274.203         56.6049 
       0.969511          273.46         55.7801 
       0.975621         271.331         54.9764 
       0.981748          270.52         54.1865 
       0.987916         268.863         53.4072 
        0.99406         265.131         52.6463 
        1.00019          264.37         51.9017 
        1.00632          263.11         51.1723 
        1.01246         260.913          50.456 
        1.01859         261.378         49.7545 
        1.02471         257.068         49.0674 
        1.03085         255.827         48.3909 
        1.03698         254.758         47.7287 
        1.04314         252.342         47.0761 
        1.04929         250.633         46.4373 
        1.05541         251.192          45.813 
        1.06154         247.127         45.1986 
        1.06769         246.766         44.5947 
        1.07382         244.866         44.0039 
        1.07993         243.376         43.4251 
        1.08607         242.834         42.8544 
        1.09222         240.544         42.2935 
        1.09836         238.945         41.7433 
        1.10449         236.732         41.2036 
        1.11063         234.863         40.6729 
        1.11677         234.496         40.1518 
         1.1229         232.556         39.6408 
        1.12903         231.549         39.1382 
        1.13518         229.876         38.6441 
        1.14131         228.162         38.1587 
        1.14745         228.081          37.682 
        1.15359         225.998         37.2134 
        1.15973         224.224         36.7527 
        1.16584         222.887         36.3018 
        1.17197         222.959         35.8579 
        1.17811         220.039         35.4201 
        1.18424         218.937         34.9909 
        1.19038         218.404         34.5676 
        1.19652         216.464         34.1515 
        1.20267         216.154         33.7422 
        1.20881         214.219         33.3398 
        1.21495         212.957         32.9446 
        1.22108         211.646         32.5559 
         1.2272         210.299         32.1744 
        1.23334         209.665         31.7981 
        1.23949         207.709          31.427 
        1.24562         207.009         31.0629 
        1.25174         205.782         30.7051 
        1.25789         204.345         30.3518 
        1.26402         202.454         30.0048 
        1.27014         201.416         29.6641 
        1.27628         200.453         29.3276 
        1.28244         200.419         28.9958 
        1.28858         198.202         28.6695 
        1.29471         197.001         28.3491 
        1.30084          196.03         28.0338 
        1.30697         194.598         27.7228 
        1.31312         193.128         27.4162 
        1.31925         192.294         27.1151 
        1.32537         191.859         26.8189 
        1.33151         189.948         26.5261 
        1.33765         188.723         26.2379 
        1.34378         188.161         25.9545 
        1.34992         187.197         25.6751 
        1.35606         187.129         25.3992 
         1.3622         185.127         25.1279 
        1.36833         183.562         24.8612 
        1.37445         182.975         24.5986 
        1.38059          181.45         24.3389 
        1.38675         180.914         24.0824 
        1.39288         179.937         23.8306 
        1.39901         179.349         23.5826 
        1.40515         177.553         23.3375 
         1.4113         176.838          23.096 
        1.41742         175.509         22.8589 
        1.42355         174.762         22.6246 
         1.4297         173.405          22.393 
        1.43585         172.746         22.1647 
        1.44198         171.954         21.9404 
        1.44809         171.087         21.7197 
        1.45423         170.267         21.5012 
        1.46036         169.004         21.2861 
        1.46649         167.902         21.0739 
        1.47263         166.962         20.8645 
        1.47877         165.892         20.6579 
        1.48491         164.441         20.4539 
        1.49104         164.389         20.2531 
        1.49718         162.802         20.0547 
        1.50333         162.143         19.8588 
        1.50947         161.254         19.6659 
         1.5156         160.282         19.4758 
        1.52172         159.592         19.2882 
        1.52787         158.132         19.1027 
          1.534          157.84         18.9199 
        1.54013         156.792         18.7397 
        1.54627         155.839         18.5615 
        1.55241         154.867         18.3857 
        1.55855         154.059         18.2123 
        1.56467         152.898         18.0416 
         1.5708         152.157         17.8727 
        1.57695         151.725         17.7057 
        1.58308         150.821         17.5412 
        1.58922         150.074         17.3787 
        1.59535         148.862         17.2183 
         1.6015         148.414         17.0597 
        1.60764         147.538         16.9032 
        1.61376         146.629         16.7491 
        1.61989         145.829         16.5968 
        1.62604         144.711         16.4461 
        1.63218          144.44         16.2973 
        1.63831         143.338         16.1507 
        1.64444         142.674         16.0059 
        1.65059         141.898         15.8625 
        1.65673         140.858          15.721 
        1.66285         140.336         15.5816 
        1.66898         139.347         15.4439 
        1.67512         139.023         15.3076 
        1.68127         137.876         15.1728 
         1.6874         137.022         15.0399 
        1.69353         136.562         14.9088 
        1.69967         135.631         14.7788 
        1.70581         134.925         14.6505 
        1.71193         134.142         14.5242 
        1.71806         133.589         14.3991 
        1.72421          132.86         14.2753 
        1.73035         132.529          14.153 
        1.73649         131.586         14.0322 
        1.74262         130.703         13.9129 
        1.74876         130.141         13.7949 
        1.75489         129.284         13.6785 
        1.76101         128.338         13.5636 
        1.76715         128.071         13.4497 
        1.77329         127.521         13.3371 
        1.77943         126.633         13.2256 
        1.78557         126.192         13.1157 
        1.79171          125.26         13.0069 
        1.79785         124.563         12.8994 
        1.80399          123.87         12.7931 
        1.81012         123.313         12.6882 
        1.81625         122.782         12.5844 
        1.82239         122.168         12.4817 
        1.82853         121.348         12.3802 
        1.83466         120.672         12.2799 
        1.84078         120.145         12.1808 
        1.84692         119.135         12.0827 
        1.85306         118.988         11.9855 
         1.8592         118.119         11.8896 
        1.86533         117.418         11.7947 
        1.87147         116.737         11.7008 
        1.87761         115.992         11.6079 
        1.88375         115.399         11.5161 
        1.88988         114.811         11.4253 
        1.89601         114.241         11.3355 
        1.90215         113.624         11.2466 
        1.90829         113.066         11.1587 
        1.91442         112.568         11.0718 
        1.92056         111.754         10.9858 
         1.9267         111.466         10.9007 
        1.93284         110.719         10.8164 
        1.93897           110.1         10.7331 
        1.94509         109.667          10.651 
        1.95123         109.057         10.5694 
        1.95737         108.497         10.4887 
        1.96349         107.898          10.409 
        1.96964         106.991           10.33 
        1.97578         106.464         10.2517 
        1.98192         106.205         10.1744 
        1.98805         105.499         10.0978 
        1.99419          105.09         10.0221 
        2.00033         104.356         9.94708 
        2.00647         104.041         9.87286 
         2.0126         103.245         9.79953 
        2.01874         102.668         9.72683 
        2.02488         102.392         9.65481 
        2.03101         101.573         9.58365 
        2.03714         101.051         9.51327 
        2.04328         100.587         9.44352 
        2.04941         100.042         9.37452 
        2.05554         99.4564         9.30627 
        2.06167         99.1382         9.23861 
        2.06781         98.3585          9.1716 
        2.07396         98.0776         9.10517 
        2.08009         97.5708         9.03951 
        2.08622         96.8769         8.97458 
        2.09237         96.5106         8.91015 
        2.09851         95.9907         8.84635 
        2.10464           95.55         8.78328 
        2.11077         95.0081          8.7209 
        2.11691          94.652         8.65899 
        2.12305         93.9863         8.59767 
        2.12918         93.4057          8.5371 
        2.13531         93.0409         8.47711 
        2.14145         92.3263         8.41755 
         2.1476         91.8893          8.3585 
        2.15372         91.5735         8.30032 
        2.15985         91.1184         8.24262 
        2.16599         90.4623         8.18531 
        2.17213         90.1159         8.12861 
        2.17827          89.634         8.07246 
         2.1844         89.0799         8.01689 
        2.19054         88.8021         7.96182 
        2.19666         88.3608         7.90735 
         2.2028         87.8248         7.85334 
        2.20893         87.4439         7.79981 
        2.21508         86.9435         7.74671 
        2.22122          86.487          7.6941 
        2.22736         86.0162         7.64208 
        2.23349         85.6542         7.59056 
        2.23962         85.2774         7.53948 
        2.24577         84.8172         7.48883 
         2.2519          84.466         7.43872 
        2.25802         83.8488         7.38915 
        2.26417         83.5076         7.33989 
        2.27031         83.0639         7.29103 
        2.27644         82.5277         7.24276 
        2.28257         82.1041         7.19493 
        2.28872         81.9318         7.14744 
        2.29486         81.2704          7.1004 
        2.30099         80.7674         7.05387 
        2.30712         80.5681         7.00774 
        2.31326         80.1084         6.96194 
         2.3194         79.6696         6.91658 
        2.32553         79.3763          6.8717 
        2.33166         78.9532         6.82723 
         2.3378          78.401          6.7831 
        2.34394         78.0532         6.73934 
        2.35007         77.7408         6.69604 
        2.35619         77.3462         6.65316 
        2.36233          76.868         6.61056 
        2.36848         76.4788         6.56825 
        2.37462         76.0434         6.52639 
        2.38075         75.7715         6.48494 
        2.38689         75.3362         6.44382 
        2.39303         74.8539         6.40306 
        2.39916          74.594         6.36269 
        2.40529         74.3691         6.32268 
        2.41143         73.7339         6.28298 
        2.41757         73.5373         6.24361 
         2.4237         73.1686         6.20464 
        2.42983         72.7354         6.16601 
        2.43598         72.3322         6.12761 
        2.44211         72.1543          6.0896 
        2.44823         71.6939           6.052 
        2.45437         71.1819         6.01461 
        2.46052         70.9279         5.97751 
        2.46665         70.6785         5.94078 
        2.47279         70.1911         5.90438 
        2.47892         69.9016         5.86825 
        2.48507         69.5071          5.8324 
         2.4912         69.2131         5.79691 
