# k  (h/Mpc)    Pcb(k)  (Mpc/h)^3    Pcb_linear(k)  (Mpc/h)^3
     0.00783031          8692.4            8804 
       0.013688         10737.5           10676 
       0.019231           10635         10613.9 
      0.0249154         9485.95         9624.43 
      0.0312784         8126.03         8172.36 
      0.0375637         6888.81         6869.81 
      0.0433917         5898.99         5956.77 
      0.0492413         5313.61            5326 
      0.0555754         4777.34         4871.51 
      0.0619321         4547.95         4525.43 
       0.067871         4135.53         4204.62 
      0.0738098         3778.27         3840.22 
      0.0800417         3339.14         3416.09 
      0.0862327         2963.53         2994.44 
      0.0921407         2648.74         2637.28 
      0.0982031         2346.83         2346.65 
       0.104506         2186.06         2132.35 
       0.110769         2034.91          1991.8 
       0.116806         1921.52         1896.87 
       0.122832         1842.64         1812.92 
       0.129052         1714.47         1714.96 
       0.135211         1606.13         1597.49 
       0.141259         1505.64         1467.23 
       0.147318         1391.23          1335.2 
       0.153489         1262.63         1213.75 
       0.159709         1181.12         1114.69 
       0.165845         1127.12         1042.31 
       0.171974         1064.63         990.932 
       0.178125         1020.84         952.096 
       0.184229         983.464         917.094 
        0.19034         921.407         878.585 
       0.196428         897.588         833.702 
       0.202534         860.191         783.229 
       0.208729         808.388         730.466 
       0.214876         760.269         681.332 
       0.220989         730.778         639.213 
       0.227147         692.571         605.025 
        0.23329         665.033         578.387 
       0.239377         650.643         557.052 
       0.245482         609.079         537.871 
       0.251667         602.801         518.221 
       0.257832         580.416         496.979 
       0.263955         558.686         474.168 
       0.270079         535.949         450.623 
        0.27624         526.391          427.62 
       0.282372         504.164         406.723 
        0.28843         489.163         388.727 
       0.294538           465.9         373.294 
       0.300721         462.251         359.896 
        0.30691          441.17         347.834 
       0.313033         431.808         336.373 
       0.319153         416.876         324.776 
       0.325316         405.262         312.746 
        0.33145         392.208         300.568 
       0.337538         386.248         288.656 
       0.343633         373.098          277.33 
       0.349808          360.58         266.766 
       0.355968         356.025         257.284 
       0.362074         348.029         248.808 
       0.368217         338.507         241.005 
       0.374374         325.587         233.616 
       0.380519         321.804         226.428 
       0.386598         313.557         219.382 
       0.392688         310.186         212.346 
        0.39888         301.627         205.304 
       0.405048          294.57         198.525 
       0.411186         288.519         192.111 
       0.417313         282.919         186.121 
       0.423458          277.26          180.53 
       0.429607          271.37          175.29 
       0.435692         263.797         170.388 
       0.441815         261.719         165.653 
       0.447964         256.655         161.021 
       0.454126         247.086         156.477 
       0.460267         244.028         152.055 
       0.466387         241.079         147.768 
        0.47254         235.657         143.609 
       0.478662          234.52         139.655 
       0.484765         227.066         135.909 
       0.490885         224.053         132.332 
       0.497035         220.746         128.898 
       0.503198         215.476         125.599 
       0.509342         213.111         122.425 
       0.515458         210.194         119.356 
       0.521598          206.47         116.355 
       0.527764         203.411         113.426 
       0.533884         200.721         110.611 
           0.54         197.579         107.896 
       0.546137         196.327          105.27 
       0.552299         192.447         102.732 
       0.558452         190.027         100.294 
       0.564573         186.939         97.9588 
       0.570708         183.438         95.6977 
       0.576825         181.159         93.5131 
       0.582926         178.391         91.3956 
       0.589034         176.249         89.3341 
       0.595184         174.279         87.3192 
       0.601379         172.321         85.3521 
       0.607522         168.771         83.4636 
       0.613639         167.926         81.6432 
       0.619772         164.297         79.8753 
       0.625918         162.752         78.1584 
       0.632068         160.818         76.4927 
       0.638161         159.624         74.8916 
         0.6443         157.279         73.3255 
       0.650464         155.693         71.7988 
       0.656582          153.83         70.3263 
       0.662703         152.007         68.8939 
       0.668861         149.655         67.4927 
       0.675024         147.943         66.1291 
       0.681124         147.106          64.817 
       0.687237          144.55         63.5384 
       0.693381         142.544         62.2892 
       0.699536         141.559         61.0724 
       0.705665         141.368         59.8942 
       0.711789         138.281         58.7488 
       0.717957         137.861          57.626 
        0.72409          135.86          56.539 
       0.730186         133.813         55.4866 
       0.736317         133.016         54.4552 
       0.742472         132.115         53.4462 
       0.748622         130.841         52.4637 
        0.75476          129.65         51.5081 
       0.760888         127.849         50.5778 
       0.767043          127.18         49.6671 
       0.773185         125.815         48.7809 
       0.779291         123.975         47.9216 
       0.785407         123.317         47.0821 
       0.791564         122.225         46.2575 
       0.797719         120.312         45.4533 
       0.803834         119.786         44.6736 
       0.809972         118.357         43.9094 
       0.816124         118.022         43.1617 
       0.822261         116.732         42.4334 
       0.828378         115.659         41.7243 
       0.834502         115.154         41.0309 
       0.840667         113.561         40.3489 
       0.846816         112.383         39.6845 
       0.852925         111.696         39.0393 
       0.859047         110.329         38.4072 
       0.865192         109.727         37.7871 
       0.871341         108.739         37.1804 
       0.877463          107.61         36.5899 
       0.883569         106.975         36.0138 
       0.889708         106.166         35.4472 
       0.895864         105.204         34.8914 
       0.902008         104.409         34.3489 
       0.908149         103.841         33.8182 
       0.914301         102.745          33.298 
       0.920448         102.028         32.7893 
       0.926574         101.313         32.2931 
       0.932687         101.073         31.8082 
       0.938823         99.4839         31.3317 
       0.944975         98.6142         30.8638 
       0.951105         98.1018         30.4073 
       0.957225         96.9755         29.9608 
       0.963368         96.4099         29.5219 
       0.969511         96.1337         29.0918 
       0.975621         95.6355         28.6726 
       0.981748         94.7962         28.2606 
       0.987916         93.8717         27.8542 
        0.99406         93.2701         27.4573 
        1.00019         92.6132          27.069 
        1.00632         92.0158         26.6886 
        1.01246         91.3492          26.315 
        1.01859         90.1782         25.9491 
        1.02471         90.1906         25.5908 
        1.03085         89.2683         25.2379 
        1.03698         88.7809         24.8926 
        1.04314         87.9274         24.5522 
        1.04929          87.423         24.2191 
        1.05541         86.7227         23.8935 
        1.06154          86.416         23.5731 
        1.06769         85.9911         23.2581 
        1.07382         85.5222         22.9499 
        1.07993         84.8801         22.6481 
        1.08607         84.2056         22.3505 
        1.09222         83.8313         22.0579 
        1.09836           83.16          21.771 
        1.10449         82.6972         21.4895 
        1.11063         82.0922         21.2127 
        1.11677         81.6984         20.9409 
         1.1229         80.8601         20.6744 
        1.12903         80.1235         20.4123 
        1.13518          80.379         20.1546 
        1.14131         79.7381         19.9014 
        1.14745         78.9065         19.6528 
        1.15359         78.6004         19.4084 
        1.15973         78.1511         19.1681 
        1.16584         77.5727          18.933 
        1.17197         77.1545         18.7015 
        1.17811         76.7082         18.4731 
        1.18424         76.1342         18.2493 
        1.19038         75.6695         18.0285 
        1.19652         75.3801         17.8115 
        1.20267            74.7         17.5981 
        1.20881         74.3669         17.3882 
        1.21495         73.8184         17.1821 
        1.22108         73.4901         16.9793 
         1.2272         72.7998         16.7804 
        1.23334          72.558         16.5841 
        1.23949         72.1726         16.3906 
        1.24562         71.7701         16.2007 
        1.25174          71.378          16.014 
        1.25789         71.0613         15.8298 
        1.26402          70.646         15.6488 
        1.27014         69.9538         15.4711 
        1.27628         69.7796         15.2957 
        1.28244         69.2187         15.1226 
        1.28858         68.9804         14.9524 
        1.29471         68.6571         14.7853 
        1.30084         68.2108         14.6208 
        1.30697         67.7912         14.4587 
        1.31312         67.3985         14.2987 
        1.31925         67.1437         14.1417 
        1.32537         66.8495         13.9873 
        1.33151         66.1602         13.8345 
        1.33765         65.8992         13.6842 
        1.34378         65.5056         13.5364 
        1.34992         65.2597         13.3907 
        1.35606         64.8917         13.2468 
         1.3622         64.3538         13.1053 
        1.36833          64.186         12.9662 
        1.37445         63.8437         12.8292 
        1.38059         63.3542         12.6938 
        1.38675         63.0363           12.56 
        1.39288         62.6722         12.4287 
        1.39901         62.5424         12.2994 
        1.40515         62.1396         12.1715 
         1.4113         61.8235         12.0456 
        1.41742         61.6584         11.9219 
        1.42355         61.0982         11.7997 
         1.4297         60.8955         11.6789 
        1.43585         60.4526         11.5599 
        1.44198         60.1966         11.4429 
        1.44809         59.9502         11.3278 
        1.45423         59.6434         11.2138 
        1.46036         59.4145         11.1017 
        1.46649         59.0573          10.991 
        1.47263         58.6498         10.8817 
        1.47877         58.4792          10.774 
        1.48491         58.2906         10.6676 
        1.49104         57.8307         10.5629 
        1.49718         57.3757         10.4594 
        1.50333         57.2297         10.3572 
        1.50947         56.9656         10.2566 
         1.5156         56.6387         10.1575 
        1.52172         56.4558         10.0597 
        1.52787         56.2956         9.96293 
          1.534          55.894         9.86759 
        1.54013         55.5692          9.7736 
        1.54627         55.3838         9.68067 
        1.55241         54.9594         9.58893 
        1.55855         54.6999         9.49851 
        1.56467         54.3032         9.40952 
         1.5708         54.3201         9.32141 
        1.57695         54.0336          9.2343 
        1.58308         53.6456         9.14851 
        1.58922         53.6188         9.06376 
        1.59535         53.3747         8.98011 
         1.6015         52.8445          8.8974 
        1.60764         52.7048         8.81578 
        1.61376         52.4288          8.7354 
        1.61989         52.1037         8.65597 
        1.62604         51.9953         8.57735 
        1.63218         51.8277         8.49976 
        1.63831         51.5129          8.4233 
        1.64444         51.2265         8.34776 
        1.65059         50.8919         8.27297 
        1.65673         50.7367         8.19918 
        1.66285          50.425          8.1265 
        1.66898         50.2172         8.05468 
        1.67512         49.9208         7.98359 
        1.68127         49.6515         7.91329 
         1.6874          49.537           7.844 
        1.69353         49.2335         7.77558 
        1.69967          49.005         7.70782 
        1.70581         48.9333         7.64089 
        1.71193          48.682         7.57501 
        1.71806         48.2235         7.50978 
        1.72421         48.1443         7.44518 
        1.73035         47.8902         7.38142 
        1.73649         47.4925         7.31841 
        1.74262         47.4854          7.2562 
        1.74876         47.2733         7.19466 
        1.75489          46.997         7.13397 
        1.76101         46.8238           7.074 
        1.76715         46.5376         7.01463 
        1.77329         46.3461         6.95587 
        1.77943           46.13         6.89776 
        1.78557         45.9736         6.84041 
        1.79171         45.6895         6.78369 
        1.79785         45.4949         6.72761 
        1.80399         45.3534         6.67217 
        1.81012          45.147         6.61744 
        1.81625         44.7467         6.56334 
        1.82239         44.6666         6.50977 
        1.82853         44.3315         6.45682 
        1.83466         44.2495         6.40452 
        1.84078         43.9037         6.35285 
        1.84692         43.7542         6.30167 
        1.85306          43.566         6.25098 
         1.8592         43.2955         6.20094 
        1.86533         43.1915         6.15148 
        1.87147         43.0319         6.10249 
        1.87761         42.8651         6.05402 
        1.88375         42.6073         6.00613 
        1.88988         42.5706         5.95882 
        1.89601         42.2441         5.91198 
        1.90215         42.0827         5.86562 
        1.90829         41.9843         5.81977 
        1.91442         41.7232         5.77441 
        1.92056         41.4994         5.72958 
         1.9267         41.2396         5.68518 
        1.93284         41.1151         5.64122 
        1.93897         40.9687         5.59781 
        1.94509         40.6866         5.55495 
        1.95123         40.6257         5.51243 
        1.95737         40.3626         5.47033 
        1.96349         40.1758         5.42878 
        1.96964         40.0933         5.38754 
        1.97578         39.8308         5.34671 
        1.98192         39.6824         5.30638 
        1.98805         39.5293         5.26647 
        1.99419         39.2621         5.22696 
        2.00033         39.1214         5.18785 
        2.00647         38.9395         5.14914 
         2.0126          38.757         5.11089 
        2.01874          38.641         5.07298 
        2.02488         38.5105         5.03541 
        2.03101         38.2605          4.9983 
        2.03714         38.0978         4.96159 
        2.04328         37.9053         4.92522 
        2.04941         37.7314         4.88923 
        2.05554         37.5282         4.85364 
        2.06167         37.4709         4.81835 
        2.06781         37.2436          4.7834 
        2.07396          37.087         4.74875 
        2.08009         36.9638         4.71451 
        2.08622         36.7262         4.68064 
        2.09237         36.5655         4.64704 
        2.09851         36.3979         4.61377 
        2.10464         36.2818         4.58087 
        2.11077         36.1515         4.54834 
        2.11691         35.9443         4.51605 
        2.12305         35.7655         4.48407 
        2.12918          35.663         4.45248 
        2.13531         35.4456         4.42119 
        2.14145         35.3803         4.39013 
         2.1476         35.1629         4.35933 
        2.15372         34.9666         4.32899 
        2.15985         34.8502          4.2989 
        2.16599         34.8295         4.26901 
        2.17213          34.674         4.23944 
        2.17827         34.3824         4.21015 
         2.1844         34.2649         4.18117 
        2.19054         34.1129         4.15245 
        2.19666         33.9824         4.12404 
         2.2028         33.8082         4.09587 
        2.20893         33.7271         4.06795 
        2.21508         33.5771         4.04026 
        2.22122         33.3576         4.01282 
        2.22736         33.2742         3.98569 
        2.23349         33.1404         3.95882 
        2.23962         32.9261         3.93218 
        2.24577         32.7943         3.90576 
         2.2519         32.6637         3.87963 
        2.25802         32.5381         3.85377 
        2.26417         32.4163         3.82808 
        2.27031         32.3243          3.8026 
        2.27644         32.0752         3.77742 
        2.28257         31.9963         3.75248 
        2.28872         31.8155         3.72771 
        2.29486         31.7686         3.70318 
        2.30099         31.5965         3.67891 
        2.30712         31.4748         3.65485 
        2.31326         31.3826         3.63096 
         2.3194         31.2274         3.60731 
        2.32553         31.0509          3.5839 
        2.33166         30.9382         3.56071 
         2.3378         30.7677         3.53769 
        2.34394         30.6066         3.51487 
        2.35007         30.5134         3.49228 
        2.35619         30.4396         3.46992 
        2.36233         30.3436         3.44771 
        2.36848         30.1253         3.42564 
        2.37462         30.0477         3.40381 
        2.38075         29.9183         3.38219 
        2.38689         29.8511         3.36074 
        2.39303         29.6535         3.33948 
        2.39916         29.4897         3.31843 
        2.40529         29.3166         3.29756 
        2.41143          29.279         3.27686 
        2.41757         29.1892         3.25632 
         2.4237         29.0143           3.236 
        2.42983         28.9002         3.21585 
        2.43598         28.7574         3.19583 
        2.44211         28.6444           3.176 
        2.44823         28.5179         3.15639 
        2.45437         28.4335         3.13689 
        2.46052         28.2594         3.11754 
        2.46665         28.2225         3.09839 
        2.47279         28.0876          3.0794 
        2.47892         27.9269         3.06056 
        2.48507         27.8223         3.04186 
         2.4912         27.7304         3.02335 
