# k  (h/Mpc)    Pcb(k)  (Mpc/h)^3    Pcb_linear(k)  (Mpc/h)^3
     0.00783031         11330.7         11480.3 
       0.013688         15027.9         14916.9 
       0.019231         15817.1         15815.1 
      0.0249154         14965.6         15283.7 
      0.0312784         13640.7         13823.5 
      0.0375637           12107         12165.2 
      0.0433917         10554.4         10794.4 
      0.0492413         9591.38         9712.92 
      0.0555754          8556.3         8866.13 
      0.0619321         8205.04         8255.02 
       0.067871         7515.77         7783.16 
      0.0738098         7048.43          7312.7 
      0.0800417         6431.37         6765.25 
      0.0862327         5926.68         6164.63 
      0.0921407         5444.21         5575.49 
      0.0982031         4873.17         5007.05 
       0.104506         4525.63         4502.19 
       0.110769         4145.29          4111.3 
       0.116806         3860.21         3835.72 
       0.122832         3675.52         3637.11 
       0.129052         3436.95         3478.08 
       0.135211         3294.38         3331.79 
       0.141259          3181.3         3173.94 
       0.147318         3023.92         2991.27 
       0.153489         2790.36         2784.32 
       0.159709         2638.32         2569.83 
       0.165845         2523.89         2370.84 
       0.171974          2361.9         2199.24 
       0.178125         2236.93         2061.29 
       0.184229         2140.13         1957.17 
        0.19034         2019.77         1878.11 
       0.196428         1991.39         1813.46 
       0.202534         1928.37          1751.7 
       0.208729         1850.43         1683.65 
       0.214876         1774.44         1607.01 
       0.220989         1721.04         1523.02 
       0.227147         1640.03         1435.45 
        0.23329         1573.96         1351.37 
       0.239377         1546.85          1276.6 
       0.245482         1448.63         1213.12 
       0.251667          1439.9         1160.83 
       0.257832         1386.06         1118.64 
       0.263955          1343.6         1082.92 
       0.270079         1301.16         1049.44 
        0.27624         1289.97         1014.89 
       0.282372         1235.81         977.843 
        0.28843         1225.91         938.663 
       0.294538         1166.56         897.818 
       0.300721         1161.82         857.152 
        0.30691         1113.63         819.138 
       0.313033         1092.84         785.543 
       0.319153          1072.5         756.419 
       0.325316         1037.98         731.124 
        0.33145         1014.84         708.923 
       0.337538         1000.89         688.476 
       0.343633         976.019         668.392 
       0.349808         945.068         647.656 
       0.355968         939.829         626.255 
       0.362074         928.426         604.647 
       0.368217         901.485          583.04 
       0.374374         867.016         562.247 
       0.380519         866.351           542.9 
       0.386598         845.396         525.433 
       0.392688         842.833         509.629 
        0.39888         818.297         494.971 
       0.405048         807.252         481.398 
       0.411186         795.388         468.446 
       0.417313         779.615         455.677 
       0.423458         767.779         442.887 
       0.429607         755.585         430.069 
       0.435692         740.209          417.48 
       0.441815         735.816         405.149 
       0.447964         720.072         393.301 
       0.454126         709.548         382.092 
       0.460267         695.927         371.667 
       0.466387           688.4         361.971 
        0.47254         679.251         352.769 
       0.478662         675.991         344.023 
       0.484765         657.224         335.582 
       0.490885         652.553          327.28 
       0.497035         639.488         319.034 
       0.503198         634.179          310.91 
       0.509342          627.99         302.998 
       0.515458         623.904          295.36 
       0.521598         610.122         287.978 
       0.527764         597.668         280.905 
       0.533884          597.22         274.233 
           0.54         589.811         267.871 
       0.546137         587.028         261.738 
       0.552299         577.219         255.787 
       0.558452         574.264         250.019 
       0.564573         565.561         244.421 
       0.570708         559.246         238.927 
       0.576825         545.101         233.565 
       0.582926         546.344         228.355 
       0.589034         541.476         223.299 
       0.595184         536.309         218.387 
       0.601379         529.815         213.619 
       0.607522         522.396         209.057 
       0.613639         522.361         204.667 
       0.619772         509.095         200.408 
       0.625918           507.8          196.27 
       0.632068         501.034         192.245 
       0.638161         499.337         188.358 
         0.6443         489.841         184.533 
       0.650464          487.71         180.784 
       0.656582         485.971         177.158 
       0.662703         482.699          173.63 
       0.668861         474.185         170.187 
       0.675024         470.699         166.847 
       0.681124          467.95         163.642 
       0.687237         463.695         160.521 
       0.693381         457.923          157.47 
       0.699536         451.982         154.492 
       0.705665         450.652           151.6 
       0.711789         447.161         148.781 
       0.717957         443.378         146.012 
        0.72409         440.121         143.329 
       0.730186          435.17          140.73 
       0.736317         431.724         138.183 
       0.742472         430.169         135.691 
       0.748622         425.297         133.265 
        0.75476          420.53         130.905 
       0.760888         416.045         128.606 
       0.767043         416.861         126.354 
       0.773185         411.263         124.161 
       0.779291         406.498         122.032 
       0.785407         404.469         119.951 
       0.791564         399.892         117.905 
       0.797719         397.571         115.909 
       0.803834         394.455         113.971 
       0.809972         392.595         112.072 
       0.816124         392.487         110.213 
       0.822261         386.139         108.401 
       0.828378         384.337         106.636 
       0.834502         381.335          104.91 
       0.840667         377.158         103.211 
       0.846816         375.766         101.554 
       0.852925         372.569         99.9449 
       0.859047         371.461         98.3672 
       0.865192          367.54         96.8186 
       0.871341         364.668         95.3024 
       0.877463         362.809         93.8257 
       0.883569         360.472         92.3843 
       0.889708         357.628          90.966 
       0.895864         353.971          89.574 
       0.902008         352.582         88.2144 
       0.908149         350.356         86.8841 
       0.914301         346.509         85.5793 
       0.920448         344.216         84.3028 
       0.926574         340.735         83.0571 
       0.932687         341.259         81.8395 
       0.938823         336.964         80.6421 
       0.944975         336.519         79.4662 
       0.951105         333.224         78.3182 
       0.957225         330.846          77.195 
       0.963368          327.22         76.0902 
       0.969511         325.605         75.0071 
       0.975621         323.145         73.9511 
       0.981748         323.125         72.9129 
       0.987916         320.258         71.8882 
        0.99406         315.439         70.8872 
        1.00019         315.629         69.9074 
        1.00632         313.493         68.9471 
        1.01246         310.816         68.0036 
        1.01859         311.213         67.0793 
        1.02471         306.808         66.1735 
        1.03085         304.457         65.2815 
        1.03698         303.737         64.4078 
        1.04314         300.799         63.5466 
        1.04929         298.539         62.7032 
        1.05541         298.547         61.8786 
        1.06154         294.295         61.0669 
        1.06769         293.545         60.2687 
        1.07382          291.85         59.4874 
        1.07993         289.697         58.7219 
        1.08607         288.851         57.9668 
        1.09222          286.55         57.2242 
        1.09836         284.289         56.4957 
        1.10449         281.556         55.7807 
        1.11063         279.317         55.0775 
        1.11677         279.093         54.3866 
         1.1229         277.223         53.7089 
        1.12903         275.135         53.0422 
        1.13518         273.299         52.3864 
        1.14131         271.526         51.7421 
        1.14745         270.883          51.109 
        1.15359         268.411         50.4865 
        1.15973          267.28         49.8742 
        1.16584         264.816         49.2748 
        1.17197         264.561         48.6845 
        1.17811         261.944         48.1022 
        1.18424         260.328          47.531 
        1.19038         259.306         46.9676 
        1.19652         257.366         46.4136 
        1.20267         256.703         45.8686 
        1.20881         254.554         45.3324 
        1.21495         252.787         44.8058 
        1.22108         251.635         44.2876 
         1.2272         249.786         43.7789 
        1.23334         248.327         43.2771 
        1.23949          247.13          42.782 
        1.24562         245.796          42.296 
        1.25174         243.281         41.8184 
        1.25789         241.816         41.3467 
        1.26402         240.707         40.8832 
        1.27014         239.142          40.428 
        1.27628         237.879         39.9783 
        1.28244         237.463         39.5347 
        1.28858         234.973         39.0984 
        1.29471         232.988         38.6697 
        1.30084         232.206         38.2478 
        1.30697         230.624         37.8317 
        1.31312         228.809         37.4211 
        1.31925           228.7          37.018 
        1.32537          227.23         36.6212 
        1.33151         225.057         36.2289 
        1.33765         223.746         35.8426 
        1.34378         222.913         35.4627 
        1.34992          221.73         35.0881 
        1.35606         221.344         34.7181 
         1.3622         219.416         34.3541 
        1.36833          217.34         33.9962 
        1.37445         216.219         33.6437 
        1.38059         214.707         33.2951 
        1.38675         213.844         32.9506 
        1.39288         212.308         32.6124 
        1.39901         212.178         32.2791 
        1.40515         210.195         31.9497 
         1.4113         208.744         31.6251 
        1.41742         207.786         31.3062 
        1.42355         206.088         30.9912 
         1.4297         205.019         30.6796 
        1.43585         203.726         30.3724 
        1.44198         202.656         30.0706 
        1.44809         201.909         29.7735 
        1.45423         200.236         29.4793 
        1.46036         199.545         29.1897 
        1.46649         197.967         28.9038 
        1.47263         196.604         28.6216 
        1.47877         195.837         28.3433 
        1.48491         194.281         28.0682 
        1.49104         193.717         27.7974 
        1.49718         191.647           27.53 
        1.50333         191.086         27.2656 
        1.50947         190.279         27.0053 
         1.5156         188.568         26.7488 
        1.52172         187.708         26.4957 
        1.52787          186.33         26.2453 
          1.534         185.904         25.9985 
        1.54013         184.249         25.7551 
        1.54627         183.615         25.5144 
        1.55241         182.145         25.2768 
        1.55855         181.151         25.0425 
        1.56467         180.089         24.8119 
         1.5708          179.47         24.5835 
        1.57695         177.883         24.3576 
        1.58308         177.449         24.1352 
        1.58922         176.042         23.9153 
        1.59535         174.797         23.6983 
         1.6015         174.447         23.4837 
        1.60764          173.06         23.2719 
        1.61376         171.814         23.0632 
        1.61989         171.003          22.857 
        1.62604         170.221         22.6528 
        1.63218         169.208         22.4513 
        1.63831         168.142         22.2527 
        1.64444         167.441         22.0564 
        1.65059         166.209          21.862 
        1.65673         165.124         21.6702 
        1.66285          164.64         21.4813 
        1.66898         163.527         21.2945 
        1.67512         163.034         21.1096 
        1.68127         161.324         20.9268 
         1.6874         160.242         20.7465 
        1.69353          159.99         20.5684 
        1.69967         158.781         20.3921 
        1.70581         157.912         20.2178 
        1.71193          156.87         20.0463 
        1.71806         156.365         19.8764 
        1.72421         155.259         19.7082 
        1.73035         154.727         19.5421 
        1.73649         153.896         19.3779 
        1.74262         152.658         19.2158 
        1.74876         152.129         19.0554 
        1.75489         150.761         18.8972 
        1.76101         150.132         18.7408 
        1.76715         149.408          18.586 
        1.77329         148.942         18.4328 
        1.77943         147.604         18.2812 
        1.78557         146.883         18.1316 
        1.79171         146.093         17.9836 
        1.79785         145.144         17.8373 
        1.80399         144.407         17.6926 
        1.81012         143.574         17.5497 
        1.81625         142.853         17.4084 
        1.82239         142.221         17.2685 
        1.82853         141.532         17.1303 
        1.83466         140.576         16.9936 
        1.84078         139.973         16.8586 
        1.84692         138.748         16.7249 
        1.85306         138.456         16.5924 
         1.8592         137.296         16.4616 
        1.86533         136.403         16.3323 
        1.87147           135.7         16.2042 
        1.87761         135.329         16.0775 
        1.88375         133.926         15.9522 
        1.88988          133.45         15.8284 
        1.89601         132.524         15.7059 
        1.90215         131.968         15.5846 
        1.90829         131.376         15.4646 
        1.91442         130.702         15.3459 
        1.92056         129.894         15.2285 
         1.9267         129.302         15.1123 
        1.93284          128.72         14.9972 
        1.93897         127.693         14.8835 
        1.94509         127.311         14.7712 
        1.95123         126.575         14.6598 
        1.95737         125.896         14.5495 
        1.96349         125.199         14.4406 
        1.96964         124.158         14.3325 
        1.97578         123.546         14.2255 
        1.98192         123.089         14.1198 
        1.98805         122.039         14.0151 
        1.99419         121.698         13.9115 
        2.00033         120.975         13.8089 
        2.00647         120.408         13.7074 
         2.0126         119.546          13.607 
        2.01874         118.971         13.5076 
        2.02488         118.504          13.409 
        2.03101          117.53         13.3116 
        2.03714         116.935         13.2152 
        2.04328         116.483         13.1197 
        2.04941         115.724         13.0252 
        2.05554         114.934         12.9318 
        2.06167         114.653         12.8391 
        2.06781         114.093         12.7473 
        2.07396          113.12         12.6563 
        2.08009         112.577         12.5663 
        2.08622          112.24         12.4773 
        2.09237         111.225          12.389 
        2.09851         110.892         12.3016 
        2.10464         110.182         12.2151 
        2.11077         109.743         12.1296 
        2.11691         109.195         12.0447 
        2.12305         108.258         11.9606 
        2.12918          107.76         11.8775 
        2.13531         107.321         11.7952 
        2.14145         106.542         11.7135 
         2.1476         105.963         11.6324 
        2.15372         105.538         11.5526 
        2.15985         105.106         11.4734 
        2.16599         104.552         11.3947 
        2.17213         103.673         11.3169 
        2.17827         103.472         11.2398 
         2.1844         102.651         11.1635 
        2.19054          102.32         11.0879 
        2.19666         101.816         11.0131 
         2.2028         101.253         10.9389 
        2.20893         100.543         10.8653 
        2.21508         99.8906         10.7924 
        2.22122          99.497         10.7201 
        2.22736         99.0136         10.6486 
        2.23349         98.6586         10.5778 
        2.23962         97.8995         10.5076 
        2.24577         97.5512          10.438 
         2.2519         97.1263         10.3691 
        2.25802         96.2279         10.3009 
        2.26417         95.9506         10.2331 
        2.27031         95.4081         10.1659 
        2.27644         94.8906         10.0996 
        2.28257         94.3847         10.0338 
        2.28872          93.779         9.96842 
        2.29486         93.4186         9.90367 
        2.30099           92.92         9.83964 
        2.30712          92.367         9.77615 
        2.31326         91.9807         9.71311 
         2.3194         91.3698         9.65066 
        2.32553         90.9544         9.58887 
        2.33166         90.4296         9.52764 
         2.3378         89.9962         9.46687 
        2.34394         89.6343         9.40661 
        2.35007         88.9818         9.34696 
        2.35619         88.5338          9.2879 
        2.36233         88.1258         9.22922 
        2.36848         87.5736         9.17092 
        2.37462         87.1229         9.11324 
        2.38075          86.837         9.05612 
        2.38689         86.1912         8.99944 
        2.39303         85.7371         8.94326 
        2.39916         85.2985         8.88762 
        2.40529         85.0864         8.83245 
        2.41143         84.5324         8.77772 
        2.41757         84.0551         8.72342 
         2.4237         83.7285         8.66968 
        2.42983          83.212          8.6164 
        2.43598         82.8141         8.56343 
        2.44211         82.4236           8.511 
        2.44823         81.9869         8.45911 
        2.45437         81.4809         8.40752 
        2.46052          80.994         8.35632 
        2.46665         80.6574         8.30564 
        2.47279         80.2416         8.25539 
        2.47892         79.8787         8.20552 
        2.48507         79.3531         8.15603 
         2.4912         79.0222         8.10703 
