# k  (h/Mpc)    Pcb(k)  (Mpc/h)^3    Pcb_linear(k)  (Mpc/h)^3
     0.00783031         2842.61         2871.29 
       0.013688         3745.04          3738.8 
       0.019231         3967.45          3965.8 
      0.0249154         3796.19         3832.98 
      0.0312784          3452.9         3466.76 
      0.0375637         3053.93         3050.79 
      0.0433917         2688.92         2706.99 
      0.0492413         2431.61         2435.76 
      0.0555754         2198.02         2223.38 
      0.0619321         2077.95         2070.12 
       0.067871         1932.44         1951.77 
      0.0738098         1812.98         1833.79 
      0.0800417          1667.2          1696.5 
      0.0862327         1527.91         1545.88 
      0.0921407         1389.79         1398.14 
      0.0982031         1243.58         1255.59 
       0.104506          1135.7         1128.99 
       0.110769         1037.47         1030.97 
       0.116806         961.275          961.86 
       0.122832         917.177         912.054 
       0.129052           867.3         872.176 
       0.135211         830.149          835.49 
       0.141259         796.655         795.907 
       0.147318         754.863           750.1 
       0.153489         698.876         698.203 
       0.159709         650.771         644.416 
       0.165845         610.768         594.518 
       0.171974         563.852         551.486 
       0.178125         531.748         516.894 
       0.184229         508.061         490.784 
        0.19034         478.801         470.957 
       0.196428         469.281         454.748 
       0.202534         457.493          439.26 
       0.208729          437.01         422.195 
       0.214876         414.249         402.976 
       0.220989         400.263         381.914 
       0.227147         374.253         359.957 
        0.23329         355.619         338.873 
       0.239377         341.798         320.123 
       0.245482         320.331         304.204 
       0.251667         313.505         291.091 
       0.257832         302.874         280.511 
       0.263955         292.984         271.555 
       0.270079          284.05          263.16 
        0.27624         278.956         254.495 
       0.282372          268.39         245.205 
        0.28843         257.983          235.38 
       0.294538         247.294         225.138 
       0.300721         241.911         214.941 
        0.30691         230.284         205.408 
       0.313033         223.304         196.984 
       0.319153         213.333         189.681 
       0.325316         209.262         183.338 
        0.33145         202.411         177.771 
       0.337538         198.956         172.643 
       0.343633         192.781         167.607 
       0.349808         187.359         162.407 
       0.355968         183.006         157.041 
       0.362074         177.491         151.622 
       0.368217         172.571         146.204 
       0.374374         167.351          140.99 
       0.380519         163.236         136.138 
       0.386598         158.911         131.758 
       0.392688         156.114         127.795 
        0.39888         152.012         124.119 
       0.405048         148.841         120.716 
       0.411186         145.679         117.468 
       0.417313         141.713         114.266 
       0.423458         138.677         111.059 
       0.429607         135.137         107.845 
       0.435692         130.888         104.688 
       0.441815         129.628         101.596 
       0.447964         127.498         98.6245 
       0.454126         122.126          95.814 
       0.460267          120.46         93.1996 
       0.466387          117.99         90.7684 
        0.47254         116.185         88.4608 
       0.478662         114.468         86.2675 
       0.484765         111.493         84.1509 
       0.490885         109.382         82.0692 
       0.497035         107.974         80.0013 
       0.503198         105.172         77.9641 
       0.509342         102.809         75.9803 
       0.515458         101.253         74.0648 
       0.521598         99.9168         72.2138 
       0.527764         98.2054         70.4401 
       0.533884         96.4895         68.7671 
           0.54         94.8124         67.1718 
       0.546137         93.7296         65.6338 
       0.552299         92.3912         64.1415 
       0.558452         89.9196          62.695 
       0.564573         88.3947         61.2913 
       0.570708         87.4752         59.9137 
       0.576825          85.763         58.5691 
       0.582926         84.2532         57.2625 
       0.589034         82.3737         55.9948 
       0.595184         81.5002         54.7629 
       0.601379         80.5374         53.5674 
       0.607522          78.611         52.4234 
       0.613639         78.4297         51.3226 
       0.619772         76.4859         50.2546 
       0.625918         76.0717         49.2169 
       0.632068         74.9818         48.2077 
       0.638161         73.8466          47.233 
         0.6443         72.7042         46.2738 
       0.650464         71.6386         45.3337 
       0.656582         71.0567         44.4243 
       0.662703         69.6412         43.5397 
       0.668861         68.8488         42.6763 
       0.675024         67.8922         41.8388 
       0.681124         66.8268         41.0351 
       0.687237         65.7571         40.2526 
       0.693381          65.254         39.4875 
       0.699536         64.0252         38.7407 
       0.705665         64.2628         38.0154 
       0.711789          62.635         37.3085 
       0.717957         62.1062         36.6142 
        0.72409         61.2325         35.9413 
       0.730186         60.3248         35.2896 
       0.736317         60.0371         34.6509 
       0.742472         59.0342         34.0261 
       0.748622         58.6114         33.4178 
        0.75476         57.8379         32.8259 
       0.760888         57.0339         32.2495 
       0.767043         56.4711         31.6848 
       0.773185         55.6846         31.1348 
       0.779291         55.4383          30.601 
       0.785407         54.8805         30.0791 
       0.791564          53.959         29.5661 
       0.797719         53.1106         29.0654 
       0.803834         53.0224         28.5796 
       0.809972         52.2875         28.1034 
       0.816124         51.3855         27.6371 
       0.822261         51.1875         27.1828 
       0.828378         50.7273         26.7402 
       0.834502         50.1332         26.3073 
       0.840667         49.7106         25.8812 
       0.846816         49.0147         25.4659 
       0.852925         48.6094         25.0623 
       0.859047         47.9912         24.6667 
       0.865192          47.717         24.2784 
       0.871341         47.4571         23.8982 
       0.877463         46.5222         23.5279 
       0.883569         46.1945         23.1664 
       0.889708         45.8639         22.8107 
       0.895864         45.4612         22.4617 
       0.902008         45.0982         22.1208 
       0.908149         44.6925         21.7872 
       0.914301         44.4832           21.46 
       0.920448         43.6818         21.1399 
       0.926574         43.5028         20.8275 
       0.932687         43.0553         20.5222 
       0.938823         42.5032         20.2219 
       0.944975         42.3055         19.9271 
       0.951105         41.9499         19.6392 
       0.957225         41.4544         19.3575 
       0.963368         41.2588         19.0805 
       0.969511         40.9552         18.8089 
       0.975621         40.6428         18.5441 
       0.981748         40.1152         18.2837 
       0.987916         39.9329         18.0268 
        0.99406         39.5891         17.7758 
        1.00019         39.0964         17.5301 
        1.00632         38.9669         17.2893 
        1.01246         38.6376         17.0527 
        1.01859         38.1813         16.8209 
        1.02471         38.1575         16.5938 
        1.03085          37.777         16.3701 
        1.03698         37.2544          16.151 
        1.04314         36.9884          15.935 
        1.04929         36.7612         15.7235 
        1.05541         36.3836         15.5168 
        1.06154         36.2448         15.3132 
        1.06769         35.9772         15.1131 
        1.07382         35.6763         14.9172 
        1.07993         35.5525         14.7252 
        1.08607         35.1019         14.5358 
        1.09222         34.9603         14.3496 
        1.09836         34.5627         14.1669 
        1.10449         34.4482         13.9877 
        1.11063         34.0065         13.8113 
        1.11677         33.9049         13.6381 
         1.1229         33.7853         13.4681 
        1.12903         33.3366         13.3009 
        1.13518         33.1042         13.1365 
        1.14131         33.0486         12.9749 
        1.14745         32.7726         12.8162 
        1.15359          32.605         12.6601 
        1.15973         32.2565         12.5065 
        1.16584         31.9528         12.3562 
        1.17197         32.0035         12.2082 
        1.17811         31.5751         12.0622 
        1.18424         31.3195          11.919 
        1.19038         31.2719         11.7777 
        1.19652         31.0469         11.6387 
        1.20267         30.8258         11.5021 
        1.20881           30.66         11.3676 
        1.21495         30.4286         11.2356 
        1.22108         30.2103         11.1056 
         1.2272         29.9085         10.9781 
        1.23334           29.79         10.8522 
        1.23949         29.5658         10.7281 
        1.24562         29.5041         10.6062 
        1.25174         29.3243         10.4865 
        1.25789         29.1459         10.3682 
        1.26402         28.9948         10.2519 
        1.27014         28.7134         10.1378 
        1.27628         28.4884          10.025 
        1.28244         28.4212         9.91378 
        1.28858         28.2919         9.80437 
        1.29471         28.0476         9.69687 
        1.30084         27.8703         9.59109 
        1.30697         27.6982         9.48673 
        1.31312         27.4666         9.38378 
        1.31925         27.3392         9.28269 
        1.32537         27.2694          9.1832 
        1.33151         27.0203         9.08482 
        1.33765          26.934         8.98794 
        1.34378         26.8251         8.89268 
        1.34992         26.4667         8.79874 
        1.35606         26.4352         8.70596 
         1.3622          26.294         8.61469 
        1.36833         26.1192         8.52495 
        1.37445         26.0535         8.43654 
        1.38059         25.9067         8.34912 
        1.38675         25.6413         8.26274 
        1.39288         25.5801         8.17793 
        1.39901         25.3704         8.09435 
        1.40515         25.2788         8.01176 
         1.4113         25.1306         7.93036 
        1.41742         24.9282         7.85041 
        1.42355         24.8753         7.77141 
         1.4297         24.7188         7.69327 
        1.43585         24.6628         7.61624 
        1.44198         24.3993         7.54056 
        1.44809         24.3513         7.46606 
        1.45423         24.2222         7.39229 
        1.46036         24.1378         7.31966 
        1.46649         23.9886         7.24798 
        1.47263         23.8118          7.1772 
        1.47877         23.7129         7.10741 
        1.48491         23.5856         7.03844 
        1.49104          23.538         6.97053 
        1.49718         23.3306         6.90347 
        1.50333         23.2427         6.83719 
        1.50947         23.1623         6.77191 
         1.5156         22.9736         6.70759 
        1.52172         22.8159         6.64411 
        1.52787          22.777         6.58133 
          1.534         22.6436         6.51943 
        1.54013         22.4779          6.4584 
        1.54627          22.403         6.39805 
        1.55241         22.2639         6.33845 
        1.55855         22.1905         6.27971 
        1.56467         22.0962         6.22187 
         1.5708         22.0109          6.1646 
        1.57695         21.8052         6.10797 
        1.58308         21.7941         6.05218 
        1.58922         21.6683         5.99706 
        1.59535         21.5457         5.94264 
         1.6015         21.4235         5.88882 
        1.60764         21.3684          5.8357 
        1.61376         21.2874         5.78338 
        1.61989         21.0758         5.73167 
        1.62604         21.0853         5.68047 
        1.63218         20.9294         5.62993 
        1.63831         20.8707         5.58013 
        1.64444         20.7114         5.53091 
        1.65059         20.6407         5.48217 
        1.65673         20.5706         5.43407 
        1.66285         20.4287         5.38669 
        1.66898         20.3813         5.33986 
        1.67512         20.2876         5.29349 
        1.68127         20.1394         5.24764 
         1.6874         20.0647         5.20243 
        1.69353         20.0329         5.15778 
        1.69967         19.8692         5.11356 
        1.70581         19.7591         5.06987 
        1.71193         19.6773         5.02686 
        1.71806         19.6383         4.98426 
        1.72421         19.5189         4.94206 
        1.73035         19.4754         4.90041 
        1.73649          19.348         4.85925 
        1.74262         19.3097         4.81859 
        1.74876         19.1955         4.77837 
        1.75489         19.1203          4.7387 
        1.76101         19.0082         4.69949 
        1.76715         19.0072         4.66067 
        1.77329         18.8841         4.62225 
        1.77943          18.769         4.58424 
        1.78557         18.6927         4.54672 
        1.79171         18.6529         4.50961 
        1.79785         18.5364         4.47291 
        1.80399         18.4715         4.43663 
        1.81012         18.3898         4.40079 
        1.81625         18.2927         4.36538 
        1.82239         18.2442          4.3303 
        1.82853         18.0999         4.29562 
        1.83466         18.0617         4.26136 
        1.84078         17.9311          4.2275 
        1.84692         17.9111         4.19397 
        1.85306         17.8245         4.16075 
         1.8592         17.7634         4.12795 
        1.86533         17.6917         4.09552 
        1.87147         17.6064          4.0634 
        1.87761          17.548         4.03162 
        1.88375         17.4332         4.00021 
        1.88988          17.404         3.96917 
        1.89601         17.3317         3.93845 
        1.90215         17.2344         3.90803 
        1.90829         17.1883         3.87794 
        1.91442         17.1014         3.84817 
        1.92056         17.0539         3.81874 
         1.9267           16.98         3.78959 
        1.93284         16.8932         3.76072 
        1.93897         16.7992         3.73221 
        1.94509         16.7573         3.70406 
        1.95123         16.6921         3.67613 
        1.95737         16.6122         3.64847 
        1.96349         16.5454         3.62116 
        1.96964         16.4875         3.59405 
        1.97578         16.4211         3.56721 
        1.98192         16.3315          3.5407 
        1.98805         16.2891         3.51446 
        1.99419         16.2104         3.48848 
        2.00033         16.1596         3.46275 
        2.00647         16.1216         3.43729 
         2.0126         15.9778         3.41213 
        2.01874         15.9438         3.38718 
        2.02488          15.862         3.36246 
        2.03101         15.8545         3.33804 
        2.03714         15.7764         3.31388 
        2.04328         15.6985         3.28993 
        2.04941         15.6367         3.26624 
        2.05554         15.6108          3.2428 
        2.06167         15.5295         3.21956 
        2.06781         15.4753         3.19654 
        2.07396         15.4142         3.17372 
        2.08009         15.3467         3.15116 
        2.08622         15.2708         3.12884 
        2.09237         15.2358          3.1067 
        2.09851         15.1808         3.08477 
        2.10464          15.109         3.06308 
        2.11077         15.0538         3.04163 
        2.11691         14.9787         3.02035 
        2.12305         14.9358         2.99926 
        2.12918         14.8916         2.97842 
        2.13531         14.8269         2.95779 
        2.14145         14.7721          2.9373 
         2.1476         14.7136         2.91698 
        2.15372         14.6698         2.89695 
        2.15985         14.6055          2.8771 
        2.16599         14.5525         2.85737 
        2.17213         14.5254         2.83785 
        2.17827         14.4603         2.81852 
         2.1844         14.4021         2.79938 
        2.19054         14.3207         2.78042 
        2.19666         14.2881         2.76166 
         2.2028         14.2244         2.74306 
        2.20893         14.1951         2.72462 
        2.21508         14.1308         2.70633 
        2.22122         14.0506          2.6882 
        2.22736         14.0169         2.67027 
        2.23349         13.9523         2.65251 
        2.23962         13.9346         2.63491 
        2.24577         13.8564         2.61745 
         2.2519         13.8159         2.60017 
        2.25802         13.7631         2.58308 
        2.26417         13.7077         2.56609 
        2.27031         13.6728         2.54924 
        2.27644         13.6247         2.53259 
        2.28257         13.5865         2.51609 
        2.28872         13.5033         2.49971 
        2.29486         13.4836         2.48347 
        2.30099         13.4522         2.46741 
        2.30712         13.3999         2.45149 
        2.31326         13.3371         2.43568 
         2.3194         13.2528         2.42003 
        2.32553          13.252         2.40453 
        2.33166         13.1696         2.38918 
         2.3378         13.1477         2.37394 
        2.34394          13.087         2.35883 
        2.35007         13.0202         2.34387 
        2.35619         12.9898         2.32906 
        2.36233          12.937         2.31434 
        2.36848         12.9203         2.29973 
        2.37462         12.8587         2.28526 
        2.38075         12.7947         2.27094 
        2.38689          12.764         2.25673 
        2.39303         12.7238         2.24264 
        2.39916         12.6794         2.22869 
        2.40529         12.6498         2.21485 
        2.41143         12.5808         2.20113 
        2.41757         12.5641         2.18751 
         2.4237         12.4923         2.17404 
        2.42983         12.4732         2.16068 
        2.43598         12.4253         2.14739 
        2.44211         12.3602         2.13424 
        2.44823         12.3387         2.12123 
        2.45437         12.2963          2.1083 
        2.46052         12.2534         2.09546 
        2.46665         12.2013         2.08275 
        2.47279         12.1659         2.07015 
        2.47892         12.1132         2.05764 
        2.48507         12.0733         2.04523 
         2.4912         12.0459         2.03295 
