# k  (h/Mpc)    Pcb(k)  (Mpc/h)^3    Pcb_linear(k)  (Mpc/h)^3
     0.00783031         1479.87         1489.14 
       0.013688         1876.16         1897.66 
       0.019231          1972.7         1982.87 
      0.0249154          1895.8         1895.23 
      0.0312784         1699.27         1702.63 
      0.0375637         1492.21         1498.17 
      0.0433917          1337.2         1335.83 
      0.0492413         1207.45         1210.47 
      0.0555754         1113.22         1111.28 
      0.0619321         1023.92          1034.6 
       0.067871         965.629         969.089 
      0.0738098         898.296         900.172 
      0.0800417         821.843         821.391 
      0.0862327         738.717          740.19 
      0.0921407         665.166         666.363 
      0.0982031         602.314         600.348 
       0.104506         543.637         545.705 
       0.110769         504.234         505.406 
       0.116806         479.573         476.808 
       0.122832         453.305          453.99 
       0.129052         432.951         431.982 
       0.135211         411.501         408.559 
       0.141259         383.903         382.923 
       0.147318         354.356         355.473 
       0.153489         328.861         327.746 
       0.159709         305.695         302.309 
       0.165845         281.177         281.206 
       0.171974          269.08         264.516 
       0.178125         256.086         251.574 
       0.184229         243.426         241.242 
        0.19034         236.153         231.943 
       0.196428         226.593         222.509 
       0.202534          213.54         212.215 
       0.208729         204.916         200.911 
       0.214876         194.947         189.351 
       0.220989         181.171         178.252 
       0.227147         174.336          168.14 
        0.23329         166.273         159.505 
       0.239377         159.914         152.409 
       0.245482         152.947         146.475 
       0.251667         146.704         141.217 
       0.257832         143.643         136.256 
       0.263955         136.851         131.249 
       0.270079         131.665         126.006 
        0.27624         125.498         120.542 
       0.282372         120.642         115.098 
        0.28843         117.638         109.953 
       0.294538         112.305         105.189 
       0.300721         107.213         100.909 
        0.30691         104.757         97.1546 
       0.313033         100.804          93.861 
       0.319153         98.9365         90.8351 
       0.325316         94.6173         87.9094 
        0.33145         91.5795         85.0082 
       0.337538         88.8394         82.1016 
       0.343633         86.1789         79.1783 
       0.349808         83.1438         76.2694 
       0.355968         80.3727         73.4878 
       0.362074         78.5899         70.9134 
       0.368217         76.1747         68.5316 
       0.374374         74.5321         66.3466 
       0.380519         71.4467          64.335 
       0.386598         69.4514         62.4583 
       0.392688         67.4689         60.6488 
        0.39888         66.1344         58.8451 
       0.405048         64.4956         57.0683 
       0.411186         62.7466         55.3294 
       0.417313         60.9628          53.636 
       0.423458         59.1536         52.0023 
       0.429607         58.0969         50.4519 
       0.435692         57.0097         49.0062 
       0.441815          54.887         47.6365 
       0.447964         53.2795         46.3383 
       0.454126          52.356          45.097 
       0.460267         51.7946         43.9026 
       0.466387         50.3095         42.7452 
        0.47254         49.5264         41.6094 
       0.478662         47.9798         40.5053 
       0.484765         46.9694         39.4352 
       0.490885         45.6322         38.3999 
       0.497035         44.8654         37.4017 
       0.503198           43.85         36.4443 
       0.509342         42.6941         35.5319 
       0.515458         42.1481         34.6629 
       0.521598         41.1605         33.8242 
       0.527764         40.5997         33.0093 
       0.533884         39.6234         32.2235 
           0.54         38.8481         31.4601 
       0.546137          37.691         30.7156 
       0.552299         37.0695         29.9896 
       0.558452          36.311         29.2869 
       0.564573         35.9338         28.6109 
       0.570708         34.9959         27.9571 
       0.576825         34.4993         27.3291 
       0.582926         33.8885         26.7246 
       0.589034         33.2374         26.1387 
       0.595184         32.8054         25.5665 
       0.601379         31.9243         25.0068 
       0.607522         31.4414         24.4675 
       0.613639         30.8898         23.9456 
       0.619772         30.3947         23.4373 
       0.625918         29.7758         22.9423 
       0.632068         29.5158         22.4614 
       0.638161         28.9126         21.9988 
         0.6443         28.4455         21.5466 
       0.650464         27.7451         21.1063 
       0.656582         27.5766         20.6823 
       0.662703          27.249         20.2702 
       0.668861         26.5205         19.8671 
       0.675024         26.1887         19.4744 
       0.681124         26.0403          19.096 
       0.687237         25.5091         18.7266 
       0.693381          24.952          18.365 
       0.699536         24.8471         18.0124 
       0.705665         24.3827         17.6707 
       0.711789         23.9348         17.3385 
       0.717957         23.4596         17.0128 
        0.72409         23.2609         16.6976 
       0.730186         23.1306         16.3924 
       0.736317         22.6524         16.0933 
       0.742472         22.3683         15.8006 
       0.748622         22.0181         15.5154 
        0.75476         21.4734         15.2378 
       0.760888         21.3865         14.9673 
       0.767043         21.0228         14.7024 
       0.773185          20.795         14.4444 
       0.779291         20.6228         14.1942 
       0.785407         20.2492         13.9495 
       0.791564         20.0889         13.7092 
       0.797719         19.6699         13.4748 
       0.803834          19.569         13.2474 
       0.809972         19.2013         13.0245 
       0.816124         18.9918         12.8063 
       0.822261         18.7822         12.5937 
       0.828378         18.5582         12.3866 
       0.834502         18.3741         12.1841 
       0.840667         18.1811         11.9847 
       0.846816         17.7917         11.7904 
       0.852925         17.7123         11.6017 
       0.859047         17.4962         11.4167 
       0.865192         17.2551         11.2352 
       0.871341         17.0246         11.0575 
       0.877463         16.8488         10.8845 
       0.883569         16.7396         10.7157 
       0.889708         16.4649         10.5496 
       0.895864         16.2649         10.3867 
       0.902008         16.0708         10.2275 
       0.908149         15.8649         10.0718 
       0.914301           15.78         9.91911 
       0.920448         15.5456         9.76975 
       0.926574         15.4524         9.62401 
       0.932687         15.2237         9.48157 
       0.938823         15.0318         9.34151 
       0.944975         14.9131         9.20398 
       0.951105         14.7313         9.06973 
       0.957225          14.647          8.9384 
       0.963368          14.437         8.80924 
       0.969511         14.2861         8.68264 
       0.975621         14.1455         8.55922 
       0.981748         13.9537          8.4379 
       0.987916         13.8515         8.31818 
        0.99406         13.7306         8.20125 
        1.00019         13.6107          8.0868 
        1.00632         13.4869         7.97465 
        1.01246         13.3414         7.86447 
        1.01859         13.1881         7.75656 
        1.02471         13.0278         7.65082 
        1.03085         12.9857         7.54669 
        1.03698         12.8553         7.44474 
        1.04314         12.7072         7.34424 
        1.04929         12.5375         7.24584 
        1.05541         12.4791         7.14965 
        1.06154         12.3669         7.05498 
        1.06769         12.2946         6.96189 
        1.07382         12.0883         6.87079 
        1.07993         11.9833         6.78154 
        1.08607         11.9305         6.69351 
        1.09222          11.776         6.60696 
        1.09836         11.7445         6.52206 
        1.10449         11.5452         6.43875 
        1.11063         11.5133         6.35681 
        1.11677         11.4286         6.27633 
         1.1229         11.3214          6.1974 
        1.12903         11.2385         6.11976 
        1.13518         11.0704         6.04339 
        1.14131         11.0057         5.96837 
        1.14745         10.8626         5.89467 
        1.15359          10.787         5.82222 
        1.15973         10.6917         5.75095 
        1.16584         10.6136          5.6812 
        1.17197         10.5205         5.61251 
        1.17811         10.4281         5.54476 
        1.18424         10.3559         5.47832 
        1.19038         10.2911         5.41278 
        1.19652         10.2092         5.34835 
        1.20267         10.1256         5.28497 
        1.20881         10.0197         5.22263 
        1.21495         9.94106          5.1614 
        1.22108         9.88908         5.10116 
         1.2272         9.79257         5.04203 
        1.23334         9.76498          4.9837 
        1.23949         9.65131         4.92616 
        1.24562          9.5788         4.86969 
        1.25174         9.52232         4.81419 
        1.25789         9.39412         4.75939 
        1.26402         9.36831         4.70554 
        1.27014         9.31258         4.65266 
        1.27628         9.19455         4.60044 
        1.28244         9.17919         4.54892 
        1.28858         9.11166         4.49826 
        1.29471         8.98595         4.44849 
        1.30084         8.92282         4.39952 
        1.30697         8.90945         4.35121 
        1.31312         8.81411         4.30357 
        1.31925         8.75782         4.25679 
        1.32537         8.70443         4.21075 
        1.33151         8.63274         4.16523 
        1.33765         8.56396         4.12042 
        1.34378         8.55103         4.07635 
        1.34992         8.46144          4.0329 
        1.35606         8.40112         3.98999 
         1.3622         8.33658         3.94779 
        1.36833          8.2833         3.90629 
        1.37445         8.22143         3.86542 
        1.38059         8.17249         3.82501 
        1.38675          8.1106         3.78508 
        1.39288          8.0507         3.74588 
        1.39901         7.98936         3.70726 
        1.40515         7.94567          3.6691 
         1.4113         7.88162         3.63148 
        1.41742         7.84546         3.59454 
        1.42355         7.77665         3.55805 
         1.4297         7.74254         3.52195 
        1.43585         7.69659         3.48637 
        1.44198         7.63915         3.45142 
        1.44809         7.60106         3.41701 
        1.45423         7.53722         3.38295 
        1.46036         7.49905         3.34941 
        1.46649         7.44472         3.31632 
        1.47263         7.40989         3.28365 
        1.47877         7.35778         3.25143 
        1.48491         7.32193          3.2196 
        1.49104         7.25868         3.18826 
        1.49718         7.23467         3.15731 
        1.50333         7.18112         3.12673 
        1.50947         7.11491         3.09662 
         1.5156         7.10394         3.06695 
        1.52172         7.06029         3.03766 
        1.52787         7.01545         3.00871 
          1.534         6.97108         2.98016 
        1.54013         6.93546         2.95202 
        1.54627         6.88832         2.92418 
        1.55241          6.8323         2.89671 
        1.55855         6.82049         2.86962 
        1.56467         6.76919         2.84296 
         1.5708         6.73209         2.81656 
        1.57695         6.67292         2.79046 
        1.58308         6.63304         2.76475 
        1.58922         6.61174         2.73934 
        1.59535          6.5729         2.71427 
         1.6015         6.52092         2.68947 
        1.60764         6.49877           2.665 
        1.61376         6.46701          2.6409 
        1.61989         6.40523         2.61708 
        1.62604         6.38243          2.5935 
        1.63218         6.35218         2.57022 
        1.63831         6.32609         2.54729 
        1.64444         6.27186         2.52462 
        1.65059         6.24622         2.50218 
        1.65673         6.21616         2.48004 
        1.66285         6.18373         2.45822 
        1.66898         6.14314         2.43667 
        1.67512         6.10424         2.41532 
        1.68127          6.0684         2.39422 
         1.6874         6.05054         2.37341 
        1.69353         6.00057         2.35287 
        1.69967         5.98092         2.33252 
        1.70581          5.9374         2.31242 
        1.71193         5.91755         2.29263 
        1.71806          5.8876         2.27303 
        1.72421          5.8493         2.25362 
        1.73035         5.81985         2.23446 
        1.73649         5.78953         2.21553 
        1.74262         5.75729         2.19684 
        1.74876         5.74288         2.17834 
        1.75489         5.70542          2.1601 
        1.76101         5.66524         2.14208 
        1.76715          5.6559         2.12423 
        1.77329         5.62545         2.10656 
        1.77943         5.58052         2.08909 
        1.78557         5.56848         2.07185 
        1.79171         5.54394         2.05479 
        1.79785         5.51136         2.03792 
        1.80399         5.46414         2.02125 
        1.81012         5.45215         2.00479 
        1.81625         5.42291         1.98851 
        1.82239         5.40029          1.9724 
        1.82853         5.36863         1.95646 
        1.83466         5.32986         1.94073 
        1.84078         5.30934         1.92518 
        1.84692         5.28876         1.90977 
        1.85306         5.26245         1.89452 
         1.8592         5.24742         1.87946 
        1.86533         5.21948         1.86457 
        1.87147         5.19111         1.84982 
        1.87761          5.1778         1.83523 
        1.88375         5.14359         1.82081 
        1.88988         5.11843         1.80656 
        1.89601         5.09247         1.79246 
        1.90215         5.05704         1.77849 
        1.90829         5.05544         1.76468 
        1.91442         5.01631         1.75102 
        1.92056          5.0093         1.73751 
         1.9267         4.97362         1.72414 
        1.93284         4.96873         1.71089 
        1.93897         4.92677         1.69781 
        1.94509         4.90279         1.68489 
        1.95123         4.88687         1.67208 
        1.95737         4.86826         1.65939 
        1.96349         4.83209         1.64687 
        1.96964          4.8153         1.63443 
        1.97578         4.79975         1.62212 
        1.98192         4.77012         1.60997 
        1.98805         4.75755         1.59793 
        1.99419          4.7384         1.58602 
        2.00033         4.69911         1.57422 
        2.00647         4.69635         1.56255 
         2.0126         4.67183         1.55102 
        2.01874         4.65895         1.53958 
        2.02488         4.63145         1.52825 
        2.03101         4.60142         1.51706 
        2.03714         4.59143         1.50598 
        2.04328         4.57153         1.49501 
        2.04941         4.54901         1.48415 
        2.05554         4.53704         1.47341 
        2.06167         4.50926         1.46276 
        2.06781         4.49487         1.45222 
        2.07396            4.47         1.44176 
        2.08009         4.46056         1.43143 
        2.08622         4.44065          1.4212 
        2.09237         4.43234         1.41106 
        2.09851         4.39521         1.40102 
        2.10464         4.38345         1.39108 
        2.11077         4.37449         1.38126 
        2.11691         4.35222         1.37151 
        2.12305          4.3278         1.36186 
        2.12918         4.31524         1.35232 
        2.13531         4.29184         1.34287 
        2.14145         4.28231         1.33349 
         2.1476         4.25504         1.32419 
        2.15372         4.24295         1.31502 
        2.15985         4.22865         1.30593 
        2.16599         4.21276          1.2969 
        2.17213         4.19799         1.28797 
        2.17827          4.1701         1.27912 
         2.1844         4.15261         1.27037 
        2.19054         4.14219         1.26169 
        2.19666          4.1275         1.25311 
         2.2028         4.09733         1.24459 
        2.20893         4.09637         1.23616 
        2.21508           4.083         1.22779 
        2.22122          4.0508          1.2195 
        2.22736          4.0441          1.2113 
        2.23349         4.02475         1.20317 
        2.23962         4.01673         1.19512 
        2.24577         3.98869         1.18713 
         2.2519         3.98034         1.17923 
        2.25802          3.9606         1.17142 
        2.26417         3.94682         1.16365 
        2.27031         3.93022         1.15594 
        2.27644         3.91781         1.14833 
        2.28257         3.90268         1.14079 
        2.28872          3.8894          1.1333 
        2.29486         3.86883         1.12588 
        2.30099         3.85483         1.11854 
        2.30712         3.84434         1.11126 
        2.31326         3.82891         1.10403 
         2.3194         3.81385         1.09688 
        2.32553         3.80153          1.0898 
        2.33166         3.79198         1.08278 
         2.3378         3.77539         1.07582 
        2.34394         3.75743         1.06891 
        2.35007         3.73811         1.06208 
        2.35619          3.7326         1.05531 
        2.36233         3.71529         1.04859 
        2.36848         3.70688         1.04191 
        2.37462         3.69299          1.0353 
        2.38075         3.68237         1.02876 
        2.38689         3.66706         1.02227 
        2.39303         3.65282         1.01583 
        2.39916         3.63747         1.00946 
        2.40529         3.62361         1.00314 
        2.41143         3.61725        0.996875 
        2.41757         3.60712        0.990658 
         2.4237         3.58692        0.984505 
        2.42983           3.583        0.978405 
        2.43598         3.56927        0.972341 
        2.44211         3.54802        0.966338 
        2.44823         3.53652        0.960399 
        2.45437         3.52257        0.954493 
        2.46052         3.51354        0.948633 
        2.46665          3.5039        0.942832 
        2.47279          3.4797        0.937081 
        2.47892         3.47662        0.931375 
        2.48507         3.46515         0.92571 
         2.4912         3.45641        0.920104 
