# k  (h/Mpc)    Pcb(k)  (Mpc/h)^3    Pcb_linear(k)  (Mpc/h)^3
     0.00783031         1161.81         1171.28 
       0.013688         1395.38         1411.02 
       0.019231         1368.19         1374.46 
      0.0249154         1207.31          1205.9 
      0.0312784         978.193         977.248 
      0.0375637         783.574         783.834 
      0.0433917          659.85         657.293 
      0.0492413         578.534         578.111 
      0.0555754         531.852          529.51 
      0.0619321         494.832         498.121 
       0.067871         467.646         468.105 
      0.0738098         428.838         428.929 
      0.0800417         379.085         378.017 
      0.0862327         324.785          324.31 
      0.0921407         278.796         278.049 
      0.0982031         243.121         241.138 
       0.104506         216.065         215.758 
       0.110769         202.114         201.649 
       0.116806         195.941         194.539 
       0.122832         189.428         189.286 
       0.129052         182.479         181.844 
       0.135211         171.678         170.443 
       0.141259         156.403         155.734 
       0.147318         139.853         139.579 
       0.153489         125.243         124.244 
       0.159709         113.465         111.893 
       0.165845         104.047         103.488 
       0.171974         100.196          98.441 
       0.178125         97.0017         95.5726 
       0.184229         94.2289         93.4451 
        0.19034         92.0235         90.7378 
       0.196428         87.9046          86.729 
       0.202534         81.7621          81.376 
       0.208729         76.4733         75.1793 
       0.214876         70.9128          69.125 
       0.220989         65.1089         63.9315 
       0.227147         61.8551         59.9321 
        0.23329         59.1209         57.1769 
       0.239377         57.3564         55.3566 
       0.245482         55.7044         53.9747 
       0.251667          53.852          52.547 
       0.257832         52.5841         50.7522 
       0.263955         49.8758         48.5026 
       0.270079          47.313         45.9064 
        0.27624         44.5142         43.2024 
       0.282372         42.1637         40.7013 
        0.28843         40.5626         38.6029 
       0.294538         38.7625         36.9375 
       0.300721         37.1788         35.6526 
        0.30691         36.4381         34.6302 
       0.313033         35.3167         33.7055 
       0.319153         34.6433         32.7268 
       0.325316         33.0822         31.6035 
        0.33145         31.7813         30.3532 
       0.337538         30.5667         29.0412 
       0.343633         29.4533         27.7526 
       0.349808         28.1834         26.5523 
       0.355968         27.1254         25.5179 
       0.362074         26.4707         24.6539 
       0.368217         25.6379         23.9185 
       0.374374         25.1023         23.2614 
       0.380519         24.2052         22.6248 
       0.386598         23.4665         21.9778 
       0.392688         22.7175          21.291 
        0.39888         22.1377         20.5622 
       0.405048         21.4718         19.8344 
       0.411186         20.7479         19.1352 
       0.417313         20.0901         18.4894 
       0.423458         19.4057         17.9083 
       0.429607         19.0402          17.387 
       0.435692          18.645         16.9188 
       0.441815         18.0023          16.478 
       0.447964          17.459         16.0448 
       0.454126         17.1331         15.6076 
       0.460267         16.8327         15.1683 
       0.466387         16.3116         14.7297 
        0.47254         15.9612         14.2947 
       0.478662         15.4616         13.8793 
       0.484765         15.0796          13.491 
       0.490885         14.6237         13.1289 
       0.497035         14.2705         12.7887 
       0.503198         14.0095         12.4682 
       0.509342         13.5974         12.1632 
       0.515458         13.3749         11.8676 
       0.521598         13.0703         11.5735 
       0.527764         12.8353         11.2805 
       0.533884         12.4391         10.9951 
           0.54         12.2097         10.7183 
       0.546137         11.8443         10.4507 
       0.552299         11.6117         10.1932 
       0.558452         11.3406         9.94823 
       0.564573         11.1572         9.71647 
       0.570708         10.9092         9.49479 
       0.576825         10.7001         9.28162 
       0.582926         10.4655         9.07431 
       0.589034         10.2633         8.87056 
       0.595184         10.1166         8.66924 
       0.601379         9.84122         8.47159 
       0.607522         9.63889         8.28157 
       0.613639         9.43447         8.09887 
       0.619772         9.28093         7.92227 
       0.625918         9.08774         7.75137 
       0.632068         8.95291         7.58597 
       0.638161         8.76965         7.42726 
         0.6443         8.59673         7.27214 
       0.650464         8.40047         7.12097 
       0.656582          8.3162         6.97514 
       0.662703         8.17425         6.83319 
       0.668861         7.95868         6.69411 
       0.675024          7.8201         6.55851 
       0.681124         7.79645         6.42784 
       0.687237         7.60842          6.3004 
       0.693381         7.41294         6.17588 
       0.699536         7.35608         6.05469 
       0.705665         7.21428         5.93751 
       0.711789         7.06207         5.82379 
       0.717957         6.92318         5.71244 
        0.72409         6.84151         5.60474 
       0.730186         6.78435         5.50052 
       0.736317         6.62034         5.39836 
       0.742472          6.5404         5.29837 
       0.748622         6.43765         5.20094 
        0.75476         6.27359         5.10612 
       0.760888         6.22171         5.01378 
       0.767043         6.07747         4.92335 
       0.773185         6.00248         4.83534 
       0.779291          5.9631         4.75002 
       0.785407         5.84034         4.66666 
       0.791564         5.75584         4.58482 
       0.797719         5.65211         4.50502 
       0.803834         5.59279         4.42765 
       0.809972         5.48839         4.35186 
       0.816124         5.41818          4.2777 
       0.822261         5.34253          4.2055 
       0.828378         5.26424          4.1352 
       0.834502         5.19103         4.06646 
       0.840667          5.1337         3.99886 
       0.846816         5.02709         3.93301 
       0.852925         4.97302         3.86907 
       0.859047         4.90086         3.80643 
       0.865192         4.83197         3.74499 
       0.871341         4.76649         3.68488 
       0.877463         4.69289         3.62637 
       0.883569         4.64576         3.56929 
       0.889708          4.5788         3.51315 
       0.895864         4.51827         3.45809 
       0.902008         4.44713         3.40434 
       0.908149         4.38967         3.35176 
       0.914301         4.33993         3.30023 
       0.920448         4.29086         3.24983 
       0.926574         4.25606         3.20067 
       0.932687         4.18295         3.15264 
       0.938823         4.10984         3.10543 
       0.944975         4.08511         3.05909 
       0.951105         4.00438         3.01386 
       0.957225         3.98015         2.96963 
       0.963368         3.92977         2.92615 
       0.969511         3.88229         2.88355 
       0.975621         3.82784         2.84202 
       0.981748         3.76323         2.80122 
       0.987916         3.72865         2.76096 
        0.99406         3.69999         2.72166 
        1.00019          3.6549          2.6832 
        1.00632         3.61934         2.64552 
        1.01246          3.5659         2.60852 
        1.01859         3.52605         2.57229 
        1.02471          3.4702          2.5368 
        1.03085         3.44352         2.50186 
        1.03698         3.40593         2.46766 
        1.04314         3.36847         2.43395 
        1.04929         3.32668         2.40096 
        1.05541         3.28378         2.36872 
        1.06154         3.25815           2.337 
        1.06769         3.23544         2.30581 
        1.07382          3.1802         2.27531 
        1.07993         3.14143         2.24542 
        1.08607          3.1217         2.21596 
        1.09222         3.07781         2.18699 
        1.09836         3.06643         2.15859 
        1.10449         3.00261         2.13072 
        1.11063         2.98269         2.10332 
        1.11677         2.95649         2.07642 
         1.1229         2.91959         2.05003 
        1.12903         2.89994         2.02409 
        1.13518         2.85706         1.99857 
        1.14131         2.82976         1.97352 
        1.14745         2.79722          1.9489 
        1.15359         2.76963         1.92471 
        1.15973         2.73894         1.90092 
        1.16584         2.71625         1.87764 
        1.17197         2.68335         1.85472 
        1.17811         2.65677         1.83212 
        1.18424         2.62997         1.80996 
        1.19038         2.60685          1.7881 
        1.19652          2.5842         1.76662 
        1.20267         2.56331         1.74549 
        1.20881         2.53394         1.72472 
        1.21495         2.50993         1.70431 
        1.22108         2.48731         1.68424 
         1.2272          2.4534         1.66455 
        1.23334         2.44379         1.64512 
        1.23949         2.41313         1.62596 
        1.24562         2.39475         1.60716 
        1.25174         2.37792         1.58869 
        1.25789         2.34298         1.57045 
        1.26402          2.3233         1.55254 
        1.27014         2.30054         1.53494 
        1.27628         2.28097         1.51757 
        1.28244          2.2624         1.50044 
        1.28858         2.24348          1.4836 
        1.29471         2.21499         1.46705 
        1.30084         2.19779         1.45077 
        1.30697         2.18461         1.43472 
        1.31312         2.16271         1.41889 
        1.31925         2.14261         1.40334 
        1.32537         2.12749         1.38805 
        1.33151         2.10343         1.37293 
        1.33765         2.08727         1.35805 
        1.34378         2.07312         1.34342 
        1.34992         2.05478           1.329 
        1.35606         2.03674         1.31476 
         1.3622         2.02045         1.30075 
        1.36833         1.99781         1.28698 
        1.37445         1.97882         1.27342 
        1.38059          1.9639         1.26002 
        1.38675         1.94779         1.24677 
        1.39288           1.938         1.23377 
        1.39901          1.9145         1.22097 
        1.40515         1.90139         1.20831 
         1.4113         1.88919         1.19584 
        1.41742          1.8675          1.1836 
        1.42355         1.85275         1.17151 
         1.4297         1.84127         1.15954 
        1.43585         1.82661         1.14776 
        1.44198         1.81049         1.13618 
        1.44809         1.79851         1.12478 
        1.45423         1.78329          1.1135 
        1.46036         1.77033         1.10239 
        1.46649         1.74926         1.09143 
        1.47263         1.74392         1.08061 
        1.47877         1.73321         1.06995 
        1.48491         1.71086         1.05941 
        1.49104         1.70045         1.04904 
        1.49718         1.68806          1.0388 
        1.50333         1.67317         1.02868 
        1.50947          1.6623         1.01871 
         1.5156         1.64934         1.00889 
        1.52172         1.63737        0.999208 
        1.52787         1.62519         0.98963 
          1.534         1.61573         0.98019 
        1.54013         1.60128        0.970883 
        1.54627         1.58842        0.961681 
        1.55241         1.57428        0.952597 
        1.55855          1.5651        0.943644 
        1.56467         1.55441        0.934831 
         1.5708         1.54298        0.926107 
        1.57695         1.52917        0.917481 
        1.58308         1.51584        0.908985 
        1.58922          1.5101        0.900592 
        1.59535         1.49474        0.892308 
         1.6015         1.48397        0.884118 
        1.60764         1.47681        0.876034 
        1.61376         1.46217        0.868075 
        1.61989         1.45311        0.860208 
        1.62604         1.43976        0.852422 
        1.63218         1.43545        0.844737 
        1.63831         1.42502        0.837165 
        1.64444         1.41329        0.829684 
        1.65059         1.40665        0.822276 
        1.65673         1.39145        0.814967 
        1.66285         1.38339        0.807768 
        1.66898         1.37562        0.800653 
        1.67512         1.36164        0.793611 
        1.68127          1.3539        0.786647 
         1.6874         1.34924        0.779783 
        1.69353         1.33595        0.773004 
        1.69967         1.32752        0.766291 
        1.70581         1.32321        0.759661 
        1.71193         1.30537        0.753134 
        1.71806         1.30201        0.746671 
        1.72421         1.29517        0.740271 
        1.73035          1.2815        0.733953 
        1.73649         1.27824        0.727711 
        1.74262         1.26713        0.721547 
        1.74876         1.25908         0.71545 
        1.75489         1.25094        0.709437 
        1.76101          1.2399        0.703495 
        1.76715          1.2351        0.697613 
        1.77329         1.22664        0.691791 
        1.77943         1.21939        0.686033 
        1.78557         1.21297         0.68035 
        1.79171         1.20507        0.674731 
        1.79785         1.19715        0.669174 
        1.80399         1.18776        0.663681 
        1.81012         1.18087        0.658257 
        1.81625          1.1708        0.652896 
        1.82239         1.16632        0.647588 
        1.82853         1.15875        0.642341 
        1.83466         1.14975        0.637158 
        1.84078         1.14306        0.632037 
        1.84692         1.13636        0.626965 
        1.85306         1.13225        0.621943 
         1.8592         1.12122        0.616983 
        1.86533         1.11691        0.612081 
        1.87147         1.10847        0.607226 
        1.87761         1.10316        0.602423 
        1.88375         1.09528        0.597677 
        1.88988         1.08804        0.592987 
        1.89601         1.08127        0.588345 
        1.90215         1.07578         0.58375 
        1.90829          1.0704        0.579206 
        1.91442         1.06251         0.57471 
        1.92056         1.05819        0.570266 
         1.9267         1.05195        0.565864 
        1.93284         1.04357        0.561506 
        1.93897         1.03734        0.557203 
        1.94509         1.03249        0.552954 
        1.95123         1.02513        0.548739 
        1.95737         1.02136        0.544565 
        1.96349         1.01398        0.540445 
        1.96964         1.01108        0.536356 
        1.97578         1.00162        0.532308 
        1.98192        0.994632        0.528309 
        1.98805        0.990453        0.524352 
        1.99419        0.984725        0.520435 
        2.00033        0.979385        0.516556 
        2.00647        0.975927        0.512718 
         2.0126        0.971087        0.508926 
        2.01874        0.963562        0.505166 
        2.02488        0.956918        0.501441 
        2.03101        0.952144        0.497761 
        2.03714        0.948455        0.494121 
        2.04328        0.942535        0.490513 
        2.04941        0.936894        0.486945 
        2.05554        0.930911        0.483415 
        2.06167        0.926165        0.479915 
        2.06781        0.920416        0.476449 
        2.07396        0.916927        0.473013 
        2.08009        0.912235        0.469616 
        2.08622        0.905933        0.466257 
        2.09237        0.902298        0.462925 
        2.09851        0.896521        0.459624 
        2.10464        0.892176        0.456361 
        2.11077        0.886132        0.453134 
        2.11691        0.881367        0.449931 
        2.12305        0.878605        0.446759 
        2.12918        0.871761        0.443625 
        2.13531        0.868085        0.440521 
        2.14145        0.863233         0.43744 
         2.1476        0.857869        0.434385 
        2.15372         0.85446        0.431374 
        2.15985        0.849448        0.428389 
        2.16599        0.846222        0.425424 
        2.17213        0.840922         0.42249 
        2.17827        0.836128        0.419585 
         2.1844        0.831854         0.41671 
        2.19054        0.827706         0.41386 
        2.19666         0.82413        0.411042 
         2.2028        0.819305        0.408247 
        2.20893        0.816053        0.405477 
        2.21508        0.810992        0.402729 
        2.22122        0.807443        0.400006 
        2.22736        0.801321        0.397314 
        2.23349        0.797747        0.394648 
        2.23962        0.795873        0.392004 
        2.24577        0.791077        0.389383 
         2.2519        0.786666        0.386789 
        2.25802        0.784142        0.384223 
        2.26417        0.778543        0.381673 
        2.27031        0.775262        0.379145 
        2.27644        0.771818        0.376646 
        2.28257        0.766404         0.37417 
        2.28872        0.765095        0.371712 
        2.29486        0.759689        0.369277 
        2.30099        0.756018        0.366868 
        2.30712        0.753704         0.36448 
        2.31326        0.749267        0.362109 
         2.3194        0.744538        0.359761 
        2.32553        0.741215        0.357437 
        2.33166         0.73908        0.355135 
         2.3378        0.735245         0.35285 
        2.34394        0.731417        0.350585 
        2.35007        0.725925        0.348343 
        2.35619        0.723707        0.346123 
        2.36233        0.720562        0.343918 
        2.36848        0.718359        0.341727 
        2.37462        0.713936        0.339559 
        2.38075         0.71063        0.337413 
        2.38689        0.708235        0.335283 
        2.39303        0.703969        0.333173 
        2.39916        0.701017        0.331082 
        2.40529         0.69854         0.32901 
        2.41143         0.69271        0.326954 
        2.41757        0.690999        0.324915 
         2.4237        0.687787        0.322897 
        2.42983        0.683736        0.320896 
        2.43598        0.681321        0.318907 
        2.44211        0.677924        0.316939 
        2.44823        0.675109        0.314991 
        2.45437        0.672759        0.313054 
        2.46052        0.670511        0.311133 
        2.46665        0.666455         0.30923 
        2.47279        0.663555        0.307344 
        2.47892        0.660014        0.305473 
        2.48507         0.65868        0.303616 
         2.4912        0.654251        0.301778 
