# k  (h/Mpc)    Pcb(k)  (Mpc/h)^3    Pcb_linear(k)  (Mpc/h)^3
     0.00783031           11501         11656.3 
       0.013688         13761.4           13660 
       0.019231         13216.9         13175.4 
      0.0249154         11373.2         11549.3 
      0.0312784          9348.1         9395.18 
      0.0375637         7595.77         7552.02 
      0.0433917         6265.59         6307.82 
      0.0492413         5500.94          5490.9 
      0.0555754         4876.54         4958.69 
      0.0619321         4660.78         4614.94 
       0.067871         4263.07          4324.3 
      0.0738098         3924.35         3980.16 
      0.0800417         3472.27         3543.16 
      0.0862327         3052.64         3072.21 
      0.0921407          2683.5         2648.34 
      0.0982031         2314.86         2289.09 
       0.104506         2107.47          2020.5 
       0.110769          1930.5         1852.95 
       0.116806         1820.16         1759.13 
       0.122832         1755.68         1697.84 
       0.129052         1652.89         1634.53 
       0.135211         1568.84         1548.63 
       0.141259         1482.65         1435.75 
       0.147318          1367.8         1303.65 
       0.153489         1228.38         1167.51 
       0.159709         1131.11         1046.62 
       0.165845         1060.11         954.174 
       0.171974         991.453         890.433 
       0.178125         946.266         849.968 
       0.184229         911.722          823.64 
        0.19034          860.88         800.597 
       0.196428         845.737          772.53 
       0.202534         815.619         735.096 
       0.208729         767.365         688.401 
       0.214876         720.361         637.963 
       0.220989         685.639          589.57 
       0.227147         646.642         547.461 
        0.23329         615.602         514.526 
       0.239377         599.392         490.676 
       0.245482         559.651         473.413 
       0.251667         555.467         459.443 
       0.257832          535.95         445.733 
       0.263955         517.639         430.056 
       0.270079         496.138         411.472 
        0.27624         487.371         390.493 
       0.282372         466.463         368.945 
        0.28843         450.995         348.729 
       0.294538         427.463         330.829 
       0.300721         422.817         315.835 
        0.30691         403.133         303.831 
       0.313033          394.42         294.084 
       0.319153         380.915         285.421 
       0.325316         370.636          276.75 
        0.33145         358.575         267.557 
       0.337538         352.581          257.65 
       0.343633         340.446         247.237 
       0.349808         328.243         236.652 
       0.355968         323.613         226.649 
       0.362074         316.561         217.672 
       0.368217         307.408          209.76 
       0.374374          294.78         202.886 
       0.380519         291.713         196.782 
       0.386598         283.922          191.18 
       0.392688         280.661         185.674 
        0.39888         272.948         179.978 
       0.405048         266.145         174.179 
       0.411186         260.674         168.325 
       0.417313         255.399         162.575 
       0.423458         249.718         157.077 
       0.429607         244.656         151.945 
       0.435692         237.732         147.296 
       0.441815         235.445         143.029 
       0.447964         230.412         139.051 
       0.454126         222.398          135.27 
       0.460267         219.084         131.618 
       0.466387         216.299         128.017 
        0.47254         211.362         124.406 
       0.478662         210.527         120.857 
       0.484765         203.081         117.407 
       0.490885         200.412         114.074 
       0.497035         197.075         110.887 
       0.503198         192.711         107.883 
       0.509342         190.571          105.07 
       0.515458         187.738         102.412 
       0.521598         183.784         99.8504 
       0.527764         181.362         97.3592 
       0.533884         178.903         94.9503 
           0.54         175.947         92.5915 
       0.546137         174.653         90.2684 
       0.552299         171.041         87.9951 
       0.558452         169.139         85.8023 
       0.564573         166.398         83.7107 
       0.570708         162.916         81.7037 
       0.576825         160.842         79.7839 
       0.582926         158.172          77.942 
       0.589034         156.441          76.163 
       0.595184          154.52           74.43 
       0.601379         152.376          72.736 
       0.607522         149.552         71.0998 
       0.613639         148.486         69.5091 
       0.619772         145.387         67.9548 
       0.625918         143.984          66.442 
       0.632068         142.054         64.9768 
       0.638161         140.954         63.5759 
         0.6443           138.9         62.2136 
       0.650464         137.414         60.8912 
       0.656582         135.454         59.6188 
       0.662703         134.278         58.3816 
       0.668861         131.893         57.1699 
       0.675024         130.211         55.9889 
       0.681124         129.474         54.8514 
       0.687237         127.268         53.7425 
       0.693381          125.32         52.6593 
       0.699536         124.447         51.6051 
       0.705665         123.928         50.5855 
       0.711789         121.502         49.5952 
       0.717957          121.24         48.6252 
        0.72409         119.277         47.6869 
       0.730186         117.553         46.7789 
       0.736317         116.547         45.8894 
       0.742472         115.736         45.0196 
       0.748622         114.554          44.173 
        0.75476         113.463           43.35 
       0.760888         111.934         42.5493 
       0.767043         111.419         41.7658 
       0.773185         110.191          41.004 
       0.779291         108.309         40.2657 
       0.785407         107.848         39.5448 
       0.791564         106.959         38.8372 
       0.797719          104.97         38.1474 
       0.803834         104.481         37.4788 
       0.809972          103.44         36.8239 
       0.816124         102.931         36.1831 
       0.822261         101.902         35.5593 
       0.828378         100.957         34.9519 
       0.834502         100.487         34.3583 
       0.840667         98.9719         33.7746 
       0.846816         97.8541         33.2061 
       0.852925         97.3354         32.6543 
       0.859047         96.1128          32.114 
       0.865192         95.4133         31.5842 
       0.871341         94.6165         31.0661 
       0.877463         93.5284          30.562 
       0.883569         93.1945         30.0704 
       0.889708         92.2871         29.5872 
       0.895864         91.3954         29.1135 
       0.902008         90.7022         28.6511 
       0.908149         90.2168         28.1991 
       0.914301         89.2572         27.7562 
       0.920448         88.5448         27.3232 
       0.926574         87.8609          26.901 
       0.932687         87.7744         26.4886 
       0.938823         86.3463         26.0834 
       0.944975         85.4332         25.6858 
       0.951105         85.0301          25.298 
       0.957225         84.1552         24.9188 
       0.963368         83.4046         24.5461 
       0.969511         83.2824         24.1811 
       0.975621          82.767         23.8254 
       0.981748         82.0876         23.4761 
       0.987916         81.2361         23.1315 
        0.99406         80.6508         22.7952 
        1.00019         80.2648         22.4662 
        1.00632         79.4817          22.144 
        1.01246          79.042         21.8277 
        1.01859         78.1425         21.5181 
        1.02471         77.6916         21.2149 
        1.03085          77.018         20.9165 
        1.03698         76.7623         20.6245 
        1.04314         75.9986         20.3369 
        1.04929         75.4962         20.0553 
        1.05541         74.7993         19.7803 
        1.06154         74.6165         19.5097 
        1.06769         74.2311         19.2438 
        1.07382         73.7138         18.9838 
        1.07993         73.1746         18.7291 
        1.08607         72.5799         18.4781 
        1.09222         72.3646         18.2314 
        1.09836         71.6733         17.9895 
        1.10449         71.3096         17.7523 
        1.11063           70.67         17.5192 
        1.11677         70.3636         17.2903 
         1.1229         69.6424         17.0659 
        1.12903          69.067         16.8452 
        1.13518         69.1858         16.6283 
        1.14131         68.6415         16.4154 
        1.14745         68.0225         16.2063 
        1.15359         67.6752         16.0008 
        1.15973         67.2088         15.7988 
        1.16584         66.7056         15.6012 
        1.17197         66.3425         15.4067 
        1.17811         65.9788         15.2149 
        1.18424         65.4736          15.027 
        1.19038         65.1606         14.8417 
        1.19652          64.845         14.6595 
        1.20267         64.0992         14.4805 
        1.20881         63.8826         14.3045 
        1.21495         63.4228         14.1316 
        1.22108         63.2428         13.9617 
         1.2272         62.4839          13.795 
        1.23334         62.2783         13.6306 
        1.23949         61.9887         13.4685 
        1.24562         61.5088         13.3094 
        1.25174         61.2288         13.1532 
        1.25789         60.9897          12.999 
        1.26402         60.5474         12.8476 
        1.27014         60.1279          12.699 
        1.27628         59.8036         12.5522 
        1.28244         59.4138         12.4075 
        1.28858         59.2132         12.2653 
        1.29471         58.8996         12.1256 
        1.30084         58.5451         11.9882 
        1.30697         58.1279         11.8527 
        1.31312         57.7787         11.7192 
        1.31925         57.4635         11.5881 
        1.32537         57.2717         11.4591 
        1.33151         56.6847         11.3317 
        1.33765         56.4966         11.2062 
        1.34378         56.1656         11.0829 
        1.34992         55.8867         10.9614 
        1.35606         55.5922         10.8414 
         1.3622         55.1368         10.7235 
        1.36833         54.9781         10.6075 
        1.37445         54.6631         10.4934 
        1.38059         54.2218         10.3806 
        1.38675         53.9767         10.2692 
        1.39288         53.6784         10.1598 
        1.39901         53.5022         10.0521 
        1.40515         53.1004         9.94571 
         1.4113         52.8863         9.84091 
        1.41742         52.7786         9.73801 
        1.42355         52.2977         9.63639 
         1.4297         52.1599         9.53592 
        1.43585         51.7779         9.43692 
        1.44198         51.4443          9.3397 
        1.44809         51.2793         9.24404 
        1.45423         50.9966         9.14936 
        1.46036         50.8001         9.05618 
        1.46649         50.5073         8.96426 
        1.47263         50.1526         8.87354 
        1.47877         49.9215         8.78412 
        1.48491         49.8121         8.69579 
        1.49104         49.4571         8.60886 
        1.49718         49.0273         8.52305 
        1.50333         48.9599         8.43827 
        1.50947         48.7109         8.35481 
         1.5156         48.4083          8.2726 
        1.52172         48.2568          8.1915 
        1.52787         48.1199         8.11132 
          1.534          47.695         8.03231 
        1.54013         47.4506         7.95443 
        1.54627         47.3478         7.87745 
        1.55241         46.8727         7.80146 
        1.55855         46.7683         7.72659 
        1.56467         46.4184         7.65291 
         1.5708         46.4019         7.57997 
        1.57695         46.1718         7.50788 
        1.58308         45.8246         7.43689 
        1.58922         45.6805         7.36677 
        1.59535         45.5515         7.29758 
         1.6015         45.1111         7.22918 
        1.60764         44.9406         7.16168 
        1.61376         44.7107         7.09524 
        1.61989         44.5099         7.02958 
        1.62604         44.3294          6.9646 
        1.63218         44.2439         6.90049 
        1.63831         43.8967         6.83733 
        1.64444         43.7043         6.77494 
        1.65059         43.5037         6.71317 
        1.65673         43.2803         6.65224 
        1.66285         42.9814         6.59224 
        1.66898         42.8664         6.53296 
        1.67512         42.5724         6.47429 
        1.68127         42.3943         6.41629 
         1.6874         42.2359         6.35912 
        1.69353         41.9863         6.30269 
        1.69967         41.8138          6.2468 
        1.70581         41.7193         6.19162 
        1.71193         41.5255         6.13731 
        1.71806         41.1022         6.08354 
        1.72421         41.0557          6.0303 
        1.73035         40.8726         5.97776 
        1.73649          40.533         5.92585 
        1.74262         40.4428          5.8746 
        1.74876         40.2622         5.82392 
        1.75489         40.0912         5.77394 
        1.76101         39.9223         5.72456 
        1.76715          39.677         5.67569 
        1.77329         39.5089         5.62733 
        1.77943         39.2985         5.57951 
        1.78557         39.1378         5.53231 
        1.79171         38.9608         5.48566 
        1.79785          38.765         5.43953 
        1.80399         38.7096         5.39394 
        1.81012         38.3951         5.34893 
        1.81625           38.17         5.30446 
        1.82239         38.0925         5.26042 
        1.82853         37.8492         5.21691 
        1.83466         37.6536         5.17392 
        1.84078         37.4328         5.13147 
        1.84692         37.3065         5.08942 
        1.85306         37.1129          5.0478 
         1.8592         36.8984          5.0067 
        1.86533         36.8053         4.96608 
        1.87147         36.6654         4.92586 
        1.87761         36.5115         4.88608 
        1.88375         36.3098         4.84677 
        1.88988         36.2155         4.80794 
        1.89601         36.0019         4.76952 
        1.90215         35.8779         4.73148 
        1.90829          35.767         4.69388 
        1.91442         35.5378         4.65668 
        1.92056         35.3089         4.61991 
         1.9267         35.1842         4.58351 
        1.93284         34.9863         4.54747 
        1.93897         34.9229         4.51189 
        1.94509         34.6724         4.47677 
        1.95123         34.5667         4.44193 
        1.95737         34.3688         4.40743 
        1.96349         34.2087         4.37339 
        1.96964         34.1592         4.33961 
        1.97578         33.8927         4.30617 
        1.98192         33.7924         4.27315 
        1.98805          33.715         4.24048 
        1.99419         33.4997         4.20814 
        2.00033         33.3341         4.17612 
        2.00647          33.177         4.14444 
         2.0126         32.9641         4.11314 
        2.01874         32.9586         4.08212 
        2.02488         32.7806         4.05139 
        2.03101         32.6051         4.02103 
        2.03714         32.4705         3.99101 
        2.04328         32.3092         3.96126 
        2.04941         32.1576         3.93184 
        2.05554         31.9987         3.90274 
        2.06167         31.9343         3.87389 
        2.06781         31.6975         3.84533 
        2.07396          31.639         3.81702 
        2.08009         31.5082         3.78904 
        2.08622         31.2956         3.76137 
        2.09237         31.1917         3.73392 
        2.09851         31.0435         3.70674 
        2.10464         30.9318         3.67988 
        2.11077         30.8458         3.65331 
        2.11691         30.6224         3.62695 
        2.12305         30.4838         3.60085 
        2.12918         30.3714         3.57506 
        2.13531         30.2374         3.54953 
        2.14145          30.127         3.52418 
         2.1476         29.9638         3.49905 
        2.15372         29.8186         3.47429 
        2.15985         29.7132         3.44975 
        2.16599          29.651         3.42537 
        2.17213          29.549         3.40125 
        2.17827         29.2968         3.37737 
         2.1844         29.2317         3.35374 
        2.19054         29.1074         3.33033 
        2.19666         28.9702         3.30718 
         2.2028         28.7895         3.28422 
        2.20893         28.7457         3.26147 
        2.21508         28.6535         3.23891 
        2.22122         28.4523         3.21655 
        2.22736         28.3937         3.19445 
        2.23349         28.2395         3.17257 
        2.23962         28.0912         3.15087 
        2.24577         27.9658         3.12936 
         2.2519         27.8619         3.10808 
        2.25802         27.7675         3.08704 
        2.26417         27.6341         3.06612 
        2.27031         27.5159         3.04538 
        2.27644         27.3794          3.0249 
        2.28257         27.3138          3.0046 
        2.28872         27.1814         2.98445 
        2.29486         27.0907         2.96449 
        2.30099         26.9244         2.94475 
        2.30712         26.8337         2.92518 
        2.31326         26.7249         2.90576 
         2.3194         26.6382         2.88652 
        2.32553         26.5176         2.86749 
        2.33166         26.4085         2.84864 
         2.3378         26.2191         2.82993 
        2.34394         26.1622         2.81138 
        2.35007         26.0665         2.79302 
        2.35619         25.9255         2.77485 
        2.36233         25.8516          2.7568 
        2.36848         25.7434         2.73887 
        2.37462         25.6077         2.72114 
        2.38075         25.5578         2.70358 
        2.38689         25.4393         2.68616 
        2.39303         25.3076          2.6689 
        2.39916         25.1672         2.65181 
        2.40529         25.0739         2.63487 
        2.41143         25.0217         2.61806 
        2.41757         24.9115         2.60139 
         2.4237         24.8112          2.5849 
        2.42983          24.633         2.56855 
        2.43598         24.5743          2.5523 
        2.44211          24.458         2.53621 
        2.44823         24.3876          2.5203 
        2.45437         24.2597         2.50449 
        2.46052          24.094         2.48879 
        2.46665         24.0768         2.47326 
        2.47279         23.9827         2.45786 
        2.47892         23.8664         2.44259 
        2.48507         23.7381         2.42743 
         2.4912         23.7067         2.41242 
