# k  (h/Mpc)    P(k)  (Mpc/h)^3    P_linear(k)  (Mpc/h)^3
     0.00783031         754.148         762.735 
       0.013688         891.283         893.814 
       0.019231         861.922         862.108 
      0.0249154         752.572          755.71 
      0.0312784         615.223         614.762 
      0.0375637         496.104          494.16 
      0.0433917         413.278         412.748 
      0.0492413         360.319         359.294 
      0.0555754         323.889          324.47 
      0.0619321         303.294         301.978 
       0.067871         282.364          282.96 
      0.0738098         259.751         260.441 
      0.0800417         230.894         231.847 
      0.0862327         200.967          201.03 
      0.0921407         173.712         173.295 
      0.0982031         149.919         149.787 
       0.104506         133.279         132.212 
       0.110769         122.084         121.248 
       0.116806         115.317         115.109 
       0.122832         111.568         111.099 
       0.129052         106.863         106.956 
       0.135211         101.192         101.335 
       0.141259         94.2105         93.9489 
       0.147318         85.8857         85.3051 
       0.153489         76.8665         76.3967 
       0.159709         69.0791         68.4858 
       0.165845         63.4181         62.4366 
       0.171974         58.8137         58.2659 
       0.178125         56.2529          55.618 
       0.184229         54.5386         53.8953 
        0.19034         52.5779         52.3875 
       0.196428         50.9797         50.5508 
       0.202534         48.8358         48.1013 
       0.208729         45.5968         45.0461 
       0.214876         42.1839         41.7454 
       0.220989         39.3181         38.5789 
       0.227147         36.3529         35.8235 
        0.23329         34.2178         33.6683 
       0.239377         32.7376         32.1076 
       0.245482          31.393          30.978 
       0.251667         30.6806         30.0639 
       0.257832         29.6928         29.1668 
       0.263955         28.6875         28.1411 
       0.270079         27.4685         26.9251 
        0.27624         26.2581         25.5521 
       0.282372         24.8788         24.1421 
        0.28843         23.4613         22.8191 
       0.294538         22.2914          21.648 
       0.300721         21.4397         20.6668 
        0.30691         20.5187         19.8813 
       0.313033         19.8739         19.2435 
       0.319153         19.1146         18.6767 
       0.325316          18.777         18.1093 
        0.33145         18.1152         17.5079 
       0.337538         17.4793         16.8595 
       0.343633         16.7389         16.1781 
       0.349808         16.1143         15.4855 
       0.355968          15.476         14.8309 
       0.362074         14.8632         14.2435 
       0.368217         14.3528         13.7258 
       0.374374         13.8429         13.2759 
       0.380519           13.49         12.8766 
       0.386598         13.1347         12.5099 
       0.392688         12.8119         12.1497 
        0.39888         12.3965          11.777 
       0.405048         12.0345         11.3975 
       0.411186         11.6615         11.0145 
       0.417313         11.2427         10.6382 
       0.423458         10.9049         10.2784 
       0.429607         10.5427         9.94265 
       0.435692          10.223         9.63839 
       0.441815          9.9525         9.35917 
       0.447964         9.73813         9.09889 
       0.454126         9.41407         8.85145 
       0.460267         9.19358         8.61247 
       0.466387         8.91113         8.37695 
        0.47254         8.70816         8.14055 
       0.478662         8.50323         7.90833 
       0.484765         8.23042          7.6826 
       0.490885         8.01704         7.46452 
       0.497035         7.87404          7.2559 
       0.503198         7.63938         7.05937 
       0.509342         7.45236         6.87532 
       0.515458         7.25934          6.7014 
       0.521598         7.09877         6.53378 
       0.527764         6.90914         6.37076 
       0.533884         6.78676         6.21312 
           0.54          6.6144          6.0588 
       0.546137         6.46974         5.90677 
       0.552299         6.32572         5.75801 
       0.558452         6.14005         5.61453 
       0.564573         6.02821         5.47766 
       0.570708         5.89228         5.34633 
       0.576825         5.74144         5.22071 
       0.582926         5.63297         5.10018 
       0.589034          5.4719         4.98377 
       0.595184         5.37397         4.87037 
       0.601379         5.25066         4.75952 
       0.607522          5.1662         4.65246 
       0.613639         5.07924         4.54837 
       0.619772         4.93494         4.44666 
       0.625918         4.86438         4.34768 
       0.632068         4.78091          4.2518 
       0.638161         4.65905         4.16012 
         0.6443         4.56213         4.07099 
       0.650464         4.45834         3.98445 
       0.656582         4.40248         3.90119 
       0.662703         4.31394         3.82024 
       0.668861         4.23835         3.74095 
       0.675024         4.14514         3.66366 
       0.681124         4.06149         3.58923 
       0.687237         3.99798         3.51667 
       0.693381         3.92646         3.44579 
       0.699536         3.82195         3.37681 
       0.705665         3.76414         3.31009 
       0.711789         3.70118         3.24529 
       0.717957         3.62774         3.18182 
        0.72409         3.56349         3.12042 
       0.730186         3.50256         3.06101 
       0.736317         3.46356          3.0028 
       0.742472         3.40209         2.94589 
       0.748622         3.33314         2.89049 
        0.75476         3.26503         2.83663 
       0.760888         3.21264         2.78424 
       0.767043         3.17299         2.73297 
       0.773185          3.1042         2.68312 
       0.779291         3.06575         2.63481 
       0.785407         3.01123         2.58764 
       0.791564         2.96672         2.54134 
       0.797719         2.91911          2.4962 
       0.803834         2.88204         2.45245 
       0.809972          2.8362         2.40959 
       0.816124         2.78036         2.36766 
       0.822261         2.72791         2.32684 
       0.828378         2.69304          2.2871 
       0.834502         2.66489         2.24826 
       0.840667         2.60533         2.21006 
       0.846816          2.5639         2.17286 
       0.852925          2.5405         2.13676 
       0.859047          2.5004          2.1014 
       0.865192         2.46333         2.06673 
       0.871341         2.43172         2.03283 
       0.877463         2.39703         1.99984 
       0.883569         2.35235         1.96768 
       0.889708         2.31707         1.93606 
       0.895864         2.28377         1.90506 
       0.902008         2.24942          1.8748 
       0.908149         2.22355         1.84523 
       0.914301         2.18039         1.81624 
       0.920448         2.15268         1.78791 
       0.926574         2.12045         1.76028 
       0.932687         2.09284          1.7333 
       0.938823         2.07016         1.70679 
       0.944975         2.04059         1.68077 
       0.951105         2.01545         1.65539 
       0.957225         1.99871         1.63058 
       0.963368         1.96752         1.60619 
       0.969511         1.93632          1.5823 
       0.975621         1.90677         1.55903 
       0.981748         1.88875         1.53617 
       0.987916         1.86115         1.51362 
        0.99406         1.83026         1.49162 
        1.00019         1.81283         1.47009 
        1.00632         1.78742         1.44901 
        1.01246         1.76588         1.42831 
        1.01859         1.74449         1.40805 
        1.02471         1.72064         1.38821 
        1.03085         1.70094         1.36869 
        1.03698         1.67669         1.34958 
        1.04314          1.6594         1.33076 
        1.04929         1.63718         1.31233 
        1.05541         1.61883         1.29434 
        1.06154         1.59788         1.27663 
        1.06769           1.582         1.25923 
        1.07382         1.55935         1.24222 
        1.07993         1.53652         1.22555 
        1.08607         1.52761         1.20913 
        1.09222         1.50479         1.19298 
        1.09836         1.49252         1.17716 
        1.10449         1.47461         1.16164 
        1.11063         1.45155         1.14638 
        1.11677         1.43546          1.1314 
         1.1229            1.42         1.11672 
        1.12903         1.40231         1.10228 
        1.13518         1.38954         1.08809 
        1.14131         1.36972         1.07415 
        1.14745         1.34673         1.06047 
        1.15359         1.33914         1.04702 
        1.15973         1.31804         1.03381 
        1.16584         1.31236         1.02088 
        1.17197         1.29561         1.00815 
        1.17811         1.28363        0.995599 
        1.18424         1.27102        0.983301 
        1.19038         1.25417        0.971175 
        1.19652         1.23963        0.959258 
        1.20267         1.23013        0.947541 
        1.20881         1.21285        0.936023 
        1.21495         1.20333        0.924714 
        1.22108         1.19059        0.913594 
         1.2272         1.18106        0.902683 
        1.23334         1.16476        0.891925 
        1.23949         1.15175        0.881318 
        1.24562         1.14276        0.870912 
        1.25174         1.12992         0.86069 
        1.25789         1.11899        0.850601 
        1.26402         1.10414        0.840692 
        1.27014         1.09371        0.830965 
        1.27628         1.08795        0.821363 
        1.28244          1.0714        0.811894 
        1.28858         1.06249        0.802587 
        1.29471         1.05157        0.793447 
        1.30084         1.03947        0.784457 
        1.30697         1.03138        0.775593 
        1.31312         1.01617        0.766853 
        1.31925         1.01036        0.758275 
        1.32537         1.00031        0.749836 
        1.33151        0.992535        0.741496 
        1.33765        0.980692        0.733287 
        1.34378        0.969989        0.725219 
        1.34992        0.964115        0.717267 
        1.35606        0.950983        0.709417 
         1.3622        0.944986        0.701698 
        1.36833        0.934986        0.694113 
        1.37445         0.92372        0.686643 
        1.38059        0.917177        0.679261 
        1.38675        0.913413         0.67197 
        1.39288        0.900856        0.664814 
        1.39901          0.8919        0.657767 
        1.40515        0.884718        0.650805 
         1.4113        0.876132        0.643947 
        1.41742         0.86814        0.637214 
        1.42355        0.864338        0.630565 
         1.4297        0.852281         0.62399 
        1.43585        0.845642        0.617512 
        1.44198        0.841356         0.61115 
        1.44809        0.829964         0.60489 
        1.45423        0.823523        0.598695 
        1.46036        0.816134        0.592598 
        1.46649         0.80905        0.586583 
        1.47263        0.801416        0.580647 
        1.47877        0.793558        0.574796 
        1.48491        0.787084        0.569016 
        1.49104        0.780195        0.563327 
        1.49718        0.775269        0.557712 
        1.50333         0.76659        0.552164 
        1.50947        0.761861        0.546703 
         1.5156        0.754325        0.541324 
        1.52172        0.747691        0.536017 
        1.52787        0.740629         0.53077 
          1.534        0.735677          0.5256 
        1.54013        0.727703        0.520504 
        1.54627        0.721754        0.515467 
        1.55241        0.715383        0.510495 
        1.55855        0.710229        0.505595 
        1.56467        0.705981        0.500774 
         1.5708        0.697493        0.496001 
        1.57695        0.694381        0.491284 
        1.58308          0.6882        0.486639 
        1.58922        0.681982         0.48205 
        1.59535        0.676619        0.477523 
         1.6015        0.671031        0.473047 
        1.60764        0.666625         0.46863 
        1.61376        0.660228        0.464282 
        1.61989         0.65559        0.459986 
        1.62604        0.649489        0.455734 
        1.63218        0.646458        0.451539 
        1.63831        0.639945        0.447406 
        1.64444        0.634695        0.443323 
        1.65059        0.630437        0.439282 
        1.65673        0.624166        0.435295 
        1.66285        0.619851        0.431369 
        1.66898        0.617235        0.427489 
        1.67512        0.609607         0.42365 
        1.68127        0.604993        0.419855 
         1.6874        0.602673        0.416114 
        1.69353         0.59631        0.412421 
        1.69967        0.591487        0.408765 
        1.70581        0.588347        0.405154 
        1.71193        0.583201          0.4016 
        1.71806        0.579724        0.398081 
        1.72421        0.574793        0.394597 
        1.73035         0.56956        0.391159 
        1.73649        0.567074        0.387763 
        1.74262        0.562421        0.384409 
        1.74876        0.557516        0.381093 
        1.75489         0.55264        0.377822 
        1.76101        0.549172        0.374591 
        1.76715        0.545426        0.371393 
        1.77329        0.541985        0.368229 
        1.77943        0.536771          0.3651 
        1.78557        0.533016        0.362012 
        1.79171        0.530323        0.358958 
        1.79785        0.525783         0.35594 
        1.80399        0.522278        0.352957 
        1.81012        0.519088        0.350012 
        1.81625        0.514865        0.347102 
        1.82239        0.511782         0.34422 
        1.82853         0.50615        0.341373 
        1.83466        0.503713         0.33856 
        1.84078        0.499299        0.335782 
        1.84692        0.497408        0.333031 
        1.85306        0.493994        0.330307 
         1.8592        0.490608        0.327618 
        1.86533        0.487036         0.32496 
        1.87147        0.483654        0.322328 
        1.87761        0.480234        0.319725 
        1.88375        0.475877        0.317153 
        1.88988         0.47396        0.314612 
        1.89601        0.469802        0.312098 
        1.90215        0.466993        0.309609 
        1.90829        0.463205        0.307148 
        1.91442        0.460517        0.304714 
        1.92056        0.457798        0.302308 
         1.9267        0.453944        0.299926 
        1.93284        0.452076        0.297568 
        1.93897        0.448217         0.29524 
        1.94509        0.445716        0.292941 
        1.95123        0.442257        0.290661 
        1.95737        0.439821        0.288404 
        1.96349        0.435952        0.286177 
        1.96964        0.434023        0.283966 
        1.97578        0.430705        0.281778 
        1.98192        0.428816        0.279618 
        1.98805        0.425123        0.277479 
        1.99419        0.422952        0.275363 
        2.00033        0.421153        0.273268 
        2.00647        0.417285        0.271195 
         2.0126        0.414764        0.269147 
        2.01874        0.412424        0.267117 
        2.02488        0.410255        0.265106 
        2.03101        0.406282         0.26312 
        2.03714        0.403325        0.261155 
        2.04328        0.402446        0.259209 
        2.04941        0.399348        0.257284 
        2.05554        0.396558        0.255379 
        2.06167        0.394112        0.253492 
        2.06781        0.391017        0.251623 
        2.07396        0.388423         0.24977 
        2.08009        0.386477        0.247939 
        2.08622         0.38408        0.246129 
        2.09237        0.382678        0.244333 
        2.09851         0.38018        0.242554 
        2.10464        0.377915        0.240796 
        2.11077        0.375448        0.239058 
        2.11691        0.372734        0.237333 
        2.12305        0.370625        0.235625 
        2.12918        0.368633        0.233937 
        2.13531        0.365909        0.232266 
        2.14145        0.364331        0.230608 
         2.1476        0.361571        0.228964 
        2.15372        0.360347        0.227344 
        2.15985        0.357191        0.225737 
        2.16599         0.35471        0.224142 
        2.17213        0.353237        0.222564 
        2.17827        0.351751        0.221002 
         2.1844        0.349842        0.219455 
        2.19054        0.347598        0.217923 
        2.19666        0.344986        0.216408 
         2.2028        0.343308        0.214906 
        2.20893        0.341589        0.213417 
        2.21508        0.339577        0.211941 
        2.22122        0.336332        0.210478 
        2.22736        0.335036        0.209032 
        2.23349        0.334032          0.2076 
        2.23962        0.331858         0.20618 
        2.24577        0.328988        0.204773 
         2.2519        0.327802         0.20338 
        2.25802        0.325534        0.202003 
        2.26417        0.323686        0.200635 
        2.27031        0.321754        0.199278 
        2.27644        0.320377        0.197937 
        2.28257        0.318675        0.196609 
        2.28872        0.316732         0.19529 
        2.29486        0.314752        0.193984 
        2.30099        0.312952        0.192693 
        2.30712        0.311481        0.191412 
        2.31326        0.309679        0.190141 
         2.3194        0.308928        0.188882 
        2.32553        0.306922        0.187637 
        2.33166        0.305294        0.186403 
         2.3378        0.303562        0.185179 
        2.34394        0.300899        0.183965 
        2.35007        0.299788        0.182764 
        2.35619        0.298368        0.181575 
        2.36233        0.295981        0.180394 
        2.36848        0.295087        0.179221 
        2.37462        0.292923        0.178061 
        2.38075        0.292311        0.176912 
        2.38689        0.290211        0.175772 
        2.39303        0.289182        0.174642 
        2.39916        0.286748        0.173524 
        2.40529        0.285757        0.172415 
        2.41143        0.284358        0.171315 
        2.41757        0.282894        0.170225 
         2.4237        0.281438        0.169145 
        2.42983        0.280022        0.168076 
        2.43598        0.278667        0.167012 
        2.44211        0.277352         0.16596 
        2.44823        0.275816        0.164919 
        2.45437        0.273891        0.163884 
        2.46052        0.273229        0.162857 
        2.46665        0.271331         0.16184 
        2.47279         0.26994        0.160833 
        2.47892        0.268307        0.159833 
        2.48507        0.267241        0.158841 
         2.4912        0.266081        0.157859 
