# k  (h/Mpc)    Pcb(k)  (Mpc/h)^3    Pcb_linear(k)  (Mpc/h)^3
     0.00783031         861.949         870.322 
       0.013688         1069.37         1071.35 
       0.019231         1079.92            1080 
      0.0249154         988.232         993.178 
      0.0312784          854.51         854.928 
      0.0375637         726.949          724.98 
      0.0433917         629.889         630.323 
      0.0492413         563.637         562.795 
      0.0555754         511.658         513.454 
      0.0619321         479.083         477.152 
       0.067871         444.214         445.517 
      0.0738098         409.112         410.552 
      0.0800417         367.256         369.333 
      0.0862327         326.246          326.84 
      0.0921407         289.368          289.13 
      0.0982031         256.512         256.816 
       0.104506         233.143         231.656 
       0.110769         215.632         214.485 
       0.116806         203.114         203.149 
       0.122832         194.864         194.228 
       0.129052         184.594         184.978 
       0.135211         173.776         174.202 
       0.141259         162.218         161.828 
       0.147318         149.527         148.496 
       0.153489         136.023         135.332 
       0.159709         124.708         123.764 
       0.165845         116.528         114.712 
       0.171974         108.966         108.021 
       0.178125          104.23         103.137 
       0.184229         100.525         99.2913 
        0.19034         95.9256         95.6233 
       0.196428         92.4669         91.5695 
       0.202534         88.4376         86.8889 
       0.208729         82.8672         81.6653 
       0.214876         77.3096         76.4006 
       0.220989         73.1464         71.5144 
       0.227147          68.324          67.262 
        0.23329         64.9309         63.8105 
       0.239377         62.4137         61.0951 
       0.245482         59.7129         58.8637 
       0.251667         58.1763         56.8378 
       0.257832         56.0383         54.8183 
       0.263955         53.9188         52.6721 
       0.270079         51.6504         50.3663 
        0.27624         49.6421         47.9663 
       0.282372         47.3204         45.6236 
        0.28843         44.9823          43.478 
       0.294538         43.0587         41.5598 
       0.300721         41.6882         39.8906 
        0.30691         39.9422         38.4516 
       0.313033          38.691         37.1844 
       0.319153         37.0651         35.9894 
       0.325316         36.3948         34.7948 
        0.33145         35.0492         33.5787 
       0.337538         33.8867          32.349 
       0.343633         32.5536         31.1196 
       0.349808         31.4734         29.9174 
       0.355968         30.3816         28.7939 
       0.362074         29.3151         27.7767 
       0.368217         28.4081         26.8504 
       0.374374         27.4478         26.0044 
       0.380519         26.7596         25.2194 
       0.386598         26.0389         24.4748 
       0.392688         25.3995         23.7439 
        0.39888         24.5941         23.0066 
       0.405048         23.9229         22.2782 
       0.411186         23.2523         21.5694 
       0.417313         22.4471         20.8876 
       0.423458         21.8396         20.2385 
       0.429607         21.1788           19.63 
       0.435692         20.5647         19.0667 
       0.441815         20.0872         18.5331 
       0.447964         19.6956         18.0243 
       0.454126         19.0054         17.5339 
       0.460267         18.5851         17.0577 
       0.466387         18.0151         16.5937 
        0.47254         17.6607         16.1383 
       0.478662         17.2808         15.6976 
       0.484765         16.7583         15.2732 
       0.490885         16.3449         14.8655 
       0.497035         16.0991         14.4751 
       0.503198         15.6523         14.1019 
       0.509342         15.2732          13.746 
       0.515458         14.8992         13.4059 
       0.521598         14.5993         13.0764 
       0.527764         14.2367         12.7552 
       0.533884         13.9849         12.4449 
           0.54         13.6567         12.1432 
       0.546137         13.3858         11.8496 
       0.552299         13.1188         11.5645 
       0.558452          12.726         11.2898 
       0.564573         12.5331         11.0261 
       0.570708         12.2762         10.7714 
       0.576825         11.9605         10.5267 
       0.582926         11.7503          10.291 
       0.589034         11.4195         10.0623 
       0.595184         11.2388          9.8387 
       0.601379         10.9929         9.61971 
       0.607522         10.8268         9.40864 
       0.613639          10.671         9.20457 
       0.619772          10.379         9.00615 
       0.625918         10.2654         8.81344 
       0.632068         10.0964         8.62653 
       0.638161         9.84891         8.44694 
         0.6443         9.64668         8.27135 
       0.650464         9.44558         8.10027 
       0.656582         9.35256         7.93536 
       0.662703         9.17463         7.77506 
       0.668861         9.01205         7.61829 
       0.675024          8.8246         7.46571 
       0.681124         8.66367         7.31878 
       0.687237          8.5333         7.17547 
       0.693381         8.40363         7.03531 
       0.699536         8.17666         6.89866 
       0.705665         8.07637         6.76629 
       0.711789          7.9427          6.6376 
       0.717957         7.80153         6.51147 
        0.72409         7.66867         6.38941 
       0.730186         7.55587         6.27128 
       0.736317         7.47454         6.15553 
       0.742472         7.35122         6.04231 
       0.748622          7.2188         5.93205 
        0.75476         7.06797         5.82477 
       0.760888         6.97519         5.72031 
       0.767043         6.89069           5.618 
       0.773185         6.74706         5.51842 
       0.779291         6.68156         5.42184 
       0.785407         6.57009         5.32745 
       0.791564          6.4697         5.23474 
       0.797719         6.36389         5.14431 
       0.803834         6.30283         5.05661 
       0.809972         6.22277         4.97067 
       0.816124         6.09612         4.88656 
       0.822261         5.99419         4.80465 
       0.828378         5.92208         4.72487 
       0.834502          5.8673         4.64685 
       0.840667         5.74825         4.57011 
       0.846816         5.65575         4.49533 
       0.852925         5.60661          4.4227 
       0.859047         5.52801         4.35154 
       0.865192         5.46627         4.28173 
       0.871341         5.40089         4.21341 
       0.877463         5.32058         4.14691 
       0.883569         5.22824         4.08202 
       0.889708         5.14659         4.01819 
       0.895864         5.09261         3.95558 
       0.902008         5.02404         3.89444 
       0.908149          4.9697         3.83464 
       0.914301         4.88403         3.77601 
       0.920448         4.82024         3.71867 
       0.926574         4.75429         3.66273 
       0.932687          4.7063         3.60807 
       0.938823         4.64883         3.55434 
       0.944975         4.58594         3.50158 
       0.951105         4.53719          3.4501 
       0.957225         4.51032         3.39974 
       0.963368         4.44263         3.35023 
       0.969511         4.38114         3.30171 
       0.975621         4.31879         3.25441 
       0.981748         4.27737         3.20793 
       0.987916         4.22673         3.16207 
        0.99406         4.15659         3.11729 
        1.00019         4.10955         3.07347 
        1.00632         4.07464         3.03053 
        1.01246         4.02781         2.98836 
        1.01859         3.97753         2.94706 
        1.02471         3.93082          2.9066 
        1.03085         3.88691         2.86677 
        1.03698         3.83528         2.82776 
        1.04314         3.80194         2.78933 
        1.04929         3.75287          2.7517 
        1.05541         3.71062         2.71492 
        1.06154         3.67395         2.67873 
        1.06769         3.64647         2.64315 
        1.07382         3.59053         2.60833 
        1.07993         3.54439         2.57423 
        1.08607         3.52575         2.54059 
        1.09222         3.48089         2.50753 
        1.09836         3.45109         2.47509 
        1.10449         3.41206         2.44328 
        1.11063         3.37037         2.41199 
        1.11677         3.33936         2.38126 
         1.1229         3.30436         2.35112 
        1.12903         3.26441         2.32148 
        1.13518         3.23649         2.29233 
        1.14131         3.19163          2.2637 
        1.14745         3.14712         2.23558 
        1.15359         3.13204         2.20793 
        1.15973         3.08915         2.18075 
        1.16584         3.06935         2.15414 
        1.17197         3.03679         2.12795 
        1.17811         3.01132         2.10211 
        1.18424         2.98626         2.07678 
        1.19038         2.95553         2.05179 
        1.19652          2.9249         2.02723 
        1.20267         2.89825         2.00307 
        1.20881          2.8661         1.97931 
        1.21495         2.84351         1.95598 
        1.22108         2.81562         1.93303 
         1.2272          2.7974          1.9105 
        1.23334         2.76023         1.88829 
        1.23949         2.73167         1.86637 
        1.24562         2.71609         1.84487 
        1.25174         2.68243         1.82373 
        1.25789         2.66236         1.80287 
        1.26402         2.63161         1.78237 
        1.27014          2.6075         1.76224 
        1.27628         2.59493         1.74236 
        1.28244         2.55971         1.72275 
        1.28858         2.54389         1.70347 
        1.29471         2.51604         1.68453 
        1.30084         2.49129          1.6659 
        1.30697         2.48124         1.64752 
        1.31312         2.43957          1.6294 
        1.31925         2.42936          1.6116 
        1.32537         2.40701         1.59409 
        1.33151         2.39112         1.57678 
        1.33765         2.36098         1.55974 
        1.34378         2.34196         1.54298 
        1.34992         2.33247         1.52646 
        1.35606         2.29815         1.51015 
         1.3622         2.28894          1.4941 
        1.36833         2.26728         1.47833 
        1.37445          2.2453         1.46279 
        1.38059         2.23202         1.44743 
        1.38675         2.22061         1.43226 
        1.39288         2.19298         1.41736 
        1.39901         2.17194         1.40268 
        1.40515         2.15649         1.38818 
         1.4113         2.14039         1.37389 
        1.41742         2.12387         1.35986 
        1.42355         2.11255           1.346 
         1.4297         2.08671         1.33229 
        1.43585         2.07601         1.31878 
        1.44198         2.06328          1.3055 
        1.44809         2.03755         1.29244 
        1.45423         2.02286          1.2795 
        1.46036         2.00639         1.26677 
        1.46649         1.99062         1.25421 
        1.47263         1.97406         1.24181 
        1.47877         1.95549         1.22958 
        1.48491          1.9417          1.2175 
        1.49104         1.93053          1.2056 
        1.49718         1.91741         1.19386 
        1.50333         1.89994         1.18225 
        1.50947         1.88845         1.17083 
         1.5156         1.87229         1.15957 
        1.52172         1.85825         1.14846 
        1.52787         1.84322         1.13747 
          1.534         1.83134         1.12665 
        1.54013         1.81565         1.11597 
        1.54627         1.79958         1.10541 
        1.55241         1.78604         1.09499 
        1.55855         1.77667         1.08472 
        1.56467         1.76475         1.07461 
         1.5708         1.74573          1.0646 
        1.57695         1.73787          1.0547 
        1.58308          1.7245         1.04495 
        1.58922         1.71337         1.03532 
        1.59535          1.7007         1.02581 
         1.6015         1.68873         1.01641 
        1.60764         1.67892         1.00713 
        1.61376         1.66655        0.997998 
        1.61989          1.6532        0.988968 
        1.62604         1.63989         0.98003 
        1.63218         1.63494        0.971209 
        1.63831         1.61697        0.962516 
        1.64444         1.60589        0.953928 
        1.65059         1.59872        0.945424 
        1.65673         1.58559        0.937033 
        1.66285         1.57362        0.928768 
        1.66898         1.56636          0.9206 
        1.67512         1.55079        0.912515 
        1.68127         1.54145        0.904519 
         1.6874         1.53554        0.896638 
        1.69353         1.51809        0.888856 
        1.69967         1.50883        0.881147 
        1.70581         1.50513        0.873534 
        1.71193         1.49117         0.86604 
        1.71806         1.48505        0.858618 
        1.72421         1.47343        0.851269 
        1.73035         1.46227        0.844014 
        1.73649         1.45403        0.836846 
        1.74262          1.4446        0.829767 
        1.74876         1.43632        0.822765 
        1.75489          1.4224        0.815859 
        1.76101         1.41476        0.809034 
        1.76715         1.40693        0.802278 
        1.77329         1.39891        0.795591 
        1.77943         1.38701        0.788978 
        1.78557         1.37844         0.78245 
        1.79171         1.37418        0.775994 
        1.79785         1.36189         0.76961 
        1.80399         1.35475        0.763299 
        1.81012         1.34852        0.757068 
        1.81625         1.33711        0.750909 
        1.82239          1.3289         0.74481 
        1.82853          1.3163        0.738781 
        1.83466         1.31268        0.732826 
        1.84078         1.30329        0.726942 
        1.84692         1.29805        0.721113 
        1.85306         1.28794        0.715342 
         1.8592         1.28149        0.709642 
        1.86533         1.27211        0.704009 
        1.87147         1.26653         0.69843 
        1.87761          1.2582        0.692909 
        1.88375         1.24744        0.687454 
        1.88988         1.24406        0.682065 
        1.89601         1.23468         0.67673 
        1.90215         1.22583        0.671448 
        1.90829         1.21779        0.666225 
        1.91442         1.21241        0.661057 
        1.92056         1.20571        0.655949 
         1.9267         1.19823         0.65089 
        1.93284         1.19436        0.645881 
        1.93897         1.18533        0.640935 
        1.94509         1.17771        0.636051 
        1.95123         1.16953        0.631205 
        1.95737         1.16397        0.626407 
        1.96349         1.15631        0.621671 
        1.96964         1.15138        0.616971 
        1.97578         1.14421        0.612317 
        1.98192         1.13905        0.607721 
        1.98805         1.12978        0.603171 
        1.99419         1.12655        0.598668 
        2.00033          1.1227        0.594209 
        2.00647         1.11163        0.589796 
         2.0126         1.10769        0.585436 
        2.01874         1.10034        0.581114 
        2.02488         1.09579        0.576831 
        2.03101          1.0864          0.5726 
        2.03714         1.07944        0.568415 
        2.04328         1.07781        0.564267 
        2.04941         1.06926        0.560164 
        2.05554         1.06443        0.556105 
        2.06167         1.05742         0.55208 
        2.06781         1.05291        0.548095 
        2.07396         1.04566        0.544144 
        2.08009         1.04128        0.540238 
        2.08622         1.03397        0.536375 
        2.09237          1.0319        0.532543 
        2.09851         1.02578        0.528747 
        2.10464         1.02137        0.524995 
        2.11077          1.0142        0.521284 
        2.11691         1.00763          0.5176 
        2.12305         1.00404        0.513952 
        2.12918        0.998046        0.510348 
        2.13531        0.993271        0.506778 
        2.14145         0.98711        0.503234 
         2.1476        0.981273         0.49972 
        2.15372         0.97758        0.496258 
        2.15985        0.971104        0.492824 
        2.16599        0.966333        0.489414 
        2.17213        0.961266        0.486039 
        2.17827        0.958336        0.482697 
         2.1844        0.953496         0.47939 
        2.19054         0.94977        0.476112 
        2.19666        0.943306         0.47287 
         2.2028        0.938315        0.469655 
        2.20893        0.933195        0.466468 
        2.21508        0.930794        0.463308 
        2.22122        0.921818        0.460175 
        2.22736        0.918113        0.457079 
        2.23349        0.917842        0.454011 
        2.23962        0.909911         0.45097 
        2.24577        0.905311        0.447954 
         2.2519        0.900166         0.44497 
        2.25802        0.897613        0.442019 
        2.26417        0.891015        0.439085 
        2.27031        0.888089        0.436176 
        2.27644        0.883607        0.433301 
        2.28257        0.880019        0.430453 
        2.28872        0.874799        0.427625 
        2.29486        0.871244        0.424823 
        2.30099        0.865751        0.422051 
        2.30712          0.8622        0.419304 
        2.31326        0.859509        0.416576 
         2.3194        0.855657        0.413874 
        2.32553        0.851633          0.4112 
        2.33166         0.84607        0.408552 
         2.3378        0.841553        0.405923 
        2.34394        0.836842        0.403316 
        2.35007        0.833417        0.400736 
        2.35619        0.831264        0.398182 
        2.36233        0.824959        0.395644 
        2.36848        0.822403        0.393123 
        2.37462        0.817933        0.390629 
        2.38075        0.815668         0.38816 
        2.38689         0.81093        0.385709 
        2.39303        0.807984         0.38328 
        2.39916        0.802286        0.380875 
        2.40529        0.800942        0.378491 
        2.41143        0.796462        0.376125 
        2.41757        0.792929        0.373778 
         2.4237        0.790134        0.371456 
        2.42983         0.78593        0.369154 
        2.43598         0.78255        0.366865 
        2.44211        0.779322        0.364599 
        2.44823        0.775175        0.362358 
        2.45437        0.772151        0.360129 
        2.46052          0.7701        0.357917 
        2.46665        0.765743        0.355728 
        2.47279         0.76199        0.353558 
        2.47892        0.757408        0.351405 
        2.48507        0.755102        0.349267 
         2.4912         0.75147        0.347151 
