# k  (h/Mpc)    Pcb(k)  (Mpc/h)^3    Pcb_linear(k)  (Mpc/h)^3
     0.00783031         9424.77         9547.68 
       0.013688         11819.1         11745.1 
       0.019231         11857.8         11836.8 
      0.0249154           10712         10883.6 
      0.0312784         9300.66         9367.72 
      0.0375637         7955.63         7943.37 
      0.0433917          6823.9         6905.99 
      0.0492413         6142.49         6165.98 
      0.0555754         5502.28         5625.29 
      0.0619321         5246.67         5227.49 
       0.067871         4786.29         4880.85 
      0.0738098         4409.51         4497.75 
      0.0800417         3935.32         4046.16 
      0.0862327          3525.5         3580.61 
      0.0921407         3167.31         3167.48 
      0.0982031         2803.07         2813.45 
       0.104506         2598.32         2537.82 
       0.110769         2401.64          2349.7 
       0.116806         2258.53          2225.5 
       0.122832         2165.48         2127.77 
       0.129052         2023.83         2026.43 
       0.135211         1913.29         1908.38 
       0.141259         1810.91         1772.81 
       0.147318         1685.46         1626.77 
       0.153489         1533.16         1482.55 
       0.159709         1432.86         1355.82 
       0.165845         1362.24         1256.66 
       0.171974         1280.45         1183.36 
       0.178125         1222.65         1129.86 
       0.184229         1177.13         1087.72 
        0.19034         1106.63         1047.54 
       0.196428         1084.71         1003.13 
       0.202534         1045.04         951.856 
       0.208729         987.688         894.632 
       0.214876         932.221         836.958 
       0.220989         896.636         783.429 
       0.227147         848.724         736.845 
        0.23329         813.159         699.034 
       0.239377         795.203         669.287 
       0.245482         743.892         644.842 
       0.251667         737.751         622.648 
       0.257832         711.163         600.525 
       0.263955          686.94         577.013 
       0.270079           660.9         551.754 
        0.27624         651.072         525.462 
       0.282372         623.226         499.798 
        0.28843         606.977         476.293 
       0.294538         577.059          455.28 
       0.300721         573.128         436.994 
        0.30691         547.037          421.23 
       0.313033          536.03         407.348 
       0.319153         519.419         394.257 
       0.325316         504.556          381.17 
        0.33145         489.625         367.848 
       0.337538         482.674         354.377 
       0.343633         466.981         340.909 
       0.349808         451.271          327.74 
       0.355968          446.53         315.431 
       0.362074         437.514         304.289 
       0.368217         425.449         294.141 
       0.374374         408.503         284.872 
       0.380519         404.915         276.274 
       0.386598         394.772         268.117 
       0.392688         391.631         260.109 
        0.39888         380.556         252.033 
       0.405048         372.298         244.053 
       0.411186         365.116         236.288 
       0.417313         358.298          228.82 
       0.423458         351.446         221.709 
       0.429607         344.346         215.042 
       0.435692         335.541         208.872 
       0.441815         332.904         203.026 
       0.447964         326.229         197.453 
       0.454126         315.584          192.08 
       0.460267         311.353         186.864 
       0.466387         307.741          181.78 
        0.47254           301.1         176.792 
       0.478662         300.042         171.964 
       0.484765         290.462         167.315 
       0.490885         287.036         162.848 
       0.497035         282.425         158.571 
       0.503198         276.604         154.483 
       0.509342         274.136         150.584 
       0.515458         270.643         146.858 
       0.521598         265.449         143.249 
       0.527764          261.26         139.731 
       0.533884         258.458         136.331 
           0.54         254.692         133.026 
       0.546137         253.395          129.81 
       0.552299          248.17         126.687 
       0.558452         245.812         123.677 
       0.564573         241.944         120.789 
       0.570708          237.37         117.999 
       0.576825         234.128         115.318 
       0.582926         231.315         112.735 
       0.589034         228.813          110.23 
       0.595184         226.411         107.781 
       0.601379         223.935         105.382 
       0.607522           219.7          103.07 
       0.613639         218.545         100.834 
       0.619772         213.689         98.6604 
       0.625918         212.238         96.5492 
       0.632068         209.388         94.5017 
       0.638161         208.268         92.5343 
         0.6443         204.946         90.6108 
       0.650464         202.924         88.7367 
       0.656582         201.153         86.9301 
       0.662703         199.269          85.174 
       0.668861         195.915         83.4567 
       0.675024         193.644         81.7851 
       0.681124          192.82         80.1756 
       0.687237         189.871         78.6056 
       0.693381         187.118         77.0702 
       0.699536         185.837         75.5733 
       0.705665         185.067         74.1232 
       0.711789         181.925         72.7134 
       0.717957         181.269         71.3317 
        0.72409         178.904         69.9945 
       0.730186         176.469         68.7004 
       0.736317         174.997         67.4325 
       0.742472         174.044         66.1922 
       0.748622         172.507         64.9842 
        0.75476         171.054         63.8091 
       0.760888         168.696         62.6647 
       0.767043         168.163          61.544 
       0.773185         166.328         60.4531 
       0.779291         163.496          59.395 
       0.785407         162.915          58.361 
       0.791564         161.461         57.3454 
       0.797719         159.177         56.3547 
       0.803834         158.441          55.394 
       0.809972          156.94         54.4526 
       0.816124         156.699         53.5312 
       0.822261         154.669         52.6338 
       0.828378          153.26         51.7599 
       0.834502         153.016         50.9052 
       0.840667         150.628         50.0645 
       0.846816          149.33         49.2453 
       0.852925         148.598         48.4497 
       0.859047         146.879         47.6702 
       0.865192         145.876         46.9053 
       0.871341         144.505         46.1569 
       0.877463         143.382         45.4284 
       0.883569         142.562         44.7175 
       0.889708         141.392         44.0183 
       0.895864          139.88         43.3324 
       0.902008         139.089         42.6627 
       0.908149         138.452         42.0076 
       0.914301         136.938         41.3653 
       0.920448         135.924         40.7372 
       0.926574         135.167         40.1244 
       0.932687         134.772         39.5256 
       0.938823         132.856         38.9369 
       0.944975         131.604          38.359 
       0.951105         131.099          37.795 
       0.957225         129.626         37.2434 
       0.963368         128.519          36.701 
       0.969511          128.25         36.1694 
       0.975621         127.588         35.6513 
       0.981748         126.797         35.1422 
       0.987916         125.379         34.6398 
        0.99406         124.587         34.1492 
        1.00019         124.089         33.6691 
        1.00632          123.01         33.1988 
        1.01246         122.258         32.7368 
        1.01859         121.045         32.2844 
        1.02471         120.552         31.8411 
        1.03085         119.361         31.4047 
        1.03698         118.797         30.9775 
        1.04314         117.718         30.5564 
        1.04929          117.01         30.1442 
        1.05541         116.308         29.7413 
        1.06154          115.63         29.3449 
        1.06769         115.409         28.9551 
        1.07382         114.556         28.5737 
        1.07993         113.609            28.2 
        1.08607         112.789         27.8316 
        1.09222          112.38         27.4694 
        1.09836         111.404         27.1141 
        1.10449         110.654         26.7655 
        1.11063          109.94         26.4227 
        1.11677         109.554         26.0861 
         1.1229         108.355         25.7559 
        1.12903         107.637         25.4313 
        1.13518         107.773         25.1119 
        1.14131         106.718         24.7983 
        1.14745         105.998         24.4902 
        1.15359         105.343         24.1874 
        1.15973             105         23.8896 
        1.16584         104.021         23.5981 
        1.17197         103.521         23.3111 
        1.17811         102.878         23.0281 
        1.18424         102.296         22.7506 
        1.19038         101.797         22.4769 
        1.19652         101.182         22.2078 
        1.20267         100.402         21.9431 
        1.20881         99.7904         21.6829 
        1.21495         99.1924         21.4273 
        1.22108         98.7232         21.1759 
         1.2272         97.8513         20.9291 
        1.23334         97.5087         20.6857 
        1.23949          96.663         20.4456 
        1.24562         96.3732         20.2101 
        1.25174         95.6284         19.9785 
        1.25789         95.2521           19.75 
        1.26402         94.7709         19.5254 
        1.27014         94.0643         19.3049 
        1.27628          93.713         19.0871 
        1.28244         93.0189         18.8723 
        1.28858         92.7509         18.6611 
        1.29471         91.9952         18.4537 
        1.30084         91.5371         18.2495 
        1.30697         91.0001         18.0482 
        1.31312         90.6005         17.8497 
        1.31925         89.9671         17.6547 
        1.32537         89.6525         17.4629 
        1.33151         88.7844         17.2733 
        1.33765         88.3839         17.0866 
        1.34378         87.8627          16.903 
        1.34992         87.6802          16.722 
        1.35606         87.1211         16.5433 
         1.3622         86.3287         16.3675 
        1.36833         86.1997         16.1947 
        1.37445         85.5875         16.0245 
        1.38059         85.0693         15.8563 
        1.38675         84.5145           15.69 
        1.39288         84.1008         15.5268 
        1.39901         83.9181         15.3661 
        1.40515         83.3431         15.2072 
         1.4113         82.7594         15.0507 
        1.41742         82.6878         14.8969 
        1.42355         81.9317         14.7451 
         1.4297         81.6059         14.5949 
        1.43585         80.9663         14.4469 
        1.44198         80.6856         14.3015 
        1.44809          80.245         14.1583 
        1.45423         79.7753         14.0167 
        1.46036         79.5923         13.8772 
        1.46649         79.0539         13.7395 
        1.47263         78.5635         13.6037 
        1.47877         78.3899         13.4697 
        1.48491         77.8197         13.3374 
        1.49104         77.4371         13.2071 
        1.49718         76.9565         13.0784 
        1.50333         76.5706         12.9513 
        1.50947         76.1736         12.8261 
         1.5156         75.8313         12.7028 
        1.52172         75.4055         12.5811 
        1.52787         75.2458         12.4607 
          1.534         74.6936         12.3421 
        1.54013         74.1834         12.2252 
        1.54627         73.9508         12.1095 
        1.55241         73.4779         11.9954 
        1.55855          73.189         11.8828 
        1.56467         72.6927         11.7721 
         1.5708         72.4667         11.6624 
        1.57695         72.2392          11.554 
        1.58308         71.5358         11.4472 
        1.58922         71.4657         11.3417 
        1.59535         71.2047         11.2375 
         1.6015         70.5525         11.1345 
        1.60764         70.3488         11.0329 
        1.61376         69.9484         10.9328 
        1.61989         69.5725         10.8339 
        1.62604           69.37          10.736 
        1.63218         69.0474         10.6393 
        1.63831         68.5331         10.5441 
        1.64444          68.245           10.45 
        1.65059         67.7992         10.3569 
        1.65673         67.5733          10.265 
        1.66285          67.198         10.1744 
        1.66898         66.8803         10.0849 
        1.67512         66.4487         9.99636 
        1.68127         66.1616         9.90877 
         1.6874         65.9067         9.82244 
        1.69353         65.5965         9.73718 
        1.69967         65.1566         9.65274 
        1.70581         65.0415         9.56934 
        1.71193         64.8223         9.48724 
        1.71806         64.1795         9.40594 
        1.72421         64.0367         9.32543 
        1.73035         63.6986         9.24596 
        1.73649         63.3128         9.16743 
        1.74262         63.1423         9.08988 
        1.74876         62.7969         9.01318 
        1.75489         62.4118         8.93752 
        1.76101         62.2241         8.86276 
        1.76715         61.7946         8.78875 
        1.77329          61.595         8.71549 
        1.77943         61.1417         8.64304 
        1.78557         61.0202         8.57153 
        1.79171         60.6526         8.50081 
        1.79785         60.4272         8.43087 
        1.80399         60.1616         8.36174 
        1.81012         59.9315         8.29348 
        1.81625         59.3907         8.22601 
        1.82239         59.1992          8.1592 
        1.82853         58.8615         8.09315 
        1.83466         58.6662         8.02791 
        1.84078         58.3098         7.96345 
        1.84692          57.963          7.8996 
        1.85306         57.7738         7.83638 
         1.8592         57.3639         7.77394 
        1.86533         57.2336         7.71223 
        1.87147         56.8988         7.65111 
        1.87761         56.6817         7.59063 
        1.88375         56.4035         7.53088 
        1.88988         56.2914         7.47183 
        1.89601         55.8675         7.41339 
        1.90215         55.6184         7.35553 
        1.90829         55.4693         7.29832 
        1.91442         55.1129          7.2417 
        1.92056         54.7378         7.18575 
         1.9267         54.5494         7.13032 
        1.93284         54.2923         7.07545 
        1.93897         53.9977         7.02127 
        1.94509          53.681         6.96776 
        1.95123          53.559         6.91468 
        1.95737         53.3309         6.86212 
        1.96349         52.9643         6.81024 
        1.96964         52.9104         6.75875 
        1.97578         52.5402         6.70777 
        1.98192         52.3063         6.65741 
        1.98805         52.1766         6.60758 
        1.99419         51.7782         6.55824 
        2.00033          51.556          6.5094 
        2.00647          51.348         6.46106 
         2.0126         50.9988         6.41329 
        2.01874         50.8554         6.36594 
        2.02488          50.693         6.31903 
        2.03101         50.3705         6.27267 
        2.03714          50.121         6.22683 
        2.04328         49.9061         6.18139 
        2.04941         49.5997         6.13644 
        2.05554         49.3053         6.09197 
        2.06167         49.2249         6.04789 
        2.06781         49.0175         6.00423 
        2.07396         48.7157         5.96094 
        2.08009         48.5578         5.91816 
        2.08622         48.2375         5.87584 
        2.09237          48.028         5.83386 
        2.09851         47.8682         5.79228 
        2.10464         47.6052         5.75117 
        2.11077         47.4164         5.71052 
        2.11691         47.1478         5.67016 
        2.12305         46.9234          5.6302 
        2.12918         46.6636         5.59072 
        2.13531         46.4498         5.55161 
        2.14145          46.251         5.51279 
         2.1476         46.0933          5.4743 
        2.15372         45.8021         5.43636 
        2.15985          45.598         5.39875 
        2.16599         45.4737         5.36139 
        2.17213         45.2942         5.32442 
        2.17827         45.0276         5.28781 
         2.1844         44.7865         5.25158 
        2.19054         44.5345         5.21567 
        2.19666           44.37         5.18015 
         2.2028          44.192         5.14494 
        2.20893         44.0517         5.11003 
        2.21508         43.8662          5.0754 
        2.22122         43.5824         5.04109 
        2.22736         43.4195         5.00717 
        2.23349         43.2776         4.97356 
        2.23962         42.8939         4.94025 
        2.24577         42.7417         4.90721 
         2.2519         42.5239         4.87452 
        2.25802         42.4768         4.84219 
        2.26417         42.2143         4.81005 
        2.27031         42.0689         4.77818 
        2.27644         41.7594         4.74669 
        2.28257         41.6352         4.71549 
        2.28872         41.3428         4.68451 
        2.29486         41.2484         4.65381 
        2.30099         41.0862         4.62345 
        2.30712         40.8893         4.59335 
        2.31326         40.6813         4.56347 
         2.3194         40.4586         4.53387 
        2.32553         40.3222         4.50458 
        2.33166         40.1577         4.47557 
         2.3378         39.8577         4.44677 
        2.34394         39.6503         4.41821 
        2.35007         39.5098         4.38995 
        2.35619         39.4161         4.36197 
        2.36233         39.2875         4.33417 
        2.36848         38.9646         4.30655 
        2.37462         38.8749         4.27923 
        2.38075         38.6937         4.25218 
        2.38689         38.6126         4.22533 
        2.39303         38.3652         4.19873 
        2.39916         38.1495         4.17238 
        2.40529         37.9305         4.14625 
        2.41143         37.8625         4.12034 
        2.41757         37.7103         4.09463 
         2.4237         37.5461         4.06919 
        2.42983          37.356         4.04397 
        2.43598         37.1206          4.0189 
        2.44211         36.9748         3.99408 
        2.44823         36.8337         3.96952 
        2.45437         36.7176         3.94511 
        2.46052         36.4246         3.92088 
        2.46665         36.3478          3.8969 
        2.47279         36.1949         3.87312 
        2.47892         35.9855         3.84953 
        2.48507         35.8476         3.82612 
         2.4912         35.7083         3.80294 
