# k  (h/Mpc)    Pcb(k)  (Mpc/h)^3    Pcb_linear(k)  (Mpc/h)^3
     0.00783031         17100.4         17356.1 
       0.013688         21554.5         21346.3 
       0.019231         21545.4         21510.9 
      0.0249154         19327.3         19777.5 
      0.0312784         16802.8         17022.2 
      0.0375637         14415.5         14433.7 
      0.0433917         12296.5         12548.5 
      0.0492413         11102.4         11203.8 
      0.0555754         9866.58         10221.2 
      0.0619321         9483.35         9498.34 
       0.067871         8578.53         8868.46 
      0.0738098         7910.05         8172.34 
      0.0800417         7039.52         7351.78 
      0.0862327         6336.58         6505.87 
      0.0921407         5741.73          5755.2 
      0.0982031         5092.92         5111.94 
       0.104506            4762         4611.11 
       0.110769         4403.81         4269.31 
       0.116806         4157.34         4043.64 
       0.122832         3968.46         3866.07 
       0.129052         3688.53         3681.94 
       0.135211         3492.35         3467.43 
       0.141259         3330.68         3221.12 
       0.147318         3121.33         2955.76 
       0.153489         2846.05         2693.71 
       0.159709         2681.28         2463.46 
       0.165845         2576.82         2283.28 
       0.171974         2436.73         2150.11 
       0.178125         2321.64         2052.89 
       0.184229         2222.46         1976.34 
        0.19034         2108.98         1903.32 
       0.196428         2064.31         1822.64 
       0.202534         1982.31         1729.47 
       0.208729         1889.51          1625.5 
       0.214876          1810.8          1520.7 
       0.220989         1745.13         1423.44 
       0.227147         1672.02          1338.8 
        0.23329         1605.98          1270.1 
       0.239377         1581.42         1216.06 
       0.245482         1484.88         1171.64 
       0.251667         1477.54         1131.31 
       0.257832         1418.88         1091.12 
       0.263955            1372          1048.4 
       0.270079          1324.7          1002.5 
        0.27624         1308.79         954.733 
       0.282372         1254.46         908.102 
        0.28843         1247.05         865.396 
       0.294538         1185.18         827.216 
       0.300721         1177.81         793.991 
        0.30691         1132.95         765.349 
       0.313033         1110.44         740.126 
       0.319153         1092.09         716.341 
       0.325316         1056.62         692.563 
        0.33145         1033.11         668.357 
       0.337538         1014.12         643.882 
       0.343633         992.479         619.411 
       0.349808         958.966         595.482 
       0.355968         952.083         573.119 
       0.362074          943.16         552.873 
       0.368217         913.226         534.436 
       0.374374         879.335         517.596 
       0.380519         881.079         501.972 
       0.386598         855.687         487.151 
       0.392688         852.597         472.602 
        0.39888         827.957         457.928 
       0.405048          817.82         443.429 
       0.411186         806.461         429.321 
       0.417313         789.555         415.751 
       0.423458          775.35         402.831 
       0.429607         766.169         390.718 
       0.435692         749.771         379.507 
       0.441815         743.233         368.885 
       0.447964          728.18          358.76 
       0.454126          721.72         348.997 
       0.460267         703.762          339.52 
       0.466387         695.424         330.283 
        0.47254          691.12          321.22 
       0.478662         684.024         312.448 
       0.484765         663.648         304.001 
       0.490885         659.486         295.885 
       0.497035         646.082         288.114 
       0.503198         641.927         280.686 
       0.509342         635.553         273.602 
       0.515458         631.703         266.833 
       0.521598         615.651         260.274 
       0.527764         605.269         253.882 
       0.533884         602.957         247.704 
           0.54         596.654         241.699 
       0.546137          591.74         235.856 
       0.552299         583.511         230.182 
       0.558452         579.236         224.713 
       0.564573         571.997         219.466 
       0.570708         565.269         214.396 
       0.576825         550.459         209.525 
       0.582926         552.481         204.833 
       0.589034          546.98         200.282 
       0.595184         542.173         195.831 
       0.601379          534.14         191.472 
       0.607522         526.722         187.271 
       0.613639         526.432         183.209 
       0.619772         515.699          179.26 
       0.625918         512.832         175.424 
       0.632068         505.713         171.704 
       0.638161         503.688         168.129 
         0.6443         495.328         164.634 
       0.650464         493.147         161.229 
       0.656582         488.731         157.946 
       0.662703         487.284         154.756 
       0.668861          479.23         151.635 
       0.675024          475.35         148.598 
       0.681124         471.804         145.674 
       0.687237          467.99         142.821 
       0.693381         461.639         140.032 
       0.699536         454.799         137.312 
       0.705665         453.936         134.677 
       0.711789         451.752         132.116 
       0.717957         447.558         129.605 
        0.72409         445.204         127.176 
       0.730186         438.648         124.824 
       0.736317          435.84          122.52 
       0.742472         433.373         120.267 
       0.748622         428.699         118.072 
        0.75476          422.78         115.937 
       0.760888          418.93         113.858 
       0.767043         419.257         111.821 
       0.773185         414.994         109.839 
       0.779291         410.118         107.917 
       0.785407         407.889         106.038 
       0.791564           403.2         104.193 
       0.797719         401.252         102.393 
       0.803834         396.653         100.647 
       0.809972         395.978         98.9368 
       0.816124         394.655         97.2627 
       0.822261         389.393         95.6322 
       0.828378         387.122         94.0443 
       0.834502         382.864         92.4915 
       0.840667         380.167          90.964 
       0.846816         378.555         89.4755 
       0.852925         375.894           88.03 
       0.859047          373.82         86.6136 
       0.865192          369.23          85.224 
       0.871341         366.272         83.8642 
       0.877463          366.08         82.5405 
       0.883569         362.662         81.2489 
       0.889708         359.889         79.9785 
       0.895864         358.604         78.7322 
       0.902008         355.302         77.5154 
       0.908149         351.342         76.3251 
       0.914301         349.125         75.1581 
       0.920448         347.359         74.0168 
       0.926574         342.424         72.9034 
       0.932687         342.411         71.8154 
       0.938823         338.933         70.7459 
       0.944975         338.892         69.6959 
       0.951105         335.215         68.6711 
       0.957225          333.07         67.6688 
       0.963368         329.022         66.6833 
       0.969511         328.228         65.7175 
       0.975621         326.119         64.7762 
       0.981748         324.414          63.851 
       0.987916         322.654         62.9382 
        0.99406         317.751         62.0469 
        1.00019         316.539         61.1746 
        1.00632         315.275           60.32 
        1.01246         312.586         59.4806 
        1.01859         313.031         58.6586 
        1.02471         308.082         57.8533 
        1.03085         306.846         57.0604 
        1.03698         305.543         56.2841 
        1.04314          302.85         55.5191 
        1.04929         300.184         54.7701 
        1.05541          300.99         54.0381 
        1.06154         295.805         53.3177 
        1.06769          295.24         52.6095 
        1.07382         292.942         51.9165 
        1.07993         291.388         51.2376 
        1.08607         290.598         50.5682 
        1.09222         287.491         49.9101 
        1.09836         285.683         49.2645 
        1.10449         283.337         48.6312 
        1.11063          280.61         48.0084 
        1.11677         280.667         47.3967 
         1.1229         278.357         46.7969 
        1.12903         276.791         46.2069 
        1.13518         274.391         45.6268 
        1.14131         272.825         45.0569 
        1.14745         271.982         44.4972 
        1.15359         269.877         43.9469 
        1.15973         267.988         43.4058 
        1.16584         266.095         42.8762 
        1.17197         266.183         42.3548 
        1.17811           262.7         41.8405 
        1.18424         261.068         41.3363 
        1.19038         260.433          40.839 
        1.19652         258.127         40.3501 
        1.20267         257.593         39.8693 
        1.20881         255.455         39.3964 
        1.21495         253.672          38.932 
        1.22108         252.214         38.4752 
         1.2272          250.74         38.0268 
        1.23334         249.651         37.5846 
        1.23949         247.297         37.1484 
        1.24562         246.553         36.7204 
        1.25174         245.068         36.2997 
        1.25789         243.153         35.8844 
        1.26402          241.06         35.4764 
        1.27014         239.839         35.0757 
        1.27628          238.44         34.6801 
        1.28244         238.286         34.2898 
        1.28858         235.846         33.9061 
        1.29471         234.565         33.5291 
        1.30084         232.822         33.1582 
        1.30697         231.699         32.7924 
        1.31312         229.496         32.4317 
        1.31925         228.449         32.0775 
        1.32537         227.936          31.729 
        1.33151         225.768         31.3844 
        1.33765         224.074         31.0452 
        1.34378         223.486         30.7116 
        1.34992         222.229         30.3828 
        1.35606         221.851         30.0581 
         1.3622         219.499         29.7387 
        1.36833          217.86         29.4247 
        1.37445         216.975         29.1155 
        1.38059         215.187         28.8098 
        1.38675         214.422         28.5077 
        1.39288         213.271         28.2112 
        1.39901         212.264         27.9191 
        1.40515         210.614         27.6305 
         1.4113         209.564         27.3461 
        1.41742         207.964         27.0668 
        1.42355         207.061         26.7909 
         1.4297         205.266          26.518 
        1.43585         204.392          26.249 
        1.44198         203.632         25.9848 
        1.44809         202.254         25.7248 
        1.45423         201.307         25.4673 
        1.46036          199.94         25.2139 
        1.46649         198.632         24.9638 
        1.47263         197.575          24.717 
        1.47877         196.163         24.4736 
        1.48491         194.445         24.2331 
        1.49104         194.098         23.9964 
        1.49718         192.376         23.7626 
        1.50333         191.771         23.5317 
        1.50947         190.454         23.3042 
         1.5156         189.035         23.0801 
        1.52172         188.377          22.859 
        1.52787         186.624         22.6404 
          1.534         186.373         22.4248 
        1.54013          184.87         22.2123 
        1.54627         183.782         22.0022 
        1.55241         182.699         21.7948 
        1.55855         181.465         21.5903 
        1.56467         180.392         21.3891 
         1.5708         179.639         21.1898 
        1.57695          178.82         20.9928 
        1.58308         177.623         20.7988 
        1.58922         176.435          20.607 
        1.59535         175.054         20.4178 
         1.6015         174.444         20.2307 
        1.60764         173.401          20.046 
        1.61376         172.518         19.8642 
        1.61989         171.615         19.6845 
        1.62604          170.35         19.5066 
        1.63218         169.658          19.331 
        1.63831         168.323          19.158 
        1.64444         167.602          18.987 
        1.65059         166.677         18.8178 
        1.65673         165.528         18.6507 
        1.66285         164.476         18.4862 
        1.66898         163.645         18.3237 
        1.67512         163.122         18.1627 
        1.68127         161.574         18.0036 
         1.6874         160.865         17.8467 
        1.69353         159.896         17.6918 
        1.69967         158.734         17.5384 
        1.70581         158.109         17.3869 
        1.71193         156.994         17.2377 
        1.71806         156.381           17.09 
        1.72421         155.409         16.9437 
        1.73035         154.784         16.7993 
        1.73649         153.816         16.6566 
        1.74262         152.854         16.5157 
        1.74876         151.857         16.3763 
        1.75489         151.166         16.2389 
        1.76101         149.803          16.103 
        1.76715         149.653         15.9686 
        1.77329         148.607         15.8355 
        1.77943         147.939         15.7038 
        1.78557         147.117         15.5739 
        1.79171         146.299         15.4454 
        1.79785         145.301         15.3183 
        1.80399         144.529         15.1927 
        1.81012         143.713         15.0687 
        1.81625         143.206         14.9461 
        1.82239         142.154         14.8247 
        1.82853         141.535         14.7047 
        1.83466         140.613         14.5862 
        1.84078         139.917         14.4691 
        1.84692         138.698         14.3531 
        1.85306         138.541         14.2382 
         1.8592         137.534         14.1247 
        1.86533         136.926         14.0126 
        1.87147         135.796         13.9016 
        1.87761         134.966         13.7917 
        1.88375         134.281         13.6831 
        1.88988          133.32         13.5758 
        1.89601         133.033         13.4696 
        1.90215         132.118         13.3645 
        1.90829         131.356         13.2606 
        1.91442         130.826         13.1577 
        1.92056         129.943          13.056 
         1.9267         129.323         12.9553 
        1.93284         128.366         12.8556 
        1.93897         127.886         12.7572 
        1.94509         127.297           12.66 
        1.95123         126.658         12.5635 
        1.95737         125.894          12.468 
        1.96349         125.211         12.3738 
        1.96964         124.228         12.2802 
        1.97578         123.525         12.1876 
        1.98192         123.079         12.0961 
        1.98805         122.412         12.0055 
        1.99419         121.669         11.9159 
        2.00033         121.019         11.8271 
        2.00647         120.453         11.7393 
         2.0126          119.51         11.6525 
        2.01874          118.93         11.5665 
        2.02488         118.669         11.4813 
        2.03101         117.502          11.397 
        2.03714         117.168         11.3137 
        2.04328         116.295         11.2312 
        2.04941         115.824         11.1495 
        2.05554         115.049         11.0687 
        2.06167         114.691         10.9886 
        2.06781         113.803         10.9093 
        2.07396          113.37         10.8306 
        2.08009         112.677         10.7529 
        2.08622         111.878          10.676 
        2.09237         111.522         10.5997 
        2.09851         110.834         10.5242 
        2.10464         110.422         10.4495 
        2.11077         109.737         10.3756 
        2.11691         109.247         10.3023 
        2.12305         108.584         10.2297 
        2.12918         107.825          10.158 
        2.13531          107.27         10.0869 
        2.14145         106.664         10.0164 
         2.1476         105.927         9.94643 
        2.15372         105.681         9.87751 
        2.15985         105.065         9.80917 
        2.16599         104.322         9.74129 
        2.17213         103.901         9.67412 
        2.17827         103.305          9.6076 
         2.1844         102.568         9.54177 
        2.19054         102.262         9.47653 
        2.19666         101.725           9.412 
         2.2028         101.046         9.34801 
        2.20893         100.712         9.28458 
        2.21508         100.042         9.22167 
        2.22122         99.5248         9.15933 
        2.22736         98.9782         9.09769 
        2.23349         98.5559         9.03663 
        2.23962           98.06          8.9761 
        2.24577         97.4129         8.91608 
         2.2519         97.1215         8.85669 
        2.25802         96.2387         8.79793 
        2.26417         95.9851         8.73955 
        2.27031         95.3608         8.68164 
        2.27644          94.858         8.62442 
        2.28257         94.2984         8.56773 
        2.28872         94.0075         8.51143 
        2.29486         93.3056         8.45566 
        2.30099         92.8034          8.4005 
        2.30712         92.3817         8.34581 
        2.31326         91.8264         8.29152 
         2.3194         91.3591         8.23774 
        2.32553         90.9657         8.18452 
        2.33166         90.4659         8.13181 
         2.3378         90.0218         8.07948 
        2.34394         89.5634          8.0276 
        2.35007         89.0676         7.97625 
        2.35619         88.6663         7.92541 
        2.36233         88.1245         7.87489 
        2.36848         87.5954         7.82471 
        2.37462         87.2555         7.77508 
        2.38075         86.6711         7.72592 
        2.38689          86.243         7.67715 
        2.39303         85.7086          7.6288 
        2.39916         85.4197         7.58093 
        2.40529         85.1433         7.53347 
        2.41143          84.446         7.48638 
        2.41757         84.1003         7.43967 
         2.4237         83.6601         7.39345 
        2.42983         83.1618         7.34762 
        2.43598         82.6621         7.30206 
        2.44211         82.5493         7.25697 
        2.44823          81.971         7.21236 
        2.45437         81.3184           7.168 
        2.46052           80.95         7.12398 
        2.46665         80.7393          7.0804 
        2.47279         80.1522         7.03721 
        2.47892         79.8113         6.99434 
        2.48507         79.4218          6.9518 
         2.4912         79.0672         6.90969 
