# k  (h/Mpc)    Pcb(k)  (Mpc/h)^3    Pcb_linear(k)  (Mpc/h)^3
     0.00783031         3749.51         3792.63 
       0.013688          4375.3         4366.08 
       0.019231         4189.47         4182.14 
      0.0249154         3646.11         3675.34 
      0.0312784         3024.29         3027.27 
      0.0375637         2488.76         2477.36 
      0.0433917         2096.98         2101.89 
      0.0492413         1850.11         1846.42 
      0.0555754         1652.72         1666.17 
      0.0619321         1546.89         1535.21 
       0.067871         1411.83          1420.2 
      0.0738098         1285.32         1292.97 
      0.0800417         1134.47         1145.25 
      0.0862327         995.327         996.966 
      0.0921407          874.53         869.517 
      0.0982031         765.568         764.059 
       0.104506         697.525             685 
       0.110769         643.211         632.939 
       0.116806         604.186         599.095 
       0.122832         579.205         571.708 
       0.129052         543.118          541.87 
       0.135211         508.501         506.387 
       0.141259         473.145          466.04 
       0.147318         433.815         423.633 
       0.153489         391.537         383.036 
       0.159709         359.536         348.526 
       0.165845         337.001         322.352 
       0.171974         314.661         303.443 
       0.178125         301.298         289.643 
       0.184229         289.993         278.401 
        0.19034         273.449         267.183 
       0.196428         264.538         254.558 
       0.202534         253.073         240.144 
       0.208729         236.197         224.468 
       0.214876         219.976         209.131 
       0.220989         208.796         195.288 
       0.227147         195.457         183.502 
        0.23329         186.066         174.031 
       0.239377         179.861         166.517 
       0.245482         169.751         160.174 
       0.251667         166.357         154.213 
       0.257832         160.252         148.166 
       0.263955         153.664         141.798 
       0.270079         146.866         135.108 
        0.27624          142.23         128.336 
       0.282372         135.967         121.891 
        0.28843         129.545         116.087 
       0.294538         123.825         110.941 
       0.300721         120.917         106.425 
        0.30691         115.382         102.461 
       0.313033         111.925         98.8774 
       0.319153           106.8         95.4467 
       0.325316           104.8         92.0064 
        0.33145         100.596         88.5594 
       0.337538         98.0512         85.1394 
       0.343633         94.2469         81.7979 
       0.349808         91.1777         78.5799 
       0.355968          88.627         75.5985 
       0.362074         85.6652         72.8954 
       0.368217         82.9995         70.4053 
       0.374374          80.455         68.0988 
       0.380519         78.4815         65.9246 
       0.386598          76.272         63.8512 
       0.392688         74.6516         61.8236 
        0.39888         72.4073         59.7977 
       0.405048         70.4929           57.83 
       0.411186         68.7254         55.9389 
       0.417313         66.5938         54.1351 
       0.423458         64.8512         52.4264 
       0.429607         63.1303          50.817 
       0.435692          60.984         49.3147 
       0.441815         60.1311         47.8814 
       0.447964         59.0309         46.5052 
       0.454126         56.4562         45.1736 
       0.460267          55.632         43.8875 
       0.466387         54.1764         42.6442 
        0.47254          53.195         41.4324 
       0.478662         52.3458         40.2687 
       0.484765         50.6871         39.1553 
       0.490885         49.5919         38.0869 
       0.497035         48.9412         37.0597 
       0.503198         47.5361         36.0746 
       0.509342         46.3244         35.1327 
       0.515458         45.4374         34.2301 
       0.521598         44.6756         33.3543 
       0.527764         43.7863         32.5023 
       0.533884         43.0551         31.6835 
           0.54         42.0394          30.892 
       0.546137          41.468         30.1241 
       0.552299         40.7887         29.3795 
       0.558452         39.5664         28.6625 
       0.564573         38.8847         27.9749 
       0.570708         38.2977         27.3103 
       0.576825         37.4865         26.6704 
       0.582926         36.6756         26.0529 
       0.589034         35.8162         25.4538 
       0.595184         35.3532          24.869 
       0.601379         34.7142         24.2982 
       0.607522          33.956         23.7496 
       0.613639         33.7013         23.2203 
       0.619772         32.8492         22.7058 
       0.625918         32.6092         22.2061 
       0.632068         32.1046         21.7216 
       0.638161          31.487         21.2562 
         0.6443         30.8982         20.8015 
       0.650464         30.3725         20.3587 
       0.656582         30.1284         19.9321 
       0.662703         29.5174         19.5176 
       0.668861         29.0113         19.1124 
       0.675024         28.5387         18.7182 
       0.681124         28.0329         18.3391 
       0.687237         27.5398         17.9698 
       0.693381         27.3248         17.6089 
       0.699536         26.6567         17.2576 
       0.705665         26.6597         16.9175 
       0.711789         25.9832          16.587 
       0.717957         25.6458         16.2632 
        0.72409          25.297         15.9499 
       0.730186          24.903         15.6468 
       0.736317          24.672         15.3499 
       0.742472         24.2288         15.0596 
       0.748622         24.0047         14.7771 
        0.75476         23.6157         14.5025 
       0.760888         23.2291         14.2353 
       0.767043         22.9456         13.9739 
       0.773185         22.5805         13.7196 
       0.779291         22.4662         13.4732 
       0.785407         22.2227         13.2325 
       0.791564         21.8221         12.9962 
       0.797719         21.3206         12.7659 
       0.803834         21.2967         12.5426 
       0.809972         21.0588         12.3239 
       0.816124          20.624           12.11 
       0.822261         20.4191         11.9017 
       0.828378         20.2559          11.699 
       0.834502         20.0342         11.5009 
       0.840667         19.7657         11.3061 
       0.846816         19.4139         11.1163 
       0.852925         19.2329         10.9322 
       0.859047         19.0158         10.7518 
       0.865192         18.8165         10.5749 
       0.871341         18.6962         10.4019 
       0.877463         18.3416         10.2336 
       0.883569         18.1377         10.0695 
       0.889708         17.8965         9.90806 
       0.895864         17.7255         9.74981 
       0.902008         17.5902         9.59536 
       0.908149         17.3969         9.44436 
       0.914301         17.3246         9.29638 
       0.920448         16.9953         9.15171 
       0.926574          16.839         9.01063 
       0.932687         16.6475         8.87284 
       0.938823         16.4279         8.73745 
       0.944975         16.2825         8.60458 
       0.951105         16.1182         8.47496 
       0.957225          15.944         8.34824 
       0.963368         15.8564         8.22369 
       0.969511          15.688         8.10169 
       0.975621         15.5526         7.98284 
       0.981748         15.3163         7.86607 
       0.987916         15.2348         7.75091 
        0.99406         15.0422          7.6385 
        1.00019         14.8499         7.52856 
        1.00632         14.7734         7.42088 
        1.01246         14.6701         7.31517 
        1.01859         14.4167         7.21169 
        1.02471          14.378         7.11035 
        1.03085         14.2343         7.01061 
        1.03698         13.9979         6.91301 
        1.04314         13.9231         6.81686 
        1.04929         13.7625         6.72277 
        1.05541         13.6141         6.63084 
        1.06154         13.5393          6.5404 
        1.06769         13.4621         6.45152 
        1.07382         13.2894         6.36459 
        1.07993         13.1973         6.27947 
        1.08607         13.0466         6.19555 
        1.09222         12.9714         6.11309 
        1.09836         12.8095         6.03223 
        1.10449         12.7221         5.95293 
        1.11063         12.5677         5.87497 
        1.11677         12.5263         5.79843 
         1.1229         12.4482         5.72339 
        1.12903         12.2802         5.64961 
        1.13518         12.1427         5.57708 
        1.14131         12.1109         5.50586 
        1.14745         11.9981         5.43592 
        1.15359         11.9227         5.36719 
        1.15973         11.7915         5.29962 
        1.16584         11.6372         5.23351 
        1.17197         11.6122         5.16844 
        1.17811         11.4978         5.10429 
        1.18424         11.4026          5.0414 
        1.19038         11.3552          4.9794 
        1.19652         11.2456         4.91847 
        1.20267         11.1493         4.85856 
        1.20881         11.0853         4.79966 
        1.21495         11.0131         4.74183 
        1.22108         10.8883         4.68496 
         1.2272         10.7989         4.62917 
        1.23334         10.7304         4.57416 
        1.23949         10.6226         4.51991 
        1.24562         10.5808         4.46669 
        1.25174         10.5068         4.41442 
        1.25789          10.414         4.36282 
        1.26402         10.3759         4.31215 
        1.27014         10.2682          4.2624 
        1.27628         10.1571         4.21329 
        1.28244         10.1017         4.16486 
        1.28858         10.0809         4.11726 
        1.29471         9.97337         4.07051 
        1.30084         9.88076         4.02453 
        1.30697         9.83755         3.97919 
        1.31312         9.72307         3.93449 
        1.31925         9.65223         3.89062 
        1.32537         9.62166         3.84745 
        1.33151         9.55116         3.80479 
        1.33765         9.48536         3.76281 
        1.34378         9.41897         3.72154 
        1.34992         9.32228         3.68086 
        1.35606          9.3013          3.6407 
         1.3622         9.24231         3.60121 
        1.36833         9.14096          3.5624 
        1.37445          9.1119         3.52419 
        1.38059          9.0483         3.48642 
        1.38675         8.94961         3.44911 
        1.39288         8.93668         3.41249 
        1.39901         8.84947         3.37642 
        1.40515         8.81112          3.3408 
         1.4113         8.74378          3.3057 
        1.41742         8.67885         3.27123 
        1.42355          8.6223          3.2372 
         1.4297         8.59334         3.20354 
        1.43585         8.54418         3.17038 
        1.44198         8.48648         3.13782 
        1.44809         8.42676         3.10577 
        1.45423         8.36907         3.07405 
        1.46036         8.31086         3.04284 
        1.46649         8.28079         3.01204 
        1.47263         8.20019         2.98165 
        1.47877         8.15438         2.95169 
        1.48491         8.12502          2.9221 
        1.49104          8.0731         2.89297 
        1.49718         8.01831         2.86422 
        1.50333          7.9765         2.83582 
        1.50947         7.91663         2.80786 
         1.5156         7.87183         2.78032 
        1.52172         7.84235         2.75315 
        1.52787         7.78382         2.72629 
          1.534         7.72609         2.69981 
        1.54013         7.67933         2.67372 
        1.54627          7.6265         2.64793 
        1.55241         7.59566         2.62247 
        1.55855         7.55544         2.59739 
        1.56467         7.50183          2.5727 
         1.5708         7.49332         2.54826 
        1.57695         7.42697          2.5241 
        1.58308         7.37607         2.50031 
        1.58922         7.35175         2.47681 
        1.59535         7.31162         2.45363 
         1.6015            7.25          2.4307 
        1.60764         7.20681         2.40808 
        1.61376         7.18811         2.38581 
        1.61989         7.13443          2.3638 
        1.62604         7.11482         2.34202 
        1.63218         7.07627         2.32053 
        1.63831         7.03316         2.29936 
        1.64444         6.98287         2.27844 
        1.65059         6.93312         2.25773 
        1.65673         6.93274         2.23731 
        1.66285         6.85731         2.21719 
        1.66898         6.83677         2.19731 
        1.67512          6.8068         2.17764 
        1.68127         6.76678         2.15819 
         1.6874         6.73284         2.13902 
        1.69353          6.6754          2.1201 
        1.69967         6.66155         2.10136 
        1.70581         6.63664         2.08286 
        1.71193         6.58161         2.06464 
        1.71806         6.55906         2.04661 
        1.72421         6.52089         2.02876 
        1.73035          6.4913         2.01114 
        1.73649         6.46192         1.99373 
        1.74262         6.42652         1.97654 
        1.74876         6.40733         1.95954 
        1.75489          6.3647         1.94278 
        1.76101         6.32046         1.92622 
        1.76715          6.3073         1.90983 
        1.77329         6.25378         1.89361 
        1.77943         6.22585         1.87758 
        1.78557         6.21618         1.86175 
        1.79171         6.18331          1.8461 
        1.79785         6.13574         1.83063 
        1.80399         6.11353         1.81533 
        1.81012         6.09176         1.80024 
        1.81625         6.05412         1.78532 
        1.82239         6.02613         1.77055 
        1.82853         5.98994         1.75595 
        1.83466         5.96223         1.74153 
        1.84078         5.93414         1.72729 
        1.84692          5.9191         1.71318 
        1.85306          5.8806         1.69922 
         1.8592         5.84955         1.68543 
        1.86533         5.83135          1.6718 
        1.87147         5.80168         1.65831 
        1.87761         5.77874         1.64496 
        1.88375         5.73001         1.63177 
        1.88988         5.73168         1.61874 
        1.89601         5.69828         1.60584 
        1.90215         5.66587         1.59308 
        1.90829         5.63729         1.58046 
        1.91442         5.61143         1.56797 
        1.92056         5.59628         1.55563 
         1.9267          5.5637         1.54342 
        1.93284         5.53213         1.53132 
        1.93897         5.50631         1.51938 
        1.94509          5.4898         1.50759 
        1.95123         5.46793         1.49589 
        1.95737         5.43859         1.48432 
        1.96349         5.42006         1.47289 
        1.96964         5.38439         1.46155 
        1.97578          5.3606         1.45032 
        1.98192         5.34447         1.43924 
        1.98805         5.32456         1.42827 
        1.99419         5.29146         1.41741 
        2.00033         5.28072         1.40666 
        2.00647         5.25046         1.39603 
         2.0126         5.23022         1.38552 
        2.01874          5.2091         1.37511 
        2.02488         5.18098         1.36479 
        2.03101         5.16281          1.3546 
        2.03714         5.12919         1.34452 
        2.04328         5.11886         1.33453 
        2.04941          5.0828         1.32466 
        2.05554          5.0777         1.31488 
        2.06167          5.0427          1.3052 
        2.06781         5.03385         1.29561 
        2.07396         5.01803          1.2861 
        2.08009         4.99398         1.27671 
        2.08622         4.95968         1.26742 
        2.09237         4.94947          1.2582 
        2.09851         4.93449         1.24907 
        2.10464         4.90632         1.24005 
        2.11077         4.87612         1.23113 
        2.11691         4.85784         1.22228 
        2.12305          4.8443         1.21351 
        2.12918         4.82975         1.20485 
        2.13531         4.80773         1.19627 
        2.14145         4.78589         1.18776 
         2.1476         4.77046         1.17932 
        2.15372         4.74977           1.171 
        2.15985          4.7391         1.16276 
        2.16599         4.71124         1.15457 
        2.17213         4.69292         1.14647 
        2.17827         4.68062         1.13845 
         2.1844         4.65949         1.13051 
        2.19054         4.62564         1.12265 
        2.19666         4.61866         1.11487 
         2.2028         4.60107         1.10715 
        2.20893         4.58546         1.09951 
        2.21508         4.56345         1.09193 
        2.22122         4.54279         1.08442 
        2.22736         4.52942         1.07699 
        2.23349         4.51263         1.06964 
        2.23962         4.50005         1.06235 
        2.24577         4.47849         1.05512 
         2.2519         4.46673         1.04797 
        2.25802         4.44048          1.0409 
        2.26417          4.4286         1.03387 
        2.27031         4.40483          1.0269 
        2.27644         4.39006         1.02002 
        2.28257         4.36878          1.0132 
        2.28872         4.36325         1.00643 
        2.29486         4.34607        0.999719 
        2.30099         4.33048        0.993085 
        2.30712         4.30983        0.986509 
        2.31326         4.28825         0.97998 
         2.3194         4.27604        0.973515 
        2.32553         4.26626        0.967118 
        2.33166         4.24943        0.960782 
         2.3378         4.22956        0.954493 
        2.34394         4.21632        0.948259 
        2.35007         4.19801        0.942089 
        2.35619         4.18198        0.935982 
        2.36233         4.16768        0.929914 
        2.36848          4.1555        0.923887 
        2.37462         4.14242        0.917927 
        2.38075         4.12695        0.912025 
        2.38689         4.11278        0.906169 
        2.39303         4.08948        0.900366 
        2.39916         4.07794         0.89462 
        2.40529         4.06448        0.888924 
        2.41143         4.04763        0.883274 
        2.41757         4.04824         0.87767 
         2.4237         4.02492        0.872125 
        2.42983         4.00838        0.866629 
        2.43598         3.99745        0.861165 
        2.44211         3.97964        0.855757 
        2.44823         3.96615        0.850408 
        2.45437         3.95583        0.845089 
        2.46052         3.94153        0.839812 
        2.46665         3.92811        0.834589 
        2.47279         3.90528        0.829412 
        2.47892         3.89527        0.824275 
        2.48507         3.88434        0.819177 
         2.4912         3.86863        0.814132 
