# k  (h/Mpc)    Pcb(k)  (Mpc/h)^3    Pcb_linear(k)  (Mpc/h)^3
     0.00783031         8868.33         8984.37 
       0.013688         10285.8         10225.6 
       0.019231         9658.14          9627.4 
      0.0249154         8162.05         8262.15 
      0.0312784         6589.33         6605.23 
      0.0375637         5303.44         5268.01 
      0.0433917         4389.56          4406.6 
      0.0492413         3870.89         3860.94 
      0.0555754         3461.35         3506.87 
      0.0619321         3289.73         3257.85 
       0.067871         2990.86          3021.5 
      0.0738098         2710.38         2735.99 
      0.0800417         2358.76         2390.51 
      0.0862327         2042.54         2044.08 
      0.0921407         1781.67         1755.09 
      0.0982031         1545.17         1528.26 
       0.104506         1420.82         1371.55 
       0.110769         1319.69         1279.63 
       0.116806         1252.66         1225.67 
       0.122832         1207.85         1179.52 
       0.129052         1127.49          1119.3 
       0.135211         1051.48         1038.73 
       0.141259          975.02         943.992 
       0.147318         887.522         845.917 
       0.153489         794.504         756.176 
       0.159709         732.993         685.079 
       0.165845          692.25          636.09 
       0.171974         653.047         604.547 
       0.178125         628.689         583.323 
       0.184229         606.928         564.849 
        0.19034         569.523         542.841 
       0.196428         552.523         514.647 
       0.202534         527.077         480.921 
       0.208729         490.385         444.584 
       0.214876         456.964         410.557 
       0.220989         434.429         381.844 
       0.227147         410.242         359.391 
        0.23329         392.496         342.906 
       0.239377         382.802         330.592 
       0.245482         358.644         319.966 
       0.251667         354.232          308.86 
       0.257832         341.007         296.216 
       0.263955         326.885         281.992 
       0.270079         311.509         266.831 
        0.27624         303.732         251.835 
       0.282372         290.816         238.247 
        0.28843         279.195         226.753 
       0.294538         265.827         217.211 
       0.300721         262.273         209.228 
        0.30691         250.192          202.27 
       0.313033         244.055         195.692 
       0.319153          234.11         188.947 
       0.325316         228.243         181.757 
        0.33145         219.511         174.326 
       0.337538           215.2         166.942 
       0.343633         207.083         159.895 
       0.349808         199.825         153.363 
       0.355968         196.114         147.572 
       0.362074          190.85         142.512 
       0.368217         185.201         137.925 
       0.374374         178.523         133.642 
       0.380519         175.566         129.475 
       0.386598         170.697         125.352 
       0.392688         167.736         121.201 
        0.39888         163.164         116.993 
       0.405048         158.663         112.922 
       0.411186         154.979         109.075 
       0.417313          151.39          105.49 
       0.423458         147.832         102.176 
       0.429607         144.359         99.1073 
       0.435692         139.664         96.2524 
       0.441815         138.301         93.5075 
       0.447964         135.523          90.831 
       0.454126         129.646         88.1912 
       0.460267         128.027         85.6072 
       0.466387         126.093          83.099 
        0.47254         123.056         80.6628 
       0.478662         122.066          78.343 
       0.484765         117.985         76.1508 
       0.490885         116.007         74.0734 
       0.497035         114.342         72.0887 
       0.503198         111.114          70.185 
       0.509342         109.199         68.3561 
       0.515458         107.461         66.5927 
       0.521598         105.508         64.8685 
       0.527764         104.016         63.1809 
       0.533884         102.375          61.555 
           0.54         100.266         59.9873 
       0.546137         99.2431         58.4756 
       0.552299         97.4385          57.018 
       0.558452         95.5098         55.6194 
       0.564573         93.8262         54.2806 
       0.570708         92.1333          52.987 
       0.576825         90.9688         51.7404 
       0.582926         88.9986         50.5352 
       0.589034         87.6263         49.3619 
       0.595184         86.3887         48.2133 
       0.601379         85.0839         47.0909 
       0.607522         83.2292         46.0132 
       0.613639          82.761         44.9759 
       0.619772         81.0007         43.9713 
       0.625918         79.8945         42.9976 
       0.632068         78.9703         42.0542 
       0.638161          78.029         41.1476 
         0.6443         76.9575         40.2607 
       0.650464         76.0348         39.3962 
       0.656582         74.7331         38.5628 
       0.662703         73.4893         37.7531 
       0.668861         72.4334         36.9621 
       0.675024         71.6014         36.1932 
       0.681124          70.785         35.4542 
       0.687237         69.3875         34.7344 
       0.693381         68.5347         34.0315 
       0.699536         67.7871          33.347 
       0.705665         67.7835         32.6844 
       0.711789         66.0567         32.0406 
       0.717957         65.5841         31.4099 
        0.72409         64.5237         30.7998 
       0.730186         63.4938         30.2097 
       0.736317         63.2527          29.632 
       0.742472         62.5177         29.0673 
       0.748622         61.7176         28.5179 
        0.75476         61.0593         27.9839 
       0.760888         60.1489         27.4644 
       0.767043          59.604         26.9562 
       0.773185         58.8507         26.4618 
       0.779291         58.2423         25.9827 
       0.785407         57.7517         25.5149 
       0.791564          57.169         25.0556 
       0.797719         56.0827         24.6079 
       0.803834         55.8318          24.174 
       0.809972         54.8648          23.749 
       0.816124         54.4905         23.3334 
       0.822261         54.0333         22.9289 
       0.828378         53.6342         22.5353 
       0.834502         53.0071         22.1506 
       0.840667         52.4002         21.7725 
       0.846816         51.6616         21.4042 
       0.852925         51.2771         21.0469 
       0.859047         50.5668          20.697 
       0.865192         50.2303         20.3539 
       0.871341         49.9129         20.0184 
       0.877463         49.0392          19.692 
       0.883569         48.7318         19.3738 
       0.889708         48.3616         19.0609 
       0.895864         47.9423         18.7542 
       0.902008         47.4533         18.4549 
       0.908149         47.0757         18.1623 
       0.914301         46.6378         17.8756 
       0.920448         46.2551         17.5954 
       0.926574         45.7015         17.3222 
       0.932687         45.5288         17.0553 
       0.938823         44.8021         16.7932 
       0.944975         44.4914          16.536 
       0.951105         44.0786         16.2851 
       0.957225         43.5596         16.0398 
       0.963368         43.4867         15.7988 
       0.969511          43.106         15.5628 
       0.975621         42.8146         15.3329 
       0.981748         42.2761          15.107 
       0.987916         41.9087         14.8843 
        0.99406         41.6681         14.6669 
        1.00019         41.2284         14.4543 
        1.00632         40.9661         14.2461 
        1.01246         40.6842         14.0417 
        1.01859         40.1032         13.8416 
        1.02471         40.0252         13.6457 
        1.03085         39.6652         13.4529 
        1.03698          39.279         13.2643 
        1.04314         38.9707         13.0785 
        1.04929           38.66         12.8967 
        1.05541         38.2553         12.7191 
        1.06154         38.2355         12.5444 
        1.06769         37.8222         12.3727 
        1.07382         37.6218         12.2048 
        1.07993         37.3687         12.0404 
        1.08607         37.0364         11.8783 
        1.09222         36.8051         11.7191 
        1.09836         36.4895         11.5629 
        1.10449         36.2483         11.4098 
        1.11063         35.8385         11.2594 
        1.11677         35.6385         11.1116 
         1.1229         35.3901         10.9668 
        1.12903         34.9308         10.8245 
        1.13518         35.0684         10.6845 
        1.14131         34.7783         10.5472 
        1.14745         34.3058         10.4123 
        1.15359         34.2634         10.2797 
        1.15973         33.8391         10.1494 
        1.16584         33.6746          10.022 
        1.17197          33.468         9.89653 
        1.17811         33.2899         9.77285 
        1.18424         32.9644         9.65166 
        1.19038         32.7686         9.53217 
        1.19652         32.7011         9.41475 
        1.20267         32.3833         9.29931 
        1.20881         32.1765         9.18583 
        1.21495         31.9015         9.07443 
        1.22108         31.7612         8.96489 
         1.2272          31.398         8.85742 
        1.23334         31.2861         8.75147 
        1.23949         31.2556           8.647 
        1.24562          30.856         8.54452 
        1.25174         30.7809         8.44386 
        1.25789         30.5959         8.34451 
        1.26402         30.3157         8.24694 
        1.27014          30.057         8.15117 
        1.27628         29.9111         8.05663 
        1.28244          29.763         7.96341 
        1.28858         29.6109         7.87179 
        1.29471          29.482         7.78182 
        1.30084         29.3059         7.69334 
        1.30697         29.0834         7.60609 
        1.31312         28.8528         7.52008 
        1.31925         28.7171         7.43566 
        1.32537         28.5657         7.35263 
        1.33151         28.3313         7.27056 
        1.33765         28.2567         7.18979 
        1.34378         28.0574         7.11041 
        1.34992         27.8528         7.03217 
        1.35606         27.6994         6.95494 
         1.3622         27.5654           6.879 
        1.36833         27.3394         6.80438 
        1.37445         27.2871         6.73091 
        1.38059         27.0845         6.65829 
        1.38675         26.8244         6.58657 
        1.39288         26.8238          6.5162 
        1.39901         26.5974         6.44688 
        1.40515         26.4465         6.37842 
         1.4113         26.3261         6.31098 
        1.41742         26.1392         6.24476 
        1.42355         26.0212         6.17938 
         1.4297         25.8874         6.11473 
        1.43585          25.811         6.05104 
        1.44198         25.5305          5.9885 
        1.44809         25.4654         5.92695 
        1.45423         25.3214         5.86605 
        1.46036         25.2548         5.80611 
        1.46649         25.0578         5.74698 
        1.47263         24.9095         5.68864 
        1.47877         24.8333         5.63113 
        1.48491           24.79         5.57432 
        1.49104         24.5406         5.51842 
        1.49718         24.3225         5.46324 
        1.50333         24.3199         5.40872 
        1.50947         24.1979         5.35506 
         1.5156         24.0532         5.30221 
        1.52172         23.9269         5.25007 
        1.52787         23.8446         5.19853 
          1.534            23.7         5.14774 
        1.54013         23.5188         5.09767 
        1.54627         23.4562         5.04818 
        1.55241         23.2385         4.99934 
        1.55855         23.1985         4.95121 
        1.56467         22.9906         4.90385 
         1.5708          23.027         4.85697 
        1.57695         22.7988         4.81064 
        1.58308         22.7157         4.76501 
        1.58922          22.646         4.71994 
        1.59535         22.5083         4.67548 
         1.6015         22.3558         4.63152 
        1.60764         22.2554         4.58815 
        1.61376         22.1035         4.54545 
        1.61989         22.0044         4.50326 
        1.62604         21.9626         4.46151 
        1.63218         21.8658         4.42032 
        1.63831         21.7193         4.37974 
        1.64444         21.6305         4.33965 
        1.65059         21.5047         4.29997 
        1.65673         21.3626         4.26083 
        1.66285         21.3302         4.22229 
        1.66898         21.2051         4.18421 
        1.67512         21.1196         4.14652 
        1.68127         20.9771         4.10926 
         1.6874         20.8825         4.07255 
        1.69353         20.8116          4.0363 
        1.69967         20.6894         4.00041 
        1.70581         20.5956         3.96497 
        1.71193         20.5364          3.9301 
        1.71806         20.3792         3.89556 
        1.72421         20.2861         3.86138 
        1.73035         20.1742         3.82764 
        1.73649         20.1376         3.79431 
        1.74262         20.0214         3.76141 
        1.74876         19.9881         3.72887 
        1.75489         19.8611         3.69679 
        1.76101         19.7487         3.66509 
        1.76715         19.6799         3.63371 
        1.77329         19.6252         3.60267 
        1.77943          19.511         3.57197 
        1.78557           19.38         3.54168 
        1.79171         19.3051         3.51173 
        1.79785         19.2046         3.48212 
        1.80399          19.163         3.45286 
        1.81012           19.07         3.42397 
        1.81625          19.002         3.39542 
        1.82239         18.9139         3.36716 
        1.82853          18.797         3.33923 
        1.83466         18.7339         3.31164 
        1.84078         18.5884          3.2844 
        1.84692         18.5448         3.25741 
        1.85306         18.4708          3.2307 
         1.8592         18.3651         3.20433 
        1.86533         18.2921         3.17826 
        1.87147         18.2253         3.15246 
        1.87761         18.1738         3.12693 
        1.88375         18.1098         3.10171 
        1.88988         18.0018          3.0768 
        1.89601         17.9057         3.05214 
        1.90215         17.8494         3.02774 
        1.90829          17.799         3.00361 
        1.91442         17.6913         2.97975 
        1.92056         17.6238         2.95616 
         1.9267         17.5337         2.93281 
        1.93284         17.4288         2.90969 
        1.93897         17.4069         2.88687 
        1.94509         17.3098         2.86434 
        1.95123         17.2616         2.84199 
        1.95737         17.1589         2.81986 
        1.96349         17.0978         2.79803 
        1.96964         17.0273         2.77636 
        1.97578         16.9405         2.75492 
        1.98192         16.8664         2.73374 
        1.98805         16.8218         2.71278 
        1.99419         16.7465         2.69204 
        2.00033         16.6273         2.67151 
        2.00647         16.5819          2.6512 
         2.0126         16.5229         2.63113 
        2.01874         16.4424         2.61124 
        2.02488         16.4086         2.59153 
        2.03101         16.3169         2.57207 
        2.03714         16.2633         2.55282 
        2.04328         16.1767         2.53375 
        2.04941         16.1052         2.51489 
        2.05554         16.0658         2.49623 
        2.06167         16.0059         2.47774 
        2.06781         15.9322         2.45943 
        2.07396         15.8912         2.44127 
        2.08009         15.8349         2.42334 
        2.08622         15.6922          2.4056 
        2.09237         15.6772           2.388 
        2.09851         15.6182         2.37058 
        2.10464         15.5377         2.35336 
        2.11077           15.47         2.33633 
        2.11691         15.4218         2.31943 
        2.12305         15.3813          2.3027 
        2.12918         15.3095         2.28617 
        2.13531         15.2328         2.26981 
        2.14145          15.207         2.25356 
         2.1476         15.1272         2.23746 
        2.15372         15.0514         2.22159 
        2.15985         14.9606         2.20586 
        2.16599         14.9483         2.19024 
        2.17213           14.89         2.17478 
        2.17827          14.799         2.15948 
         2.1844         14.7245         2.14434 
        2.19054         14.7095         2.12933 
        2.19666         14.6601          2.1145 
         2.2028         14.5916         2.09978 
        2.20893         14.5339         2.08521 
        2.21508         14.4546         2.07075 
        2.22122         14.3651         2.05643 
        2.22736         14.3677         2.04227 
        2.23349         14.2926         2.02824 
        2.23962          14.238         2.01434 
        2.24577         14.1678         2.00056 
         2.2519         14.1402         1.98693 
        2.25802         14.0688         1.97344 
        2.26417         14.0511         1.96004 
        2.27031         13.9597         1.94676 
        2.27644         13.9236         1.93363 
        2.28257         13.8496         1.92063 
        2.28872         13.7872         1.90772 
        2.29486         13.7476         1.89493 
        2.30099         13.6893         1.88229 
        2.30712         13.6545         1.86975 
        2.31326         13.5958         1.85731 
         2.3194         13.5669         1.84499 
        2.32553         13.4952          1.8328 
        2.33166         13.4264         1.82072 
         2.3378         13.3852         1.80874 
        2.34394         13.3448         1.79686 
        2.35007         13.2861         1.78511 
        2.35619         13.2109         1.77347 
        2.36233         13.1842         1.76191 
        2.36848         13.1382         1.75043 
        2.37462          13.082         1.73907 
        2.38075         13.0244         1.72783 
        2.38689         13.0056         1.71667 
        2.39303         12.9351         1.70562 
        2.39916         12.8948         1.69467 
        2.40529         12.8459         1.68382 
        2.41143         12.7916         1.67306 
        2.41757         12.7557         1.66239 
         2.4237         12.7023         1.65182 
        2.42983         12.6445         1.64136 
        2.43598          12.625         1.63095 
        2.44211         12.5629         1.62065 
        2.44823         12.5184         1.61046 
        2.45437         12.4672         1.60034 
        2.46052         12.4224         1.59029 
        2.46665         12.3953         1.58034 
        2.47279         12.3176         1.57049 
        2.47892         12.2901         1.56071 
        2.48507         12.2438           1.551 
         2.4912         12.2139          1.5414 
