# k  (h/Mpc)    P(k)  (Mpc/h)^3    P_linear(k)  (Mpc/h)^3
     0.00783031         19851.1         19917.2 
       0.013688         23355.8         24030.8 
       0.019231         23599.3         24013.7 
      0.0249154           22064         22020.5 
      0.0312784         18723.5           18971 
      0.0375637         15766.2         16113.6 
      0.0433917         13877.4         14005.4 
      0.0492413         12251.2         12465.2 
      0.0555754         11188.1         11304.2 
      0.0619321         9984.28         10436.9 
       0.067871         9423.14          9701.9 
      0.0738098         8774.67         8925.31 
      0.0800417         7930.02         8038.72 
      0.0862327         7032.54         7135.92 
      0.0921407         6325.53         6331.92 
      0.0982031         5747.99         5632.21 
       0.104506         5120.88         5072.16 
       0.110769         4765.78          4674.6 
       0.116806         4560.62         4401.86 
       0.122832          4301.4         4186.62 
       0.129052          4052.5         3974.55 
       0.135211         3925.36         3742.03 
       0.141259         3612.97         3483.73 
       0.147318         3338.78          3207.7 
       0.153489          3126.2         2932.61 
       0.159709         2995.08         2685.45 
       0.165845         2740.93         2485.54 
       0.171974         2662.75         2331.59 
       0.178125         2581.23         2214.81 
       0.184229         2379.21         2122.19 
        0.19034         2349.53         2037.65 
       0.196428         2280.88         1949.97 
       0.202534         2146.23         1853.07 
       0.208729         2097.33         1746.67 
       0.214876         1996.02         1638.87 
       0.220989         1903.58         1536.82 
       0.227147         1846.13         1445.33 
        0.23329         1772.16          1368.3 
       0.239377         1765.04         1305.54 
       0.245482         1683.58          1253.1 
       0.251667         1623.19         1206.27 
       0.257832         1593.37         1161.54 
       0.263955         1524.71         1116.18 
       0.270079         1486.33         1068.81 
        0.27624         1425.48         1019.86 
       0.282372         1410.74         971.721 
        0.28843         1378.99         926.683 
       0.294538         1320.69         885.381 
       0.300721         1298.57         848.361 
        0.30691         1262.16          815.83 
       0.313033         1218.01         787.065 
       0.319153          1206.7          760.43 
       0.325316         1190.26         734.532 
        0.33145         1162.31         708.947 
       0.337538         1126.13         683.478 
       0.343633          1101.7         658.175 
       0.349808         1083.23         633.212 
       0.355968         1060.43          609.56 
       0.362074          1030.3         587.706 
       0.368217         1026.06         567.475 
       0.374374         1009.92         548.817 
       0.380519         976.274         531.496 
       0.386598         971.724         515.283 
       0.392688         945.913          499.61 
        0.39888         930.174         484.048 
       0.405048         910.119          468.86 
       0.411186         907.827         454.087 
       0.417313         900.667         439.824 
       0.423458         875.578         426.138 
       0.429607         853.574         413.137 
       0.435692         845.929         401.001 
       0.441815         829.293         389.467 
       0.447964         821.511         378.461 
       0.454126          810.19         367.913 
       0.460267         801.258         357.783 
       0.466387          785.73         347.986 
        0.47254         775.534         338.408 
       0.478662         763.947         329.168 
       0.484765         755.254         320.261 
       0.490885         748.242         311.656 
       0.497035         733.329         303.356 
       0.503198         732.701         295.404 
       0.509342         718.655          287.81 
       0.515458         705.094         280.549 
       0.521598         705.645         273.526 
       0.527764         688.647         266.715 
       0.533884         679.742          260.17 
           0.54         676.792         253.824 
       0.546137         667.235         247.647 
       0.552299         662.036         241.641 
       0.558452         654.221         235.847 
       0.564573         652.062         230.282 
       0.570708         643.384         224.896 
       0.576825         630.974         219.709 
       0.582926         629.451          214.71 
       0.589034         620.941         209.868 
       0.595184         614.054         205.146 
       0.601379         604.905         200.535 
       0.607522         596.503         196.096 
       0.613639         595.773         191.804 
       0.619772         590.501         187.627 
       0.625918         582.406         183.567 
       0.632068         579.717         179.629 
       0.638161         571.654         175.846 
         0.6443         565.384         172.148 
       0.650464         561.568         168.545 
       0.656582         556.881         165.072 
       0.662703         550.939         161.696 
       0.668861         544.297         158.396 
       0.675024         542.245         155.186 
       0.681124         530.508         152.097 
       0.687237          531.19         149.087 
       0.693381         522.864         146.144 
       0.699536         524.092         143.275 
       0.705665         515.352         140.497 
       0.711789         514.328         137.795 
       0.717957         508.003         135.146 
        0.72409         503.735         132.583 
       0.730186         502.595         130.102 
       0.736317         495.823         127.672 
       0.742472         490.307         125.296 
       0.748622         490.234         122.983 
        0.75476         481.805         120.734 
       0.760888         480.933         118.544 
       0.767043         477.965         116.401 
       0.773185         473.583         114.315 
       0.779291          469.15         112.293 
       0.785407         465.494         110.316 
       0.791564         463.619         108.376 
       0.797719         456.257         106.483 
       0.803834         456.622         104.647 
       0.809972         449.797         102.849 
       0.816124         447.181         101.089 
       0.822261         444.303         99.3756 
       0.828378         442.571         97.7072 
       0.834502         435.825         96.0759 
       0.840667         433.882         94.4715 
       0.846816         430.653         92.9085 
       0.852925         430.526         91.3908 
       0.859047         424.533          89.904 
       0.865192         422.718         88.4456 
       0.871341         418.401         87.0187 
       0.877463         417.403           85.63 
       0.883569         414.008         84.2752 
       0.889708         408.997         82.9429 
       0.895864         404.835         81.6361 
       0.902008         404.341         80.3603 
       0.908149         400.152         79.1126 
       0.914301         398.936         77.8896 
       0.920448         393.952         76.6936 
       0.926574         392.121          75.527 
       0.932687         390.684         74.3873 
       0.938823         386.674         73.2671 
       0.944975         385.501         72.1676 
       0.951105         382.644         71.0946 
       0.957225         377.893         70.0454 
       0.963368         377.731         69.0139 
       0.969511         373.702         68.0033 
       0.975621         370.564         67.0184 
       0.981748         369.388         66.0506 
       0.987916         366.857          65.096 
        0.99406         363.199         64.1638 
        1.00019         359.803         63.2519 
        1.00632         358.855         62.3586 
        1.01246         355.838         61.4813 
        1.01859         353.511         60.6224 
        1.02471         351.777          59.781 
        1.03085          349.68         58.9527 
        1.03698         347.316          58.142 
        1.04314          344.89         57.3431 
        1.04929         343.681         56.5611 
        1.05541         340.414         55.7969 
        1.06154         337.448         55.0451 
        1.06769         335.246         54.3059 
        1.07382         332.496         53.5829 
        1.07993         332.505         52.8747 
        1.08607         330.235         52.1763 
        1.09222         327.113           51.49 
        1.09836         325.324         50.8168 
        1.10449         322.953         50.1564 
        1.11063         321.782         49.5071 
        1.11677         318.416         48.8695 
         1.1229         317.067         48.2443 
        1.12903         314.398         47.6295 
        1.13518         313.036         47.0249 
        1.14131         310.868         46.4312 
        1.14745         308.473         45.8481 
        1.15359         305.891         45.2749 
        1.15973         304.528         44.7113 
        1.16584         303.137         44.1599 
        1.17197         301.003          43.617 
        1.17811         297.644         43.0816 
        1.18424          296.97         42.5567 
        1.19038          295.47         42.0392 
        1.19652         292.505         41.5304 
        1.20267         291.047         41.0301 
        1.20881          289.92         40.5381 
        1.21495         287.076          40.055 
        1.22108          286.27         39.5799 
         1.2272         282.746         39.1137 
        1.23334         281.186         38.6539 
        1.23949         279.859         38.2004 
        1.24562         278.357         37.7555 
        1.25174         277.113         37.3183 
        1.25789         274.452         36.8867 
        1.26402         273.323         36.4628 
        1.27014         271.648         36.0466 
        1.27628         269.969         35.6356 
        1.28244         267.238         35.2303 
        1.28858         266.595         34.8318 
        1.29471         264.934         34.4404 
        1.30084         264.331         34.0554 
        1.30697         261.335         33.6757 
        1.31312         260.155         33.3013 
        1.31925         258.701         32.9337 
        1.32537         257.769          32.572 
        1.33151         254.836         32.2145 
        1.33765          253.65         31.8626 
        1.34378         252.716         31.5167 
        1.34992          250.22         31.1756 
        1.35606         248.559         30.8389 
         1.3622         246.723         30.5077 
        1.36833         246.828         30.1822 
        1.37445         245.263         29.8616 
        1.38059         242.266         29.5446 
        1.38675         240.922         29.2315 
        1.39288         240.597         28.9243 
        1.39901         238.341         28.6215 
        1.40515         237.032         28.3224 
         1.4113         235.558         28.0278 
        1.41742         234.057         27.7384 
        1.42355          232.41         27.4526 
         1.4297         231.224         27.1699 
        1.43585         229.774         26.8914 
        1.44198         228.389         26.6178 
        1.44809         227.234         26.3486 
        1.45423         225.939         26.0821 
        1.46036         225.343         25.8198 
        1.46649         223.235          25.561 
        1.47263         221.623         25.3055 
        1.47877         220.543         25.0536 
        1.48491          218.95         24.8048 
        1.49104         216.999         24.5599 
        1.49718         216.189         24.3181 
        1.50333         214.954         24.0792 
        1.50947         213.376          23.844 
         1.5156         212.488         23.6123 
        1.52172         210.895         23.3837 
        1.52787         209.849         23.1577 
          1.534         209.019         22.9349 
        1.54013         207.337         22.7152 
        1.54627         206.164         22.4981 
        1.55241         205.353         22.2838 
        1.55855         203.763         22.0725 
        1.56467         202.504         21.8646 
         1.5708         201.265         21.6587 
        1.57695         200.606         21.4552 
        1.58308          199.36         21.2548 
        1.58922         197.626         21.0568 
        1.59535         196.507         20.8614 
         1.6015         195.543         20.6682 
        1.60764         194.296         20.4775 
        1.61376         193.034         20.2898 
        1.61989         191.891         20.1043 
        1.62604         190.986         19.9207 
        1.63218          189.45         19.7395 
        1.63831         188.701         19.5609 
        1.64444         187.405         19.3845 
        1.65059         186.413         19.2099 
        1.65673         185.185         19.0376 
        1.66285         184.128         18.8679 
        1.66898         183.008         18.7002 
        1.67512         181.982         18.5342 
        1.68127         180.795         18.3701 
         1.6874         179.767         18.2083 
        1.69353         179.264         18.0486 
        1.69967         177.617         17.8904 
        1.70581         176.822         17.7342 
        1.71193         175.689         17.5805 
        1.71806         174.467         17.4282 
        1.72421          173.75         17.2775 
        1.73035         172.566         17.1287 
        1.73649          171.26         16.9817 
        1.74262         170.627         16.8365 
        1.74876         169.398         16.6929 
        1.75489         168.902         16.5513 
        1.76101           167.8         16.4114 
        1.76715          166.84         16.2729 
        1.77329         165.843         16.1358 
        1.77943         164.639         16.0003 
        1.78557         163.638         15.8665 
        1.79171          162.85         15.7342 
        1.79785         161.611         15.6034 
        1.80399         160.909         15.4742 
        1.81012         160.453         15.3465 
        1.81625         158.813         15.2204 
        1.82239         158.467         15.0954 
        1.82853          157.25          14.972 
        1.83466         156.218           14.85 
        1.84078         155.551         14.7295 
        1.84692         154.823         14.6102 
        1.85306          153.77          14.492 
         1.8592         152.964         14.3753 
        1.86533         151.729           14.26 
        1.87147         150.982         14.1458 
        1.87761         150.193         14.0328 
        1.88375          149.19         13.9212 
        1.88988         148.481         13.8109 
        1.89601         147.701         13.7017 
        1.90215         147.033         13.5937 
        1.90829         145.663         13.4868 
        1.91442         144.891         13.3811 
        1.92056          144.42         13.2766 
         1.9267         143.297         13.1732 
        1.93284         142.191         13.0707 
        1.93897         141.892         12.9696 
        1.94509         140.916         12.8697 
        1.95123         140.228         12.7707 
        1.95737         139.621         12.6726 
        1.96349         138.658         12.5757 
        1.96964         137.802         12.4797 
        1.97578         137.017         12.3845 
        1.98192          136.44         12.2906 
        1.98805         135.575         12.1976 
        1.99419         134.756         12.1056 
        2.00033         134.105         12.0145 
        2.00647         133.033         11.9244 
         2.0126         132.408         11.8353 
        2.01874         131.625          11.747 
        2.02488          131.04         11.6595 
        2.03101         130.341         11.5731 
        2.03714         129.881         11.4876 
        2.04328         128.686         11.4029 
        2.04941         128.039         11.3191 
        2.05554         127.375         11.2363 
        2.06167         126.796         11.1541 
        2.06781         126.058         11.0727 
        2.07396         125.183         10.9921 
        2.08009          124.75         10.9124 
        2.08622          124.02         10.8335 
        2.09237         123.065         10.7553 
        2.09851         122.648         10.6779 
        2.10464         122.068         10.6013 
        2.11077         121.411         10.5256 
        2.11691         120.579         10.4504 
        2.12305         119.822          10.376 
        2.12918         119.376         10.3025 
        2.13531         118.543         10.2297 
        2.14145         117.906         10.1574 
         2.1476         117.067         10.0857 
        2.15372         116.592         10.0151 
        2.15985         115.983         9.94508 
        2.16599         115.156         9.87554 
        2.17213          114.74         9.80673 
        2.17827         114.106          9.7386 
         2.1844         113.287         9.67118 
        2.19054         112.798         9.60436 
        2.19666         112.184         9.53828 
         2.2028         111.663         9.47276 
        2.20893         111.039         9.40781 
        2.21508         110.298         9.34341 
        2.22122         109.553         9.27959 
        2.22736         109.342         9.21649 
        2.23349         108.765         9.15399 
        2.23962         108.043         9.09204 
        2.24577         107.225         9.03061 
         2.2519         106.646         8.96983 
        2.25802         106.106         8.90971 
        2.26417         105.667         8.84997 
        2.27031         105.107         8.79072 
        2.27644         104.447         8.73219 
        2.28257         104.251         8.67419 
        2.28872         103.553         8.61661 
        2.29486         102.904         8.55956 
        2.30099         102.186         8.50314 
        2.30712         101.815         8.44721 
        2.31326         101.056         8.39169 
         2.3194          100.63         8.33669 
        2.32553         100.079         8.28228 
        2.33166         99.6752         8.22838 
         2.3378         99.0322         8.17489 
        2.34394         98.5211         8.12185 
        2.35007         97.9822         8.06936 
        2.35619          97.432          8.0174 
        2.36233         97.0119         7.96577 
        2.36848         96.5266         7.91448 
        2.37462         96.1055         7.86376 
        2.38075          95.421         7.81353 
        2.38689         95.0473         7.76369 
        2.39303         94.5487          7.7143 
        2.39916         94.1168         7.66539 
        2.40529         93.3914          7.6169 
        2.41143         92.9993          7.5688 
        2.41757         92.3702          7.5211 
         2.4237         92.0204         7.47389 
        2.42983         91.4831         7.42708 
        2.43598         90.8985         7.38056 
        2.44211         90.4892         7.33451 
        2.44823         89.9977         7.28895 
        2.45437         89.7368         7.24366 
        2.46052         89.1937         7.19871 
        2.46665         88.6515         7.15423 
        2.47279         88.2258         7.11013 
        2.47892         87.6899         7.06638 
        2.48507         87.4137         7.02295 
         2.4912         86.7456         6.97997 
