# k  (h/Mpc)    P(k)  (Mpc/h)^3    P_linear(k)  (Mpc/h)^3
     0.00783031         13714.5         13945.8 
       0.013688         16700.7         16590.6 
       0.019231         16231.8         16206.6 
      0.0249154         14133.7           14403 
      0.0312784         11843.3         11939.6 
      0.0375637          9852.5            9820 
      0.0433917         8291.22          8389.1 
      0.0492413         7423.89         7441.47 
      0.0555754         6630.87         6792.78 
      0.0619321         6350.79         6315.05 
       0.067871         5742.68         5863.52 
      0.0738098         5229.91         5332.35 
      0.0800417         4581.24         4701.35 
      0.0862327         4035.43         4072.54 
      0.0921407          3591.8         3546.28 
      0.0982031         3159.54         3128.66 
       0.104506         2950.29         2833.65 
       0.110769         2748.07         2652.54 
       0.116806         2608.16         2537.79 
       0.122832         2501.31         2434.99 
       0.129052         2320.21         2305.12 
       0.135211         2171.43         2139.51 
       0.141259          2036.6            1951 
       0.147318         1878.06         1759.61 
       0.153489         1697.16          1586.4 
       0.159709         1589.58         1449.77 
       0.165845         1521.51         1355.15 
       0.171974         1443.96         1292.66 
       0.178125         1383.79         1248.01 
       0.184229         1330.77          1206.6 
        0.19034         1250.09         1156.87 
       0.196428         1217.32         1094.79 
       0.202534         1163.92         1022.73 
       0.208729         1095.37         947.093 
       0.214876         1035.51         877.848 
       0.220989         994.191         820.523 
       0.227147         948.483         776.319 
        0.23329         910.805          743.91 
       0.239377         893.671         719.097 
       0.245482         835.926         696.559 
       0.251667         829.749          671.91 
       0.257832         796.218          643.45 
       0.263955         767.408         611.691 
       0.270079         735.883          578.46 
        0.27624         724.749         546.357 
       0.282372         694.178         517.961 
        0.28843         679.837         494.493 
       0.294538         644.967         475.304 
       0.300721         641.381         459.217 
        0.30691         613.255         444.829 
       0.313033          600.97         430.681 
       0.319153         584.123         415.706 
       0.325316         566.379         399.512 
        0.33145         549.829         382.819 
       0.337538         540.673         366.466 
       0.343633         524.137         351.157 
       0.349808         505.231         337.298 
       0.355968         500.902         325.228 
       0.362074          492.88         314.786 
       0.368217         478.566         305.253 
       0.374374         457.972         296.156 
       0.380519         456.086         287.083 
       0.386598         443.661         277.898 
       0.392688         440.765         268.575 
        0.39888          427.79         259.138 
       0.405048          418.88         250.092 
       0.411186         411.886         241.695 
       0.417313         403.555         233.985 
       0.423458         395.406         226.935 
       0.429607         388.897         220.438 
       0.435692         379.033         214.351 
       0.441815         375.514         208.402 
       0.447964         367.505         202.518 
       0.454126         358.681         196.649 
       0.460267         352.233         190.859 
       0.466387         347.951         185.249 
        0.47254         341.307         179.851 
       0.478662         340.135         174.759 
       0.484765         328.113         169.978 
       0.490885         324.892          165.48 
       0.497035         318.998         161.192 
       0.503198         314.103         157.057 
       0.509342         311.666          153.04 
       0.515458         307.798         149.132 
       0.521598         300.363         145.298 
       0.527764         295.895         141.538 
       0.533884         293.316         137.914 
           0.54         288.985         134.426 
       0.546137         287.576         131.081 
       0.552299         281.495          127.88 
       0.558452          279.91         124.819 
       0.564573         275.739         121.883 
       0.570708         270.264         119.029 
       0.576825         265.542         116.265 
       0.582926         263.265         113.586 
       0.589034         260.768         110.977 
       0.595184         258.238         108.422 
       0.601379         254.522         105.925 
       0.607522         250.631         103.525 
       0.613639         249.102         101.216 
       0.619772         243.701         98.9835 
       0.625918         242.598         96.8252 
       0.632068         238.669         94.7369 
       0.638161          237.58         92.7306 
         0.6443         233.678         90.7649 
       0.650464         231.341          88.842 
       0.656582         229.157         86.9824 
       0.662703          228.34          85.172 
       0.668861         224.221         83.4018 
       0.675024          221.45         81.6822 
       0.681124          220.19         80.0322 
       0.687237          217.55         78.4283 
       0.693381         214.142         76.8636 
       0.699536           212.4         75.3404 
       0.705665         210.572         73.8654 
       0.711789         208.642         72.4305 
       0.717957         207.644         71.0222 
        0.72409         205.165         69.6577 
       0.730186         202.692         68.3364 
       0.736317         200.424         67.0417 
       0.742472         199.243         65.7757 
       0.748622         197.467         64.5439 
        0.75476         195.656         63.3471 
       0.760888         193.313         62.1833 
       0.767043           193.1         61.0448 
       0.773185         190.973         59.9378 
       0.779291         187.358         58.8648 
       0.785407         186.961         57.8168 
       0.791564         185.097         56.7878 
       0.797719         182.538         55.7843 
       0.803834         181.534         54.8112 
       0.809972         180.595         53.8578 
       0.816124          179.91          52.925 
       0.822261          177.92         52.0167 
       0.828378         176.129         51.1325 
       0.834502         175.577         50.2682 
       0.840667         173.161         49.4183 
       0.846816         171.673         48.5906 
       0.852925         171.043         47.7872 
       0.859047         169.363         47.0004 
       0.865192          167.49         46.2288 
       0.871341         166.153         45.4741 
       0.877463          164.92         44.7397 
       0.883569         164.526         44.0236 
       0.889708         162.661         43.3195 
       0.895864         160.862          42.629 
       0.902008         160.033         41.9551 
       0.908149         159.506         41.2962 
       0.914301         157.394         40.6504 
       0.920448         156.371          40.019 
       0.926574         155.344         39.4033 
       0.932687         155.249         38.8019 
       0.938823         153.142         38.2109 
       0.944975         151.938         37.6309 
       0.951105         151.225          37.065 
       0.957225         149.851         36.5118 
       0.963368         147.917          35.968 
       0.969511         147.583         35.4352 
       0.975621         146.375         34.9161 
       0.981748         146.176         34.4061 
       0.987916         144.588         33.9031 
        0.99406         143.315         33.4121 
        1.00019         143.248         32.9318 
        1.00632         141.738         32.4613 
        1.01246         140.912         31.9994 
        1.01859         140.351         31.5473 
        1.02471         138.609         31.1044 
        1.03085         137.381         30.6685 
        1.03698         136.922         30.2419 
        1.04314         135.516         29.8217 
        1.04929         134.895         29.4104 
        1.05541         134.393         29.0086 
        1.06154         133.328         28.6132 
        1.06769         133.147         28.2247 
        1.07382         131.818         27.8447 
        1.07993         130.805         27.4726 
        1.08607         130.072         27.1057 
        1.09222         129.617         26.7452 
        1.09836          128.49         26.3916 
        1.10449         127.185         26.0449 
        1.11063         126.323         25.7041 
        1.11677         125.959         25.3695 
         1.1229         124.934         25.0414 
        1.12903         124.361         24.7188 
        1.13518         123.916         24.4017 
        1.14131         122.647         24.0903 
        1.14745         122.285         23.7845 
        1.15359         121.403          23.484 
        1.15973          120.81         23.1886 
        1.16584         119.558         22.8995 
        1.17197          119.07          22.615 
        1.17811         118.459         22.3344 
        1.18424         117.906         22.0594 
        1.19038          117.54         21.7883 
        1.19652         116.573         21.5218 
        1.20267         115.823         21.2597 
        1.20881         114.998         21.0021 
        1.21495         114.343         20.7491 
        1.22108         113.772         20.5004 
         1.2272         112.739         20.2563 
        1.23334         112.352         20.0156 
        1.23949         111.627         19.7783 
        1.24562          110.97         19.5454 
        1.25174         110.235         19.3167 
        1.25789         109.691         19.0909 
        1.26402          108.67         18.8692 
        1.27014         108.197         18.6515 
        1.27628         107.816         18.4366 
        1.28244         107.366         18.2247 
        1.28858          106.87         18.0164 
        1.29471         105.747         17.8118 
        1.30084         105.581         17.6105 
        1.30697         104.591         17.4121 
        1.31312         104.204         17.2165 
        1.31925         103.399         17.0245 
        1.32537         102.997         16.8356 
        1.33151         102.079         16.6489 
        1.33765         101.721         16.4651 
        1.34378         101.227         16.2845 
        1.34992         100.896         16.1064 
        1.35606         100.299         15.9306 
         1.3622         99.3931         15.7578 
        1.36833         98.9579          15.588 
        1.37445         98.4256         15.4207 
        1.38059         97.7689         15.2553 
        1.38675         97.1893          15.092 
        1.39288         96.9828         14.9318 
        1.39901         96.4491         14.7739 
        1.40515         95.6887         14.6179 
         1.4113         95.1848         14.4643 
        1.41742         94.7689         14.3135 
        1.42355         94.1369         14.1645 
         1.4297         93.7973         14.0172 
        1.43585         93.0364          13.872 
        1.44198         92.6402         13.7295 
        1.44809          92.162         13.5892 
        1.45423         91.7611         13.4504 
        1.46036         91.3555         13.3137 
        1.46649         90.6285         13.1789 
        1.47263         90.0773         13.0459 
        1.47877         89.9019         12.9147 
        1.48491          89.024         12.7851 
        1.49104         88.9272         12.6576 
        1.49718         88.3043         12.5318 
        1.50333         87.8879         12.4074 
        1.50947         87.4241          12.285 
         1.5156          86.886         12.1644 
        1.52172         86.4152         12.0454 
        1.52787          86.015         11.9278 
          1.534          85.443         11.8119 
        1.54013           85.03         11.6976 
        1.54627          84.734         11.5847 
        1.55241         84.1023         11.4732 
        1.55855         83.7421         11.3634 
        1.56467         83.4987         11.2552 
         1.5708         82.8311         11.1482 
        1.57695         82.7825         11.0424 
        1.58308         82.0149         10.9383 
        1.58922          81.829         10.8354 
        1.59535         81.3876         10.7338 
         1.6015         80.8098         10.6334 
        1.60764         80.4616         10.5344 
        1.61376         80.2176         10.4368 
        1.61989         79.6543         10.3405 
        1.62604         79.3924         10.2451 
        1.63218         79.0255          10.151 
        1.63831         78.1818         10.0583 
        1.64444         78.0125         9.96669 
        1.65059         77.6606         9.87602 
        1.65673         77.0273         9.78658 
        1.66285         76.8024         9.69849 
        1.66898         76.4825         9.61145 
        1.67512         75.9161         9.52531 
        1.68127         75.6942         9.44015 
         1.6874         75.1691         9.35622 
        1.69353         74.7751         9.27335 
        1.69967         74.4322         9.19129 
        1.70581         74.1899         9.11026 
        1.71193         73.8461          9.0305 
        1.71806         73.4065         8.95153 
        1.72421         72.9325         8.87335 
        1.73035         72.6458         8.79618 
        1.73649         72.3332         8.71995 
        1.74262         71.8658         8.64468 
        1.74876         71.6116         8.57025 
        1.75489         71.0615         8.49685 
        1.76101         70.8669         8.42432 
        1.76715         70.3373         8.35255 
        1.77329         70.1322         8.28151 
        1.77943         69.6442         8.21128 
        1.78557         69.5316         8.14196 
        1.79171         68.9259         8.07342 
        1.79785         68.5847         8.00566 
        1.80399         68.3998         7.93869 
        1.81012         68.1508         7.87258 
        1.81625         67.6644         7.80724 
        1.82239         67.4175         7.74254 
        1.82853         67.1051         7.67861 
        1.83466          66.773         7.61546 
        1.84078         66.3937         7.55309 
        1.84692         66.0342         7.49131 
        1.85306         65.7091         7.43014 
         1.8592         65.4362         7.36975 
        1.86533         65.0597         7.31007 
        1.87147         64.6044         7.25097 
        1.87761         64.4547          7.1925 
        1.88375         64.1108         7.13474 
        1.88988         63.7678         7.07768 
        1.89601         63.4388         7.02121 
        1.90215         63.0949         6.96531 
        1.90829         62.8002         6.91005 
        1.91442         62.5494         6.85537 
        1.92056         62.1349         6.80134 
         1.9267         61.9268         6.74783 
        1.93284         61.5334         6.69487 
        1.93897          61.276         6.64257 
        1.94509         61.0595         6.59094 
        1.95123         60.6725         6.53973 
        1.95737         60.3753         6.48903 
        1.96349         59.9935         6.43899 
        1.96964         59.8081         6.38933 
        1.97578         59.4971         6.34017 
        1.98192         59.3598         6.29163 
        1.98805         58.9385         6.24359 
        1.99419         58.6087         6.19605 
        2.00033         58.4202         6.14897 
        2.00647         58.1183          6.1024 
         2.0126         57.7152         6.05639 
        2.01874         57.4027         6.01078 
        2.02488         57.2345          5.9656 
        2.03101         56.9629         5.92097 
        2.03714         56.6167         5.87683 
        2.04328          56.397          5.8331 
        2.04941         56.1508         5.78984 
        2.05554         55.9493         5.74705 
        2.06167         55.6259         5.70464 
        2.06781         55.2781         5.66264 
        2.07396         55.0103         5.62101 
        2.08009         54.8541         5.57987 
        2.08622         54.5266         5.53918 
        2.09237         54.2504         5.49882 
        2.09851          54.125         5.45886 
        2.10464         53.7338         5.41935 
        2.11077         53.4724         5.38028 
        2.11691         53.1867         5.34152 
        2.12305         52.9887         5.30312 
        2.12918         52.7969          5.2652 
        2.13531         52.3973         5.22764 
        2.14145         52.1856         5.19037 
         2.1476         51.9387         5.15341 
        2.15372         51.7097         5.11699 
        2.15985         51.4924         5.08089 
        2.16599         51.2044         5.04504 
        2.17213         51.0302         5.00957 
        2.17827         50.7435         4.97444 
         2.1844         50.4422         4.93968 
        2.19054         50.2324         4.90525 
        2.19666          49.957         4.87119 
         2.2028         49.8891         4.83742 
        2.20893         49.5953         4.80395 
        2.21508         49.3409         4.77076 
        2.22122         49.1422         4.73787 
        2.22736         48.9028         4.70537 
        2.23349         48.6318         4.67317 
        2.23962         48.3211         4.64125 
        2.24577         48.1104         4.60961 
         2.2519         47.8887          4.5783 
        2.25802         47.7803         4.54734 
        2.26417         47.4054         4.51657 
        2.27031         47.2323         4.48606 
        2.27644         47.0885         4.45591 
        2.28257         46.7829         4.42605 
        2.28872         46.5013          4.3964 
        2.29486         46.3482         4.36703 
        2.30099         46.1732         4.33798 
        2.30712         45.9642         4.30919 
        2.31326         45.6886         4.28061 
         2.3194         45.4098          4.2523 
        2.32553         45.2173          4.2243 
        2.33166          44.974         4.19656 
         2.3378         44.7884         4.16903 
        2.34394         44.5985         4.14173 
        2.35007         44.3825         4.11472 
        2.35619         44.1286         4.08798 
        2.36233         43.9804         4.06142 
        2.36848         43.8069         4.03504 
        2.37462         43.5496         4.00894 
        2.38075         43.4375          3.9831 
        2.38689         43.2019         3.95747 
        2.39303         42.9602         3.93207 
        2.39916         42.7435         3.90691 
        2.40529         42.6121         3.88198 
        2.41143         42.4239         3.85724 
        2.41757          42.171         3.83271 
         2.4237          42.015         3.80844 
        2.42983         41.7785         3.78437 
        2.43598         41.6107         3.76045 
        2.44211          41.456         3.73678 
        2.44823         41.2332         3.71336 
        2.45437         41.0021         3.69008 
        2.46052         40.8007         3.66698 
        2.46665         40.6541         3.64412 
        2.47279         40.4275         3.62145 
        2.47892         40.2949         3.59897 
        2.48507          40.067         3.57665 
         2.4912         39.9469         3.55457 
