# k  (h/Mpc)    P(k)  (Mpc/h)^3    P_linear(k)  (Mpc/h)^3
     0.00783031         12654.4           12864 
       0.013688         15397.7         15303.1 
       0.019231           14972           14949 
      0.0249154         13048.7         13285.4 
      0.0312784         10931.5         11013.2 
      0.0375637         9089.67         9058.09 
      0.0433917         7654.37         7738.24 
      0.0492413          6850.8         6864.14 
      0.0555754         6125.13         6265.79 
      0.0619321         5860.11         5825.14 
       0.067871         5304.61         5408.64 
      0.0738098         4830.13         4918.69 
      0.0800417         4231.92         4336.65 
      0.0862327          3724.9         3756.62 
      0.0921407         3311.12         3271.18 
      0.0982031         2911.82         2885.96 
       0.104506         2716.03         2613.83 
       0.110769         2530.23         2446.78 
       0.116806         2400.63         2340.93 
       0.122832         2303.81          2246.1 
       0.129052         2138.51         2126.31 
       0.135211          2000.5         1973.54 
       0.141259         1873.79         1799.66 
       0.147318         1725.85         1623.11 
       0.153489         1558.86         1463.35 
       0.159709         1458.49         1337.31 
       0.165845         1394.55         1250.03 
       0.171974          1322.7         1192.39 
       0.178125         1268.56          1151.2 
       0.184229         1220.93         1113.01 
        0.19034         1145.81         1067.13 
       0.196428         1115.53         1009.87 
       0.202534          1066.5         943.392 
       0.208729         1002.29         873.627 
       0.214876         945.538         809.754 
       0.220989         907.388         756.875 
       0.227147          864.52           716.1 
        0.23329          830.16         686.205 
       0.239377         814.129         663.317 
       0.245482         761.407         642.527 
       0.251667          755.38         619.791 
       0.257832         725.279         593.538 
       0.263955         698.625         564.243 
       0.270079         669.473         533.589 
        0.27624         658.794         503.976 
       0.282372         630.981         477.783 
        0.28843         616.284         456.136 
       0.294538         584.995         438.435 
       0.300721         581.559         423.596 
        0.30691         555.666         410.324 
       0.313033          544.46         397.273 
       0.319153         528.203          383.46 
       0.325316         512.395         368.522 
        0.33145         496.848         353.124 
       0.337538         488.725          338.04 
       0.343633         473.133         323.918 
       0.349808         456.231         311.134 
       0.355968         451.909         300.001 
       0.362074         443.997         290.369 
       0.368217         431.318         281.575 
       0.374374         412.918         273.184 
       0.380519         410.538         264.814 
       0.386598         399.551         256.341 
       0.392688         396.494         247.742 
        0.39888         384.977         239.037 
       0.405048         376.497         230.692 
       0.411186         369.845         222.947 
       0.417313         362.453         215.835 
       0.423458         355.113         209.332 
       0.429607         348.839         203.339 
       0.435692         339.793         197.724 
       0.441815         336.688         192.236 
       0.447964          329.56         186.809 
       0.454126         320.524         181.395 
       0.460267         315.208         176.055 
       0.466387         311.368         170.879 
        0.47254         304.948           165.9 
       0.478662         304.012         161.203 
       0.484765         293.334         156.793 
       0.490885         290.205         152.644 
       0.497035         285.136         148.689 
       0.503198         280.142         144.875 
       0.509342         277.826         141.169 
       0.515458         274.178         137.564 
       0.521598         267.897         134.028 
       0.527764         263.968         130.559 
       0.533884         261.364         127.216 
           0.54         257.427         123.999 
       0.546137         256.098         120.914 
       0.552299         250.609         117.961 
       0.558452         248.955         115.137 
       0.564573         245.165         112.428 
       0.570708         240.122         109.796 
       0.576825         236.365         107.247 
       0.582926         233.826         104.775 
       0.589034         231.552         102.369 
       0.595184         229.164         100.012 
       0.601379         226.067         97.7082 
       0.607522         222.348         95.4951 
       0.613639         220.912         93.3651 
       0.619772         216.126         91.3055 
       0.625918          214.91         89.3147 
       0.632068         211.598         87.3883 
       0.638161         210.523         85.5376 
         0.6443         207.105         83.7244 
       0.650464          205.01         81.9507 
       0.656582         202.963         80.2353 
       0.662703         201.953         78.5653 
       0.668861         198.289         76.9324 
       0.675024         195.785         75.3462 
       0.681124         194.797         73.8242 
       0.687237         192.195         72.3447 
       0.693381         189.178         70.9014 
       0.699536         187.791         69.4964 
       0.705665         186.331         68.1358 
       0.711789         184.099         66.8122 
       0.717957         183.431         65.5131 
        0.72409          181.03         64.2545 
       0.730186         178.768         63.0356 
       0.736317         176.814         61.8414 
       0.742472         175.804         60.6736 
       0.748622          174.19         59.5374 
        0.75476         172.663         58.4334 
       0.760888         170.499         57.3599 
       0.767043         170.163         56.3097 
       0.773185         168.334         55.2885 
       0.779291         165.111         54.2988 
       0.785407         164.688          53.332 
       0.791564         163.191         52.3829 
       0.797719           160.7         51.4572 
       0.803834         159.917         50.5596 
       0.809972         158.905         49.6802 
       0.816124         158.312         48.8197 
       0.822261         156.511         47.9819 
       0.828378         154.978         47.1663 
       0.834502         154.609          46.369 
       0.840667         152.285          45.585 
       0.846816         150.866         44.8215 
       0.852925          150.33         44.0804 
       0.859047         148.703         43.3546 
       0.865192         147.253         42.6429 
       0.871341         146.035         41.9467 
       0.877463         144.811         41.2694 
       0.883569         144.431         40.6087 
       0.889708         142.915         39.9592 
       0.895864         141.279         39.3223 
       0.902008         140.533         38.7007 
       0.908149          140.03         38.0929 
       0.914301         138.303         37.4972 
       0.920448          137.29         36.9148 
       0.926574         136.448         36.3469 
       0.932687         136.314         35.7921 
       0.938823         134.355         35.2469 
       0.944975         133.132         34.7119 
       0.951105         132.578           34.19 
       0.957225         131.282         33.6796 
       0.963368           129.7          33.178 
       0.969511         129.506         32.6866 
       0.975621         128.584         32.2077 
       0.981748         128.157         31.7373 
       0.987916         126.751         31.2733 
        0.99406         125.702         30.8204 
        1.00019          125.57         30.3773 
        1.00632         124.204         29.9434 
        1.01246         123.558         29.5173 
        1.01859         122.764         29.1002 
        1.02471         121.477         28.6917 
        1.03085         120.384         28.2896 
        1.03698         120.041         27.8961 
        1.04314         118.792         27.5085 
        1.04929         118.198         27.1291 
        1.05541         117.555         26.7584 
        1.06154         116.821         26.3938 
        1.06769          116.62         26.0354 
        1.07382         115.496         25.6848 
        1.07993           114.6         25.3415 
        1.08607          113.84         25.0031 
        1.09222         113.534         24.6706 
        1.09836         112.513         24.3445 
        1.10449         111.501         24.0247 
        1.11063         110.757         23.7103 
        1.11677         110.392         23.4016 
         1.1229         109.416          23.099 
        1.12903         108.823         22.8014 
        1.13518         108.626         22.5089 
        1.14131         107.544         22.2216 
        1.14745         107.044         21.9396 
        1.15359         106.325         21.6624 
        1.15973         105.891         21.3899 
        1.16584         104.752         21.1232 
        1.17197         104.305         20.8608 
        1.17811          103.79          20.602 
        1.18424         103.251         20.3483 
        1.19038         102.886         20.0982 
        1.19652         102.099         19.8524 
        1.20267         101.334         19.6106 
        1.20881          100.69          19.373 
        1.21495          100.09         19.1396 
        1.22108         99.6551         18.9102 
         1.2272         98.6765          18.685 
        1.23334         98.3385          18.463 
        1.23949         97.6608         18.2441 
        1.24562         97.1272         18.0293 
        1.25174         96.4797         17.8183 
        1.25789         96.0778         17.6101 
        1.26402         95.2315         17.4055 
        1.27014         94.8539         17.2047 
        1.27628         94.4347         17.0065 
        1.28244         93.9078          16.811 
        1.28858         93.6421         16.6189 
        1.29471         92.6935         16.4301 
        1.30084         92.4215         16.2445 
        1.30697         91.6828         16.0615 
        1.31312         91.2944          15.881 
        1.31925         90.5884         15.7039 
        1.32537         90.2483         15.5297 
        1.33151         89.4375         15.3574 
        1.33765         89.1248         15.1879 
        1.34378          88.664         15.0213 
        1.34992         88.3444         14.8571 
        1.35606         87.7773         14.6949 
         1.3622         87.0116         14.5355 
        1.36833         86.7928         14.3788 
        1.37445         86.2323         14.2245 
        1.38059         85.6554          14.072 
        1.38675         85.1347         13.9214 
        1.39288         84.8887         13.7735 
        1.39901         84.4496         13.6279 
        1.40515         83.8331         13.4841 
         1.4113         83.3778         13.3423 
        1.41742         83.1568         13.2032 
        1.42355         82.5155         13.0658 
         1.4297         82.2453         12.9299 
        1.43585         81.5715          12.796 
        1.44198         81.1776         12.6645 
        1.44809         80.7728         12.5351 
        1.45423          80.418          12.407 
        1.46036         80.1232          12.281 
        1.46649         79.4873         12.1566 
        1.47263         79.0156         12.0339 
        1.47877         78.9096         11.9129 
        1.48491         78.1536         11.7934 
        1.49104         77.9954         11.6758 
        1.49718         77.4806         11.5597 
        1.50333         77.0995          11.445 
        1.50947         76.7201          11.332 
         1.5156         76.2547         11.2208 
        1.52172         75.8429         11.1111 
        1.52787         75.6013         11.0026 
          1.534         75.0216         10.8957 
        1.54013         74.6081         10.7903 
        1.54627         74.4164         10.6861 
        1.55241         73.8523         10.5833 
        1.55855         73.6128         10.4819 
        1.56467         73.2757         10.3822 
         1.5708         72.8236         10.2835 
        1.57695         72.7396         10.1859 
        1.58308         71.9962         10.0898 
        1.58922         71.8354         9.99488 
        1.59535         71.5531         9.90121 
         1.6015         70.9468         9.80862 
        1.60764          70.724         9.71724 
        1.61376         70.4207         9.62728 
        1.61989         69.9918         9.53839 
        1.62604         69.7715         9.45041 
        1.63218          69.409          9.3636 
        1.63831         68.7061         9.27808 
        1.64444         68.5691         9.19359 
        1.65059         68.2557         9.10996 
        1.65673         67.7823         9.02745 
        1.66285         67.5039         8.94619 
        1.66898         67.2083         8.86591 
        1.67512         66.7301         8.78645 
        1.68127         66.5606         8.70789 
         1.6874         66.1759         8.63047 
        1.69353         65.8397         8.55403 
        1.69967         65.4335         8.47834 
        1.70581         65.3015         8.40359 
        1.71193         65.0614         8.33002 
        1.71806         64.5264         8.25718 
        1.72421         64.2372         8.18506 
        1.73035         63.9491         8.11388 
        1.73649         63.6689         8.04356 
        1.74262         63.3486         7.97413 
        1.74876         63.0459         7.90547 
        1.75489          62.628         7.83776 
        1.76101         62.4771         7.77086 
        1.76715         62.0043         7.70465 
        1.77329         61.8004         7.63913 
        1.77943         61.3855         7.57434 
        1.78557         61.2475          7.5104 
        1.79171         60.8231         7.44718 
        1.79785         60.4952         7.38468 
        1.80399         60.3838          7.3229 
        1.81012         60.1071         7.26191 
        1.81625         59.6284         7.20164 
        1.82239         59.4335         7.14197 
        1.82853         59.1331           7.083 
        1.83466         58.8889         7.02474 
        1.84078         58.5652         6.96721 
        1.84692         58.1849         6.91022 
        1.85306         57.9518          6.8538 
         1.8592         57.6508         6.79809 
        1.86533          57.406         6.74304 
        1.87147         57.0191         6.68853 
        1.87761         56.8597         6.63459 
        1.88375         56.5625         6.58132 
        1.88988         56.3263         6.52868 
        1.89601          56.029         6.47659 
        1.90215         55.7127         6.42503 
        1.90829         55.5127         6.37405 
        1.91442         55.2633         6.32361 
        1.92056         54.8852         6.27377 
         1.9267         54.7136         6.22442 
        1.93284          54.358         6.17556 
        1.93897         54.1585         6.12732 
        1.94509          53.917          6.0797 
        1.95123         53.6292         6.03246 
        1.95737         53.4083         5.98568 
        1.96349         53.0282         5.93953 
        1.96964         52.9169         5.89372 
        1.97578         52.6476         5.84838 
        1.98192         52.4237          5.8036 
        1.98805          52.228         5.75929 
        1.99419         51.8424         5.71543 
        2.00033         51.6496         5.67201 
        2.00647         51.4561         5.62905 
         2.0126         51.0262         5.58661 
        2.01874         50.8809         5.54454 
        2.02488         50.7064         5.50286 
        2.03101         50.4412         5.46169 
        2.03714         50.1932         5.42098 
        2.04328         49.9796         5.38063 
        2.04941         49.7116         5.34073 
        2.05554         49.4886         5.30126 
        2.06167          49.261         5.26214 
        2.06781         49.0067          5.2234 
        2.07396         48.7664           5.185 
        2.08009         48.6293         5.14705 
        2.08622         48.3064         5.10952 
        2.09237         48.0729         5.07229 
        2.09851         47.9633         5.03542 
        2.10464         47.6646         4.99898 
        2.11077         47.4014         4.96295 
        2.11691         47.1606         4.92718 
        2.12305         47.0118         4.89177 
        2.12918          46.831         4.85679 
        2.13531         46.5008         4.82215 
        2.14145         46.2889         4.78776 
         2.1476          46.102         4.75367 
        2.15372         45.8418         4.72008 
        2.15985         45.6869         4.68678 
        2.16599         45.4447          4.6537 
        2.17213         45.2939         4.62098 
        2.17827         45.0587         4.58858 
         2.1844         44.7994         4.55652 
        2.19054         44.5709         4.52475 
        2.19666         44.3413         4.49334 
         2.2028         44.2427         4.46219 
        2.20893         44.0452         4.43132 
        2.21508         43.8486          4.4007 
        2.22122         43.6345         4.37037 
        2.22736          43.459         4.34038 
        2.23349          43.244         4.31068 
        2.23962         42.9174         4.28124 
        2.24577         42.7458         4.25205 
         2.2519          42.529         4.22317 
        2.25802         42.4849         4.19461 
        2.26417          42.172         4.16623 
        2.27031         42.0077         4.13808 
        2.27644         41.8604         4.11028 
        2.28257         41.5889         4.08273 
        2.28872         41.3337         4.05538 
        2.29486         41.2632         4.02829 
        2.30099         41.1161         4.00149 
        2.30712         40.8935         3.97493 
        2.31326         40.6438         3.94857 
         2.3194         40.4076         3.92246 
        2.32553         40.2364         3.89663 
        2.33166         40.0871         3.87104 
         2.3378         39.8725         3.84564 
        2.34394         39.7394         3.82047 
        2.35007         39.5013         3.79555 
        2.35619         39.3032         3.77089 
        2.36233         39.2022         3.74638 
        2.36848         39.0284         3.72205 
        2.37462         38.7909         3.69798 
        2.38075         38.6853         3.67414 
        2.38689         38.5207          3.6505 
        2.39303         38.2965         3.62706 
        2.39916         38.0873         3.60386 
        2.40529         37.9631         3.58086 
        2.41143         37.8122         3.55804 
        2.41757         37.5985         3.53541 
         2.4237         37.4969         3.51302 
        2.42983         37.2845         3.49083 
        2.43598         37.1139         3.46876 
        2.44211         36.9699         3.44693 
        2.44823         36.7973         3.42533 
        2.45437         36.5957         3.40385 
        2.46052         36.3816         3.38254 
        2.46665         36.2605         3.36145 
        2.47279         36.1141         3.34055 
        2.47892           35.97          3.3198 
        2.48507         35.7832         3.29922 
         2.4912         35.6684         3.27885 
