# k  (h/Mpc)    Pcb(k)  (Mpc/h)^3    Pcb_linear(k)  (Mpc/h)^3
     0.00783031         5542.08          5575.1 
       0.013688         6686.76         6804.17 
       0.019231         6773.41         6833.74 
      0.0249154         6290.33         6275.92 
      0.0312784         5391.99         5411.55 
      0.0375637         4575.35         4612.62 
      0.0433917         4037.01         4037.09 
      0.0492413         3606.59         3626.61 
      0.0555754         3320.92         3318.79 
      0.0619321         3016.93          3077.4 
       0.067871         2831.14         2855.69 
      0.0738098            2600          2610.6 
      0.0800417         2332.91         2331.46 
      0.0862327         2052.94         2056.81 
      0.0921407         1826.87         1824.12 
      0.0982031         1652.22         1632.93 
       0.104506         1488.94         1488.78 
       0.110769         1394.63         1390.45 
       0.116806         1341.02         1320.84 
       0.122832          1263.4         1258.34 
       0.129052         1197.23         1187.55 
       0.135211         1130.46         1105.92 
       0.141259         1034.96         1017.79 
       0.147318         940.628         929.708 
       0.153489         870.329         848.989 
       0.159709         817.814         782.723 
       0.165845         751.921         733.396 
       0.171974         733.887         697.195 
       0.178125         705.148         668.712 
       0.184229         664.022         642.589 
        0.19034         644.993         614.355 
       0.196428         616.591         582.434 
       0.202534         570.881         547.441 
       0.208729         550.186         511.462 
       0.214876         522.258         478.225 
       0.220989         484.932         449.722 
       0.227147         472.163         426.367 
        0.23329         454.256         407.803 
       0.239377         443.764         392.548 
       0.245482          422.73         378.584 
       0.251667         405.271          364.27 
       0.257832         398.794         349.005 
       0.263955         375.272         332.904 
       0.270079         359.591         316.519 
        0.27624         342.694         300.669 
       0.282372         332.036         286.329 
        0.28843         328.083         273.945 
       0.294538         312.138         263.239 
       0.300721         300.466          253.81 
        0.30691          295.58         245.213 
       0.313033          282.88          236.98 
       0.319153         277.653         228.671 
       0.325316         268.823         220.106 
        0.33145         260.764         211.524 
       0.337538         251.416         203.191 
       0.343633         243.253         195.314 
       0.349808         235.884         187.977 
       0.355968         230.145         181.376 
       0.362074         224.525         175.444 
       0.368217         220.354         169.936 
       0.374374         215.026         164.694 
       0.380519         206.059         159.575 
       0.386598          202.11         154.562 
       0.392688         196.424         149.579 
        0.39888         192.286          144.61 
       0.405048          187.99         139.849 
       0.411186         185.171          135.36 
       0.417313         180.766         131.165 
       0.423458         176.007         127.247 
       0.429607         172.106         123.564 
       0.435692         169.132         120.102 
       0.441815         164.778         116.749 
       0.447964         159.895         113.469 
       0.454126         157.052         110.248 
       0.460267         155.469         107.119 
       0.466387         151.876         104.096 
        0.47254         150.008         101.169 
       0.478662         144.963         98.3862 
       0.484765         142.938         95.7515 
       0.490885         140.065         93.2366 
       0.497035          138.76          90.818 
       0.503198         135.985         88.4874 
       0.509342         132.425         86.2423 
       0.515458         130.721         84.0729 
       0.521598         127.506         81.9522 
       0.527764         126.156         79.8819 
       0.533884         125.311         77.8937 
           0.54         121.928         75.9789 
       0.546137          119.08         74.1298 
       0.552299         117.449         72.3425 
       0.558452         115.296         70.6239 
       0.564573         114.742         68.9748 
       0.570708         111.532         67.3776 
       0.576825         110.279          65.835 
       0.582926         109.041         64.3406 
       0.589034         107.183         62.8857 
       0.595184         105.937         61.4625 
       0.601379         103.424          60.073 
       0.607522         101.695         58.7393 
       0.613639         100.829         57.4549 
       0.619772         99.1316         56.2088 
       0.625918          98.217          54.999 
       0.632068         96.3454         53.8248 
       0.638161         94.8675          52.695 
         0.6443         94.3111          51.589 
       0.650464         92.3072         50.5104 
       0.656582          91.941         49.4701 
       0.662703         90.7083         48.4587 
       0.668861         88.7045         47.4701 
       0.675024         88.6185         46.5086 
       0.681124         87.1633         45.5836 
       0.687237         85.5463         44.6822 
       0.693381         84.9732         43.8013 
       0.699536         83.9225         42.9427 
       0.705665         82.6939         42.1112 
       0.711789         81.5567         41.3026 
       0.717957         80.5543         40.5098 
        0.72409         79.8465         39.7425 
       0.730186         79.3594         38.9998 
       0.736317         77.9332         38.2721 
       0.742472         76.9521         37.5604 
       0.748622         75.8119         36.8675 
        0.75476         75.3008         36.1936 
       0.760888         74.9367         35.5376 
       0.767043         73.4258         34.8954 
       0.773185         72.5539         34.2705 
       0.779291         71.7433         33.6645 
       0.785407         70.8665         33.0723 
       0.791564         70.7885         32.4907 
       0.797719         69.7213         31.9234 
       0.803834         69.1547         31.3734 
       0.809972         68.5201         30.8344 
       0.816124         67.6942          30.307 
       0.822261         66.7998         29.7934 
       0.828378         66.6097         29.2934 
       0.834502          65.646         28.8045 
       0.840667         65.2002         28.3236 
       0.846816         64.4725         27.8552 
       0.852925          63.801         27.4003 
       0.859047         63.6244         26.9547 
       0.865192         62.5817         26.5177 
       0.871341         61.8861         26.0901 
       0.877463         61.4344         25.6738 
       0.883569         61.2726         25.2678 
       0.889708         60.6116         24.8685 
       0.895864         60.0863         24.4769 
       0.902008         59.4572         24.0945 
       0.908149         58.8029         23.7206 
       0.914301         58.4733          23.354 
       0.920448          58.214         22.9956 
       0.926574         57.0977          22.646 
       0.932687         56.8377         22.3044 
       0.938823         56.3208         21.9686 
       0.944975         55.6764          21.639 
       0.951105         55.2742         21.3174 
       0.957225         55.0402         21.0029 
       0.963368         54.4927         20.6936 
       0.969511         54.0069         20.3906 
       0.975621         53.6151         20.0954 
       0.981748         53.0656         19.8052 
       0.987916         52.6839         19.5189 
        0.99406         52.3103         19.2394 
        1.00019         51.7733          18.966 
        1.00632         51.4173         18.6981 
        1.01246         51.0292          18.435 
        1.01859         50.7426         18.1774 
        1.02471         50.1622          17.925 
        1.03085         49.8917         17.6766 
        1.03698         49.5787         17.4334 
        1.04314         49.1873         17.1938 
        1.04929         48.6859         16.9593 
        1.05541         48.4915         16.7301 
        1.06154         48.1742         16.5046 
        1.06769         47.5382         16.2829 
        1.07382         47.2972          16.066 
        1.07993         47.0339         15.8536 
        1.08607         46.6498         15.6441 
        1.09222         46.4411         15.4383 
        1.09836         46.0236         15.2364 
        1.10449         45.7878         15.0383 
        1.11063         45.3513         14.8436 
        1.11677         45.2684         14.6524 
         1.1229         44.7718         14.4649 
        1.12903         44.5639         14.2806 
        1.13518         44.4482         14.0993 
        1.14131           43.95         13.9212 
        1.14745         43.5658         13.7464 
        1.15359         43.1515         13.5745 
        1.15973         43.0992         13.4055 
        1.16584          42.765         13.2401 
        1.17197         42.2564         13.0773 
        1.17811         42.1191         12.9167 
        1.18424         41.5493         12.7593 
        1.19038         41.4877         12.6041 
        1.19652          41.281         12.4515 
        1.20267         41.0224         12.3014 
        1.20881         40.7195         12.1539 
        1.21495         40.5655          12.009 
        1.22108         40.4145         11.8665 
         1.2272         40.0279         11.7266 
        1.23334         39.7941         11.5887 
        1.23949         39.5389         11.4526 
        1.24562          39.233         11.3192 
        1.25174         38.9976          11.188 
        1.25789         38.9431         11.0586 
        1.26402         38.6225         10.9314 
        1.27014         38.4472         10.8065 
        1.27628         38.0465         10.6832 
        1.28244         38.0154         10.5616 
        1.28858         37.6809         10.4421 
        1.29471         37.4565         10.3246 
        1.30084         37.1676         10.2091 
        1.30697         37.1059         10.0952 
        1.31312         36.7654         9.98289 
        1.31925         36.4677         9.87262 
        1.32537         36.3025         9.76413 
        1.33151         36.0662         9.65688 
        1.33765         35.9685         9.55131 
        1.34378         35.8085         9.44753 
        1.34992         35.5127         9.34522 
        1.35606         35.2835         9.24421 
         1.3622         35.1061         9.14487 
        1.36833         34.9586         9.04723 
        1.37445         34.6464         8.95107 
        1.38059         34.5422         8.85601 
        1.38675         34.2296         8.76211 
        1.39288         34.1494         8.66994 
        1.39901         33.9089         8.57914 
        1.40515         33.7626         8.48944 
         1.4113         33.7234         8.40105 
        1.41742         33.4861         8.31426 
        1.42355         33.1768         8.22853 
         1.4297         33.0381         8.14375 
        1.43585         32.8282          8.0602 
        1.44198          32.671         7.97814 
        1.44809         32.4684         7.89737 
        1.45423         32.3634         7.81743 
        1.46036         32.2241         7.73873 
        1.46649         32.0241         7.66109 
        1.47263         31.8085         7.58445 
        1.47877          31.669          7.5089 
        1.48491         31.5511         7.43425 
        1.49104         31.2966         7.36078 
        1.49718         31.2375         7.28824 
        1.50333         31.0968         7.21657 
        1.50947          30.868         7.14601 
         1.5156         30.7312          7.0765 
        1.52172         30.5143         7.00791 
        1.52787         30.4236         6.94009 
          1.534          30.223         6.87325 
        1.54013         30.1976         6.80737 
        1.54627         29.9055         6.74222 
        1.55241         29.7732         6.67792 
        1.55855         29.6859         6.61455 
        1.56467          29.541         6.55217 
         1.5708         29.3834         6.49043 
        1.57695         29.2651         6.42938 
        1.58308         28.9971         6.36927 
        1.58922         28.8732         6.30987 
        1.59535         28.7803         6.25126 
         1.6015         28.6977         6.19332 
        1.60764         28.5077         6.13613 
        1.61376         28.3602         6.07982 
        1.61989         28.1484         6.02418 
        1.62604         28.0561          5.9691 
        1.63218         27.9386         5.91475 
        1.63831         27.8237          5.8612 
        1.64444         27.6761         5.80829 
        1.65059         27.5437          5.7559 
        1.65673         27.4318         5.70422 
        1.66285         27.3435         5.65332 
        1.66898         27.1388         5.60302 
        1.67512         27.0921         5.55323 
        1.68127         26.9347           5.504 
         1.6874         26.7899         5.45548 
        1.69353         26.7037         5.40758 
        1.69967         26.5714         5.36013 
        1.70581         26.3852         5.31327 
        1.71193         26.2579         5.26715 
        1.71806         26.1972         5.22148 
        1.72421          26.092         5.17626 
        1.73035         25.9305         5.13163 
        1.73649         25.7739         5.08753 
        1.74262           25.64         5.04398 
        1.74876         25.5835         5.00092 
        1.75489         25.4413         4.95844 
        1.76101         25.3402         4.91647 
        1.76715         25.2559         4.87493 
        1.77329         25.0587         4.83382 
        1.77943         25.0113         4.79316 
        1.78557         24.9087         4.75304 
        1.79171         24.7856         4.71336 
        1.79785         24.6737         4.67413 
        1.80399         24.5452         4.63535 
        1.81012         24.4872         4.59706 
        1.81625         24.2974         4.55922 
        1.82239         24.2142         4.52175 
        1.82853         24.1104         4.48472 
        1.83466         23.9893         4.44815 
        1.84078         23.8768         4.41201 
        1.84692         23.8255         4.37622 
        1.85306         23.6648         4.34078 
         1.8592         23.6277         4.30579 
        1.86533         23.4567         4.27121 
        1.87147         23.3441         4.23696 
        1.87761         23.2532         4.20308 
        1.88375          23.219          4.1696 
        1.88988         23.0585         4.13652 
        1.89601         22.9521         4.10379 
        1.90215         22.8511         4.07138 
        1.90829         22.8029         4.03934 
        1.91442         22.6182         4.00763 
        1.92056          22.577          3.9763 
         1.9267          22.478         3.94527 
        1.93284         22.4354         3.91455 
        1.93897         22.3175         3.88421 
        1.94509         22.2194         3.85426 
        1.95123          22.098         3.82455 
        1.95737         22.0048         3.79514 
        1.96349         21.9113          3.7661 
        1.96964         21.9184         3.73729 
        1.97578         21.7072         3.70876 
        1.98192         21.6505         3.68059 
        1.98805         21.4699         3.65271 
        1.99419         21.4794         3.62511 
        2.00033         21.3522         3.59779 
        2.00647         21.2965         3.57076 
         2.0126         21.1715         3.54404 
        2.01874         21.0898         3.51756 
        2.02488         20.9606         3.49133 
        2.03101         20.8757         3.46541 
        2.03714         20.8112         3.43978 
        2.04328         20.7388         3.41438 
        2.04941          20.637         3.38926 
        2.05554          20.587         3.36441 
        2.06167         20.4849         3.33977 
        2.06781         20.4189         3.31537 
        2.07396         20.3537         3.29118 
        2.08009         20.2223         3.26728 
        2.08622         20.1563         3.24364 
        2.09237         20.1192         3.22018 
        2.09851         19.9646         3.19696 
        2.10464         19.8661           3.174 
        2.11077         19.8443         3.15129 
        2.11691          19.737         3.12876 
        2.12305         19.6783         3.10645 
        2.12918         19.6043          3.0844 
        2.13531         19.5222         3.06257 
        2.14145         19.4057          3.0409 
         2.1476         19.2969         3.01941 
        2.15372         19.2736         2.99824 
        2.15985         19.1992         2.97725 
        2.16599            19.1          2.9564 
        2.17213         19.0559         2.93577 
        2.17827         18.9317         2.91534 
         2.1844         18.8738         2.89512 
        2.19054         18.8557         2.87509 
        2.19666         18.7303         2.85528 
         2.2028         18.7076         2.83563 
        2.20893         18.5584         2.81616 
        2.21508         18.4986         2.79685 
        2.22122         18.4012         2.77772 
        2.22736         18.4118          2.7588 
        2.23349         18.2709         2.74007 
        2.23962         18.2387         2.72149 
        2.24577         18.1568         2.70308 
         2.2519         18.0891         2.68485 
        2.25802         17.9588         2.66683 
        2.26417         17.9353         2.64892 
        2.27031         17.8742         2.63116 
        2.27644         17.8321         2.61361 
        2.28257         17.7192         2.59622 
        2.28872         17.7161         2.57896 
        2.29486         17.6158         2.56186 
        2.30099         17.5102         2.54495 
        2.30712         17.4646         2.52818 
        2.31326         17.3802         2.51153 
         2.3194         17.3079         2.49505 
        2.32553         17.2749         2.47874 
        2.33166          17.156         2.46258 
         2.3378         17.1396         2.44654 
        2.34394         17.0282         2.43064 
        2.35007         16.9926         2.41491 
        2.35619         16.9502         2.39933 
        2.36233          16.843         2.38385 
        2.36848         16.7739         2.36848 
        2.37462         16.7155         2.35328 
        2.38075         16.6736         2.33822 
        2.38689          16.594         2.32328 
        2.39303         16.5296         2.30847 
        2.39916          16.447         2.29381 
        2.40529         16.4126         2.27928 
        2.41143         16.3323         2.26486 
        2.41757         16.2537         2.25056 
         2.4237         16.2024         2.23641 
        2.42983         16.1645         2.22238 
        2.43598         16.0842         2.20843 
        2.44211         16.0249         2.19463 
        2.44823         15.9767         2.18098 
        2.45437         15.9381          2.1674 
        2.46052         15.8346         2.15393 
        2.46665         15.8296         2.14059 
        2.47279         15.7125         2.12738 
        2.47892         15.6592         2.11426 
        2.48507         15.6084         2.10125 
         2.4912         15.5433         2.08837 
