# k  (h/Mpc)    P(k)  (Mpc/h)^3    P_linear(k)  (Mpc/h)^3
     0.00783031         12564.2         12672.5 
       0.013688           15443         15863.4 
       0.019231           15954           16212 
      0.0249154         15133.2         15137.8 
      0.0312784         13131.5         13287.6 
      0.0375637         11281.9         11503.5 
      0.0433917         10093.4         10180.2 
      0.0492413         9053.38          9210.9 
      0.0555754            8373         8464.03 
      0.0619321         7550.94         7867.83 
       0.067871         7127.28         7321.64 
      0.0738098         6601.57         6723.84 
      0.0800417         5961.83         6046.61 
      0.0862327         5293.25         5378.69 
      0.0921407         4768.85         4807.45 
      0.0982031         4361.21         4330.46 
       0.104506         3935.98         3961.98 
       0.110769         3693.04         3702.48 
       0.116806         3558.37         3514.02 
       0.122832         3348.08         3345.62 
       0.129052         3162.96         3160.59 
       0.135211         3030.62         2953.05 
       0.141259         2783.52         2731.88 
       0.147318         2554.33         2510.76 
       0.153489         2395.26         2305.93 
       0.159709         2292.07         2134.21 
       0.165845         2104.29         2002.39 
       0.171974         2061.03         1902.14 
       0.178125         1997.19         1821.42 
       0.184229         1851.14         1748.29 
        0.19034         1817.65         1672.24 
       0.196428         1757.29         1589.23 
       0.202534         1641.41         1499.94 
       0.208729         1603.26          1408.4 
       0.214876          1528.4         1322.94 
       0.220989         1445.12         1248.04 
       0.227147          1409.1         1184.72 
        0.23329         1356.48         1132.62 
       0.239377         1346.18         1088.83 
       0.245482         1282.21         1048.91 
       0.251667         1235.12         1009.14 
       0.257832         1216.94         968.218 
       0.263955         1157.88         926.124 
       0.270079         1123.39         883.667 
        0.27624         1076.39         842.435 
       0.282372         1060.38         804.464 
        0.28843         1045.67         770.869 
       0.294538         995.783         740.994 
       0.300721         974.288         714.112 
        0.30691         953.852         689.482 
       0.313033         915.648         666.214 
       0.319153         904.435         643.293 
       0.325316         892.136         620.195 
        0.33145         872.601         597.371 
       0.337538         842.668         575.265 
       0.343633         821.651         554.176 
       0.349808         804.504         534.246 
       0.355968         789.622         515.908 
       0.362074         764.087         499.178 
       0.368217         761.557         483.486 
       0.374374         749.932         468.583 
       0.380519         722.114         454.225 
       0.386598         716.679          440.34 
       0.392688          700.43         426.732 
        0.39888         683.301         413.238 
       0.405048           671.1         400.279 
       0.411186         669.394         387.982 
       0.417313         664.576         376.346 
       0.423458         644.073         365.335 
       0.429607         626.527         354.915 
       0.435692         620.036         345.086 
       0.441815          608.92         335.584 
       0.447964         599.437         326.365 
       0.454126         592.451         317.391 
       0.460267         583.475         308.706 
       0.466387         573.955         300.333 
        0.47254         564.962         292.218 
       0.478662         555.687          284.46 
       0.484765          549.71          277.05 
       0.490885         544.165         269.941 
       0.497035         533.546         263.084 
       0.503198         533.209          256.47 
       0.509342         522.239         250.102 
       0.515458         512.485         243.969 
       0.521598          508.06         238.002 
       0.527764         498.328          232.19 
       0.533884          494.98         226.605 
           0.54         489.704          221.21 
       0.546137         481.024         215.985 
       0.552299          479.63         210.923 
       0.558452         472.668         206.043 
       0.564573         468.413         201.349 
       0.570708         463.512         196.797 
       0.576825         454.425         192.402 
       0.582926          452.71         188.151 
       0.589034         445.779         184.021 
       0.595184         442.442         179.983 
       0.601379         435.521         176.037 
       0.607522         427.984         172.243 
       0.613639         426.933         168.581 
       0.619772         425.236         165.022 
       0.625918           417.3         161.563 
       0.632068         414.489         158.204 
       0.638161          410.73         154.972 
         0.6443         406.007         151.808 
       0.650464         401.689          148.72 
       0.656582         398.314         145.741 
       0.662703         395.136         142.843 
       0.668861         389.371         140.009 
       0.675024         387.147         137.251 
       0.681124         381.605         134.596 
       0.687237          380.05         132.007 
       0.693381         374.824         129.476 
       0.699536         373.297         127.007 
       0.705665         368.944         124.615 
       0.711789         367.338         122.287 
       0.717957         362.517         120.003 
        0.72409         358.614         117.792 
       0.730186         360.389          115.65 
       0.736317         353.987          113.55 
       0.742472         350.666         111.496 
       0.748622          347.81         109.495 
        0.75476         346.083         107.548 
       0.760888         342.752         105.652 
       0.767043         339.821         103.795 
       0.773185         337.923         101.987 
       0.779291          333.34         100.232 
       0.785407         331.884         98.5172 
       0.791564         329.149         96.8319 
       0.797719         324.084         95.1874 
       0.803834         326.437         93.5919 
       0.809972         321.336         92.0278 
       0.816124         317.969         90.4964 
       0.822261         315.608         89.0045 
       0.828378         314.543         87.5511 
       0.834502         309.994         86.1293 
       0.840667         310.216         84.7302 
       0.846816         304.672         83.3666 
       0.852925         305.239          82.042 
       0.859047         302.334         80.7437 
       0.865192         301.284         79.4696 
       0.871341         297.157         78.2224 
       0.877463         295.227          77.008 
       0.883569         293.621         75.8228 
       0.889708          291.02         74.6567 
       0.895864         288.363         73.5124 
       0.902008         286.774         72.3948 
       0.908149         284.426         71.3013 
       0.914301         282.924          70.229 
       0.920448         281.324         69.1799 
       0.926574         279.108         68.1562 
       0.932687         277.978         67.1556 
       0.938823         274.958         66.1718 
       0.944975         274.312         65.2056 
       0.951105         271.556         64.2624 
       0.957225         268.851         63.3397 
       0.963368         269.213         62.4321 
       0.969511         264.222         61.5426 
       0.975621         263.275         60.6753 
       0.981748         262.328         59.8227 
       0.987916         261.022         58.9813 
        0.99406         258.607         58.1594 
        1.00019         256.698         57.3549 
        1.00632         256.122         56.5665 
        1.01246         254.043         55.7919 
        1.01859         251.244         55.0333 
        1.02471         249.593         54.2898 
        1.03085         248.594         53.5576 
        1.03698         247.382         52.8406 
        1.04314         246.684         52.1338 
        1.04929         244.905         51.4417 
        1.05541         242.732         50.7651 
        1.06154         241.018         50.0991 
        1.06769           239.1         49.4442 
        1.07382         238.535         48.8032 
        1.07993         236.004         48.1751 
        1.08607         234.775         47.5556 
        1.09222         233.212         46.9465 
        1.09836         232.534         46.3488 
        1.10449         230.626         45.7624 
        1.11063         228.985         45.1855 
        1.11677         227.427         44.6189 
         1.1229         226.548         44.0631 
        1.12903         224.872         43.5164 
        1.13518         223.376         42.9786 
        1.14131         222.652         42.4502 
        1.14745         220.228         41.9311 
        1.15359          218.68         41.4207 
        1.15973         218.147         40.9187 
        1.16584             217         40.4273 
        1.17197         215.574         39.9434 
        1.17811         213.819         39.4659 
        1.18424         212.663         38.9978 
        1.19038         211.589         38.5359 
        1.19652         209.361         38.0818 
        1.20267         208.706         37.6351 
        1.20881          207.18         37.1956 
        1.21495         206.989          36.764 
        1.22108         205.315         36.3393 
         1.2272         203.309         35.9224 
        1.23334         202.657         35.5111 
        1.23949         201.818         35.1054 
        1.24562         200.311         34.7071 
        1.25174         199.202         34.3157 
        1.25789         197.458         33.9292 
        1.26402         197.308         33.5493 
        1.27014         196.415         33.1763 
        1.27628         194.327         32.8078 
        1.28244         193.375         32.4443 
        1.28858         192.195         32.0868 
        1.29471         191.239         31.7356 
        1.30084         190.116         31.3899 
        1.30697         188.521          31.049 
        1.31312         187.644         30.7126 
        1.31925         186.461         30.3824 
        1.32537         185.901         30.0573 
        1.33151          184.73         29.7359 
        1.33765         183.235         29.4194 
        1.34378         182.641         29.1081 
        1.34992         181.347         28.8012 
        1.35606         180.415         28.4981 
         1.3622         179.477         28.1999 
        1.36833         177.884         27.9068 
        1.37445          177.94          27.618 
        1.38059         176.101         27.3324 
        1.38675         175.109         27.0502 
        1.39288         174.029         26.7731 
        1.39901         173.076         26.5001 
        1.40515         172.493         26.2303 
         1.4113         171.116         25.9644 
        1.41742          169.83         25.7033 
        1.42355         170.026         25.4452 
         1.4297         168.358           25.19 
        1.43585         167.696         24.9384 
        1.44198         165.928         24.6912 
        1.44809         165.494         24.4478 
        1.45423         164.702         24.2069 
        1.46036         163.567         23.9696 
        1.46649         162.571         23.7355 
        1.47263         162.094         23.5043 
        1.47877         160.773         23.2764 
        1.48491         159.705         23.0511 
        1.49104         158.287         22.8293 
        1.49718         158.071         22.6103 
        1.50333         157.049         22.3938 
        1.50947         156.192         22.1807 
         1.5156         155.129         21.9706 
        1.52172         154.575         21.7633 
        1.52787         153.708         21.5582 
          1.534         152.763          21.356 
        1.54013         151.904         21.1567 
        1.54627         150.964         20.9596 
        1.55241         150.462         20.7649 
        1.55855         149.748          20.573 
        1.56467          148.66         20.3841 
         1.5708          147.43         20.1971 
        1.57695          147.06         20.0121 
        1.58308         145.914         19.8299 
        1.58922         145.484         19.6498 
        1.59535         144.492         19.4721 
         1.6015          143.63         19.2963 
        1.60764         142.738         19.1228 
        1.61376         141.894         18.9519 
        1.61989         141.324          18.783 
        1.62604         140.204         18.6158 
        1.63218           139.7         18.4507 
        1.63831         138.808          18.288 
        1.64444         137.923         18.1273 
        1.65059         137.309         17.9681 
        1.65673         136.664          17.811 
        1.66285         136.173         17.6562 
        1.66898         135.041         17.5032 
        1.67512         134.333         17.3518 
        1.68127         133.773          17.202 
         1.6874         132.703         17.0543 
        1.69353         132.406         16.9085 
        1.69967         131.294         16.7641 
        1.70581         130.969         16.6214 
        1.71193         129.986         16.4809 
        1.71806         128.921         16.3417 
        1.72421         128.637         16.2039 
        1.73035         127.899         16.0679 
        1.73649         126.897         15.9334 
        1.74262         126.655         15.8006 
        1.74876         125.733         15.6693 
        1.75489         125.243         15.5397 
        1.76101         124.328         15.4116 
        1.76715         123.464         15.2848 
        1.77329          122.99         15.1593 
        1.77943         122.078         15.0351 
        1.78557         121.794         14.9125 
        1.79171         121.074         14.7913 
        1.79785         120.036         14.6714 
        1.80399         119.657         14.5529 
        1.81012         118.655         14.4358 
        1.81625         118.379         14.3201 
        1.82239         117.725         14.2055 
        1.82853         117.061         14.0922 
        1.83466         116.188         13.9802 
        1.84078         115.889         13.8696 
        1.84692         115.541         13.7601 
        1.85306         114.596         13.6515 
         1.8592         114.115         13.5444 
        1.86533         113.201         13.4384 
        1.87147         112.962         13.3335 
        1.87761         111.966         13.2296 
        1.88375           111.3          13.127 
        1.88988         110.641         13.0256 
        1.89601         110.496         12.9252 
        1.90215         109.997         12.8258 
        1.90829         108.919         12.7275 
        1.91442         108.206         12.6302 
        1.92056         107.808          12.534 
         1.9267         107.232         12.4388 
        1.93284         106.594         12.3444 
        1.93897         106.168         12.2513 
        1.94509         105.526         12.1593 
        1.95123         105.009          12.068 
        1.95737         104.621         11.9776 
        1.96349         104.017         11.8884 
        1.96964         103.316         11.7998 
        1.97578         102.747         11.7121 
        1.98192         102.455         11.6254 
        1.98805         101.687         11.5397 
        1.99419          101.11         11.4548 
        2.00033         100.563         11.3707 
        2.00647          100.12         11.2875 
         2.0126         99.5448         11.2052 
        2.01874         99.3743         11.1237 
        2.02488         98.4047         11.0429 
        2.03101         98.0344         10.9631 
        2.03714         97.4834         10.8841 
        2.04328         97.1974         10.8058 
        2.04941         96.7049         10.7284 
        2.05554         96.0455         10.6518 
        2.06167         95.2981         10.5758 
        2.06781         94.8242         10.5006 
        2.07396          94.425          10.426 
        2.08009         93.6606         10.3522 
        2.08622         93.5174         10.2793 
        2.09237         92.9565         10.2069 
        2.09851         92.3379         10.1352 
        2.10464         92.1482         10.0643 
        2.11077         91.5289         9.99416 
        2.11691          91.219         9.92456 
        2.12305         90.6197         9.85562 
        2.12918         90.1177          9.7875 
        2.13531         89.6005         9.72003 
        2.14145         89.1307         9.65304 
         2.1476         88.8119          9.5866 
        2.15372         88.1529         9.52113 
        2.15985          87.737          9.4562 
        2.16599         87.2066          9.3917 
        2.17213          86.824         9.32787 
        2.17827         86.1998         9.26466 
         2.1844         85.9366         9.20209 
        2.19054          85.433         9.14007 
        2.19666         85.0618         9.07872 
         2.2028         84.6732         9.01788 
        2.20893         84.2129         8.95757 
        2.21508         83.7135         8.89775 
        2.22122         83.1887         8.83846 
        2.22736         82.9493         8.77983 
        2.23349         82.3521         8.72175 
        2.23962         81.9974         8.66417 
        2.24577         81.6242         8.60706 
         2.2519         81.1505         8.55054 
        2.25802         80.6975         8.49463 
        2.26417         80.2485         8.43907 
        2.27031         79.8047         8.38395 
        2.27644         79.4665         8.32949 
        2.28257         79.0852         8.27551 
        2.28872         78.6475         8.22192 
        2.29486         78.4586         8.16881 
        2.30099         77.7318         8.11629 
        2.30712         77.5272          8.0642 
        2.31326         77.1596         8.01249 
         2.3194         76.6578         7.96126 
        2.32553         76.2382         7.91057 
        2.33166         75.8057         7.86034 
         2.3378         75.6356         7.81048 
        2.34394         75.2691         7.76105 
        2.35007         74.6881         7.71211 
        2.35619          74.454         7.66365 
        2.36233          74.008          7.6155 
        2.36848         73.5828         7.56766 
        2.37462         73.2721         7.52034 
        2.38075         72.8419         7.47347 
        2.38689         72.5073         7.42696 
        2.39303         72.2082         7.38086 
        2.39916          71.731         7.33519 
        2.40529         71.5232         7.28992 
        2.41143         71.1231           7.245 
        2.41757         70.6601         7.20045 
         2.4237         70.2814         7.15634 
        2.42983         69.9535         7.11262 
        2.43598         69.6965         7.06915 
        2.44211           69.26         7.02611 
        2.44823         69.0431         6.98353 
        2.45437         68.6298         6.94119 
        2.46052         68.2595         6.89916 
        2.46665         67.7398         6.85756 
        2.47279         67.5499         6.81632 
        2.47892         67.2592         6.77539 
        2.48507          66.879         6.73476 
         2.4912         66.5087         6.69454 
