# k  (h/Mpc)    Pcb(k)  (Mpc/h)^3    Pcb_linear(k)  (Mpc/h)^3
     0.00783031         20593.3         20915.1 
       0.013688         24830.5         24564.1 
       0.019231         23504.6         23417.1 
      0.0249154         19717.8         20142.5 
      0.0312784         15920.8         16053.7 
      0.0375637         12875.8         12786.5 
      0.0433917         10639.2         10751.9 
      0.0492413         9531.37         9531.71 
      0.0555754         8555.46         8788.13 
      0.0619321          8303.6          8250.3 
       0.067871         7484.31         7667.65 
      0.0738098         6762.78         6906.52 
      0.0800417         5824.26         5973.32 
      0.0862327         5047.84         5060.34 
      0.0921407         4462.79         4333.52 
      0.0982031          3908.3         3800.13 
       0.104506         3682.78         3466.43 
       0.110769         3462.48         3294.73 
       0.116806         3326.34         3196.43 
       0.122832         3193.34         3086.88 
       0.129052         2945.51         2910.98 
       0.135211         2733.88         2667.23 
       0.141259         2553.89         2391.48 
       0.147318         2345.91         2124.48 
       0.153489         2115.02         1900.36 
       0.159709         1988.17         1741.18 
       0.165845         1918.46         1645.53 
       0.171974         1837.16          1591.4 
       0.178125         1761.41         1552.41 
       0.184229         1687.45         1505.24 
        0.19034          1591.2         1435.86 
       0.196428         1540.66         1344.22 
       0.202534         1466.43         1240.12 
       0.208729          1381.4         1137.17 
       0.214876         1316.41         1050.37 
       0.220989         1264.42         985.334 
       0.227147          1215.6         940.402 
        0.23329         1168.78         910.057 
       0.239377          1149.3         885.862 
       0.245482         1076.52         859.609 
       0.251667         1068.91         826.138 
       0.257832         1021.91         785.354 
       0.263955         984.366         740.479 
       0.270079         945.016         695.993 
        0.27624          931.19         656.017 
       0.282372          893.62         623.399 
        0.28843         882.228         598.454 
       0.294538         836.375         578.824 
       0.300721         831.026         561.931 
        0.30691         798.086         545.137 
       0.313033         781.151         526.876 
       0.319153         763.094         506.377 
       0.325316         739.677         484.299 
        0.33145         719.983         462.254 
       0.337538         705.295         441.856 
       0.343633         688.448         423.813 
       0.349808         662.547         408.336 
       0.355968          657.65         395.212 
       0.362074         650.218         383.668 
       0.368217          629.52         372.615 
       0.374374         603.669         361.298 
       0.380519         603.556         349.534 
       0.386598         585.063         337.481 
       0.392688         581.857         325.385 
        0.39888         564.622         313.604 
       0.405048         555.867         302.729 
       0.411186          547.83         292.952 
       0.417313         536.526         284.212 
       0.423458         524.242         276.167 
       0.429607         518.837         268.548 
       0.435692         505.489         261.196 
       0.441815         500.057         253.785 
       0.447964         489.951          246.29 
       0.454126         483.471         238.865 
       0.460267         471.875          231.68 
       0.466387         465.909         224.841 
        0.47254         461.222         218.389 
       0.478662         456.961          212.43 
       0.484765         441.001         206.863 
       0.490885         437.341         201.544 
       0.497035         428.886         196.378 
       0.503198         424.905         191.333 
       0.509342         421.968         186.389 
       0.515458         417.565         181.539 
       0.521598         405.736         176.781 
       0.527764         400.792         172.175 
       0.533884         397.205         167.812 
           0.54         391.983         163.663 
       0.546137         389.493         159.683 
       0.552299         383.002         155.848 
       0.558452          380.38          152.16 
       0.564573         375.636         148.609 
       0.570708         369.276         145.148 
       0.576825         361.352         141.778 
       0.582926         360.133         138.494 
       0.589034         356.261         135.295 
       0.595184         353.821         132.178 
       0.601379         346.939         129.156 
       0.607522         342.999         126.277 
       0.613639         341.052         123.514 
       0.619772         335.242         120.835 
       0.625918         333.334         118.229 
       0.632068         327.665          115.69 
       0.638161         326.042          113.24 
         0.6443         321.407         110.838 
       0.650464         318.662         108.495 
       0.656582         314.593         106.238 
       0.662703         314.572         104.049 
       0.668861         309.819         101.913 
       0.675024         306.486         99.8393 
       0.681124         303.642         97.8455 
       0.687237         300.902         95.9027 
       0.693381         296.344          94.003 
       0.699536         293.036         92.1504 
       0.705665         290.827          90.355 
       0.711789         289.876         88.6089 
       0.717957         287.361         86.8972 
        0.72409         285.295         85.2409 
       0.730186         281.178         83.6387 
       0.736317         278.915         82.0703 
       0.742472         276.495         80.5373 
       0.748622         274.371         79.0457 
        0.75476          270.95         77.5957 
       0.760888          268.27         76.1846 
       0.767043         267.935         74.8031 
       0.773185          265.42         73.4588 
       0.779291         261.299         72.1549 
       0.785407         260.756         70.8808 
       0.791564         257.802         69.6295 
       0.797719          255.41         68.4091 
       0.803834          252.63         67.2259 
       0.809972         252.147         66.0667 
       0.816124         250.853         64.9326 
       0.822261         248.814         63.8285 
       0.828378         246.202         62.7538 
       0.834502         243.901         61.7032 
       0.840667         242.283         60.6702 
       0.846816         240.875         59.6641 
       0.852925         239.454         58.6874 
       0.859047         237.365         57.7307 
       0.865192         234.378         56.7925 
       0.871341         232.447         55.8747 
       0.877463         232.353         54.9814 
       0.883569         230.464         54.1102 
       0.889708         227.775         53.2535 
       0.895864         227.117         52.4133 
       0.902008         224.854         51.5931 
       0.908149         223.119         50.7912 
       0.914301         220.899         50.0051 
       0.920448         219.749         49.2365 
       0.926574         217.399         48.4868 
       0.932687          217.49         47.7545 
       0.938823         214.766         47.0347 
       0.944975         214.259         46.3283 
       0.951105         212.649          45.639 
       0.957225         211.504         44.9649 
       0.963368         208.317         44.3023 
       0.969511         207.686         43.6532 
       0.975621         205.949         43.0206 
       0.981748         205.207          42.399 
       0.987916         203.869         41.7858 
        0.99406         202.066         41.1872 
        1.00019         200.953         40.6015 
        1.00632          199.81         40.0278 
        1.01246          198.18         39.4644 
        1.01859           198.2         38.9129 
        1.02471         195.142         38.3726 
        1.03085         194.127         37.8408 
        1.03698         192.923         37.3202 
        1.04314         191.332         36.8074 
        1.04929          190.49         36.3054 
        1.05541         190.032         35.8149 
        1.06154         187.693         35.3323 
        1.06769         187.407         34.8579 
        1.07382         185.713         34.3939 
        1.07993         184.561         33.9394 
        1.08607         184.328         33.4913 
        1.09222         182.468         33.0509 
        1.09836         181.157          32.619 
        1.10449         179.607         32.1954 
        1.11063         178.434         31.7789 
        1.11677         177.689         31.3699 
         1.1229         176.002          30.969 
        1.12903         175.555         30.5747 
        1.13518         174.423          30.187 
        1.14131         173.014         29.8063 
        1.14745         173.066         29.4323 
        1.15359         171.238         29.0648 
        1.15973         169.819         28.7034 
        1.16584         169.163         28.3499 
        1.17197         168.873         28.0018 
        1.17811         166.715         27.6585 
        1.18424         166.181          27.322 
        1.19038         165.647         26.9901 
        1.19652         164.056          26.664 
        1.20267         163.758         26.3432 
        1.20881         162.431         26.0278 
        1.21495         161.314         25.7181 
        1.22108         160.375         25.4135 
         1.2272         159.251         25.1146 
        1.23334         159.154         24.8198 
        1.23949         157.232         24.5291 
        1.24562         156.626         24.2438 
        1.25174         155.998         23.9635 
        1.25789         155.091         23.6869 
        1.26402         153.368         23.4151 
        1.27014         152.565         23.1483 
        1.27628         151.887         22.8848 
        1.28244         151.748          22.625 
        1.28858         150.252         22.3695 
        1.29471         149.418         22.1186 
        1.30084         148.705         21.8718 
        1.30697         147.223         21.6285 
        1.31312         146.512         21.3885 
        1.31925         145.596         21.1529 
        1.32537         145.447         20.9211 
        1.33151         144.181          20.692 
        1.33765         143.105         20.4664 
        1.34378         142.633         20.2447 
        1.34992         141.989         20.0261 
        1.35606          141.67         19.8103 
         1.3622         140.108         19.5981 
        1.36833         139.351         19.3895 
        1.37445         138.845         19.1841 
        1.38059         137.669         18.9811 
        1.38675         137.201         18.7805 
        1.39288         136.345         18.5836 
        1.39901         135.973         18.3896 
        1.40515          134.63          18.198 
         1.4113         134.292         18.0092 
        1.41742         133.006         17.8238 
        1.42355         132.696         17.6407 
         1.4297         131.719         17.4596 
        1.43585         131.005         17.2811 
        1.44198          130.62         17.1058 
        1.44809         129.895         16.9333 
        1.45423         129.412         16.7625 
        1.46036         128.187         16.5944 
        1.46649         127.471         16.4285 
        1.47263         126.749         16.2648 
        1.47877          125.82         16.1034 
        1.48491         124.958          15.944 
        1.49104         124.859          15.787 
        1.49718         123.786         15.6321 
        1.50333         123.051          15.479 
        1.50947          122.43         15.3283 
         1.5156         121.988         15.1798 
        1.52172         121.312         15.0333 
        1.52787          120.33         14.8884 
          1.534         119.964         14.7456 
        1.54013         119.406         14.6049 
        1.54627         118.746         14.4657 
        1.55241         117.937         14.3284 
        1.55855         117.299          14.193 
        1.56467         116.467         14.0598 
         1.5708         115.712         13.9279 
        1.57695         115.566         13.7975 
        1.58308         115.021          13.669 
        1.58922         114.379         13.5422 
        1.59535         113.626          13.417 
         1.6015         113.339         13.2932 
        1.60764         112.688          13.171 
        1.61376         111.887         13.0507 
        1.61989         111.179         12.9318 
        1.62604         110.492         12.8142 
        1.63218         110.371         12.6981 
        1.63831         109.589         12.5836 
        1.64444         108.917         12.4706 
        1.65059         108.235         12.3587 
        1.65673         107.768         12.2483 
        1.66285         107.379         12.1395 
        1.66898         106.668         12.0321 
        1.67512         105.869         11.9257 
        1.68127          105.55         11.8205 
         1.6874         104.997         11.7168 
        1.69353         104.617         11.6145 
        1.69967         103.989         11.5131 
        1.70581         103.119          11.413 
        1.71193         102.629         11.3144 
        1.71806         102.422         11.2168 
        1.72421         101.823         11.1202 
        1.73035         101.447         11.0248 
        1.73649         100.773         10.9306 
        1.74262         100.275         10.8375 
        1.74876         99.8442         10.7455 
        1.75489         99.0634         10.6547 
        1.76101         98.4724          10.565 
        1.76715         98.1915         10.4763 
        1.77329         97.6307         10.3884 
        1.77943         97.1238         10.3015 
        1.78557          96.868         10.2158 
        1.79171         95.8912          10.131 
        1.79785         95.5099         10.0471 
        1.80399         95.0139         9.96422 
        1.81012         94.5347         9.88239 
        1.81625          94.192         9.80151 
        1.82239         93.5925         9.72143 
        1.82853         93.0201         9.64228 
        1.83466         92.6562         9.56409 
        1.84078         92.2192         9.48685 
        1.84692           91.49         9.41035 
        1.85306         91.2668          9.3346 
         1.8592         90.7312          9.2598 
        1.86533         90.2449         9.18586 
        1.87147         89.6592         9.11265 
        1.87761         89.1252         9.04021 
        1.88375         88.8593         8.96864 
        1.88988         88.2657         8.89793 
        1.89601         87.7658         8.82794 
        1.90215         87.2975         8.75865 
        1.90829         87.0033         8.69014 
        1.91442         86.6063         8.62235 
        1.92056         85.9723         8.55535 
         1.9267         85.7115           8.489 
        1.93284         85.2073         8.42331 
        1.93897         84.6619         8.35844 
        1.94509         84.4354          8.2944 
        1.95123         83.9287         8.23087 
        1.95737          83.429         8.16796 
        1.96349         83.0259         8.10587 
        1.96964            82.4         8.04425 
        1.97578         82.0783         7.98324 
        1.98192         81.9272         7.92299 
        1.98805         81.4295         7.86336 
        1.99419         80.9375         7.80434 
        2.00033         80.5946          7.7459 
        2.00647         80.2085         7.68807 
         2.0126         79.7703         7.63093 
        2.01874         79.2832         7.57429 
        2.02488         79.0623         7.51818 
        2.03101         78.4964         7.46274 
        2.03714         77.9907         7.40791 
        2.04328           77.69         7.35357 
        2.04941         77.3123         7.29982 
        2.05554         76.9205         7.24665 
        2.06167         76.5507         7.19393 
        2.06781         75.9911         7.14174 
        2.07396         75.7594         7.08999 
        2.08009         75.4879         7.03884 
        2.08622         75.0056         6.98825 
        2.09237         74.7282         6.93807 
        2.09851         74.3147         6.88837 
        2.10464         73.9663         6.83924 
        2.11077         73.4759         6.79066 
        2.11691         73.2725         6.74243 
        2.12305         72.8258         6.69468 
        2.12918         72.4332          6.6475 
        2.13531         72.0028         6.60078 
        2.14145         71.7678         6.55439 
         2.1476         71.2905          6.5084 
        2.15372         70.9948         6.46309 
        2.15985         70.5947         6.41816 
        2.16599         70.2432         6.37353 
        2.17213         69.8709         6.32937 
        2.17827         69.4722         6.28564 
         2.1844         69.2089         6.24237 
        2.19054         68.8489         6.19949 
        2.19666         68.5777         6.15707 
         2.2028         68.3155         6.11501 
        2.20893         67.8417         6.07333 
        2.21508         67.6197         6.03199 
        2.22122         67.1568         5.99102 
        2.22736         66.8761         5.95051 
        2.23349         66.5402         5.91039 
        2.23962           66.25         5.87062 
        2.24577         65.9967         5.83119 
         2.2519           65.63         5.79217 
        2.25802         65.3014         5.75357 
        2.26417         64.9962         5.71521 
        2.27031         64.6632         5.67717 
        2.27644         64.2022         5.63959 
        2.28257         64.0005         5.60235 
        2.28872         63.7594         5.56538 
        2.29486         63.2932         5.52875 
        2.30099         62.8147         5.49253 
        2.30712          62.722         5.45661 
        2.31326         62.3454         5.42096 
         2.3194         62.0902         5.38565 
        2.32553         61.8584         5.35071 
        2.33166         61.5111         5.31609 
         2.3378         61.1898         5.28174 
        2.34394         60.8419         5.24768 
        2.35007         60.5739         5.21396 
        2.35619         60.2644         5.18059 
        2.36233         59.9874         5.14743 
        2.36848         59.6687         5.11449 
        2.37462         59.4309          5.0819 
        2.38075         59.1105         5.04964 
        2.38689         58.8548         5.01763 
        2.39303         58.5171          4.9859 
        2.39916         58.1644         4.95448 
        2.40529         58.0935         4.92333 
        2.41143         57.5249         4.89243 
        2.41757         57.4372         4.86178 
         2.4237         57.1246         4.83145 
        2.42983         56.8773         4.80138 
        2.43598         56.5556         4.77149 
        2.44211         56.2497          4.7419 
        2.44823         56.0117         4.71263 
        2.45437         55.7582         4.68353 
        2.46052         55.5664         4.65465 
        2.46665          55.275         4.62607 
        2.47279          54.906         4.59773 
        2.47892         54.7107         4.56962 
        2.48507         54.3853         4.54171 
         2.4912         54.0953         4.51409 
