# k  (h/Mpc)    P(k)  (Mpc/h)^3    P_linear(k)  (Mpc/h)^3
     0.00783031         14921.5         15157.6 
       0.013688           17922         17781.2 
       0.019231         16993.1         16941.9 
      0.0249154         14310.9         14568.2 
      0.0312784         11540.5         11608.5 
      0.0375637          9308.5         9244.77 
      0.0433917         7712.16         7773.05 
      0.0492413         6896.21         6890.48 
      0.0555754         6217.97         6352.62 
      0.0619321         6008.56         5963.61 
       0.067871         5440.01          5542.3 
      0.0738098         4910.38         4992.03 
      0.0800417         4229.43         4317.43 
      0.0862327         3650.76         3657.48 
      0.0921407         3206.22         3132.12 
      0.0982031         2802.71         2746.57 
       0.104506         2631.11         2505.36 
       0.110769         2477.53         2381.24 
       0.116806         2377.84         2310.18 
       0.122832         2291.08            2231 
       0.129052         2118.68         2103.86 
       0.135211         1962.08         1927.68 
       0.141259         1819.56         1728.38 
       0.147318         1660.02         1535.41 
       0.153489         1491.98         1373.43 
       0.159709         1397.78         1258.38 
       0.165845         1343.81         1189.25 
       0.171974         1285.21         1150.12 
       0.178125         1237.65         1121.95 
       0.184229         1191.18         1087.86 
        0.19034         1115.45         1037.72 
       0.196428          1079.4         971.485 
       0.202534         1026.35         896.243 
       0.208729         960.263         821.842 
       0.214876         906.028         759.113 
       0.220989         869.126         712.108 
       0.227147         831.969         679.633 
        0.23329         800.793         657.702 
       0.239377         786.254         640.219 
       0.245482         734.891         621.241 
       0.251667         728.296          597.05 
       0.257832         697.223         567.576 
       0.263955         670.152         535.145 
       0.270079         640.755         502.995 
        0.27624         630.033         474.103 
       0.282372         604.582         450.525 
        0.28843         590.758         432.502 
       0.294538         560.608         418.316 
       0.300721         557.336         406.109 
        0.30691         532.832         393.969 
       0.313033         521.595         380.772 
       0.319153         505.727         365.956 
       0.325316         490.683         350.001 
        0.33145          475.21         334.068 
       0.337538         466.695         319.327 
       0.343633         452.194         306.288 
       0.349808         435.544         295.104 
       0.355968         431.508         285.617 
       0.362074         424.471         277.276 
       0.368217         412.097         269.288 
       0.374374         394.006         261.108 
       0.380519         392.039         252.609 
       0.386598         381.124         243.895 
       0.392688         377.768         235.154 
        0.39888         367.029          226.64 
       0.405048         358.756         218.781 
       0.411186         352.672         211.715 
       0.417313         345.514         205.398 
       0.423458         337.857         199.584 
       0.429607         332.517         194.078 
       0.435692         323.605         188.765 
       0.441815         320.352         183.408 
       0.447964         313.409         177.992 
       0.454126         305.346         172.626 
       0.460267         299.856         167.433 
       0.466387         296.101         162.492 
        0.47254         290.126         157.827 
       0.478662         289.239         153.522 
       0.484765         278.638         149.498 
       0.490885         275.635         145.655 
       0.497035         270.737         141.921 
       0.503198         266.191         138.274 
       0.509342          264.09         134.702 
       0.515458         260.419         131.196 
       0.521598         254.003         127.759 
       0.527764         250.725         124.429 
       0.533884         247.987         121.277 
           0.54         244.236         118.278 
       0.546137          242.81         115.401 
       0.552299         237.658          112.63 
       0.558452         236.239         109.965 
       0.564573         232.688         107.399 
       0.570708         227.664         104.897 
       0.576825         224.106         102.462 
       0.582926         221.583         100.088 
       0.589034         219.327         97.7768 
       0.595184         217.173         95.5242 
       0.601379         213.857         93.3399 
       0.607522         210.676         91.2592 
       0.613639          209.11         89.2625 
       0.619772         204.767         87.3265 
       0.625918         203.604         85.4433 
       0.632068         200.276         83.6084 
       0.638161         199.206         81.8375 
         0.6443         196.042         80.1015 
       0.650464         194.046         78.4083 
       0.656582         191.672         76.7772 
       0.662703         191.125         75.1953 
       0.668861         187.763          73.652 
       0.675024         185.176         72.1529 
       0.681124         184.063          70.712 
       0.687237         181.719          69.308 
       0.693381         178.819         67.9351 
       0.699536         177.485         66.5963 
       0.705665         175.879         65.2988 
       0.711789         173.977         64.0369 
       0.717957         173.406         62.7998 
        0.72409         171.121         61.6028 
       0.730186         168.877          60.445 
       0.736317         167.047         59.3115 
       0.742472          165.89         58.2036 
       0.748622         164.396         57.1256 
        0.75476         162.874         56.0777 
       0.760888         161.007         55.0579 
       0.767043         160.562         54.0595 
       0.773185         158.992          53.088 
       0.779291         155.892         52.1457 
       0.785407         155.485         51.2249 
       0.791564         154.129         50.3206 
       0.797719         151.542         49.4386 
       0.803834         150.825         48.5835 
       0.809972         149.969         47.7458 
       0.816124         149.099         46.9262 
       0.822261         147.744         46.1283 
       0.828378         146.253         45.3516 
       0.834502          145.74         44.5923 
       0.840667         143.634         43.8458 
       0.846816         142.249         43.1187 
       0.852925         141.665         42.4128 
       0.859047         140.292         41.7215 
       0.865192         138.728         41.0434 
       0.871341         137.625         40.3801 
       0.877463         136.451         39.7346 
       0.883569         136.203         39.1049 
       0.889708         134.661         38.4858 
       0.895864         133.213         37.8786 
       0.902008         132.395         37.2859 
       0.908149         131.943         36.7063 
       0.914301         130.293         36.1382 
       0.920448         129.398         35.5827 
       0.926574         128.455          35.041 
       0.932687         128.405         34.5117 
       0.938823         126.507         33.9915 
       0.944975         125.535          33.481 
       0.951105         124.855         32.9828 
       0.957225         123.816         32.4957 
       0.963368         122.118         32.0169 
       0.969511         121.943         31.5477 
       0.975621         120.975         31.0906 
       0.981748          120.71         30.6413 
       0.987916         119.393         30.1982 
        0.99406         118.404         29.7656 
        1.00019         118.239         29.3423 
        1.00632           116.9         28.9277 
        1.01246          116.32         28.5206 
        1.01859         115.698         28.1219 
        1.02471         114.301         27.7315 
        1.03085         113.331         27.3472 
        1.03698         113.037          26.971 
        1.04314         111.786         26.6003 
        1.04929         111.397         26.2375 
        1.05541         110.654         25.8831 
        1.06154         109.997         25.5343 
        1.06769         109.709         25.1915 
        1.07382         108.601         24.8561 
        1.07993         107.901         24.5276 
        1.08607         107.133         24.2038 
        1.09222         106.877         23.8856 
        1.09836         105.931         23.5734 
        1.10449         104.912         23.2673 
        1.11063         104.283         22.9663 
        1.11677         103.785         22.6707 
         1.1229         103.009          22.381 
        1.12903          102.52          22.096 
        1.13518         102.188         21.8158 
        1.14131         101.194         21.5407 
        1.14745           100.8         21.2705 
        1.15359         100.096         21.0049 
        1.15973         99.6161         20.7437 
        1.16584         98.6043         20.4882 
        1.17197         98.0988         20.2366 
        1.17811          97.688         19.9885 
        1.18424         97.1702         19.7453 
        1.19038         96.8645         19.5055 
        1.19652         96.0923         19.2698 
        1.20267         95.3068          19.038 
        1.20881         94.8462           18.81 
        1.21495         94.1026         18.5862 
        1.22108         93.7853         18.3661 
         1.2272         92.8717         18.1501 
        1.23334         92.5058          17.937 
        1.23949         92.0034         17.7269 
        1.24562         91.3893         17.5208 
        1.25174         90.9691         17.3182 
        1.25789         90.4908         17.1183 
        1.26402         89.4738         16.9218 
        1.27014         89.2732          16.729 
        1.27628         88.9204         16.5386 
        1.28244         88.4501         16.3508 
        1.28858           88.13         16.1662 
        1.29471         87.3084         15.9849 
        1.30084         87.0893         15.8066 
        1.30697         86.2886         15.6307 
        1.31312         85.8809         15.4572 
        1.31925         85.3027          15.287 
        1.32537         84.9406         15.1195 
        1.33151         84.2373         14.9539 
        1.33765         83.9094         14.7909 
        1.34378         83.5398         14.6306 
        1.34992          83.173         14.4727 
        1.35606         82.6394         14.3167 
         1.3622         81.9589         14.1634 
        1.36833         81.7405         14.0126 
        1.37445         81.2436         13.8642 
        1.38059         80.5873         13.7174 
        1.38675         80.1499         13.5724 
        1.39288         80.0335         13.4302 
        1.39901         79.4921           13.29 
        1.40515         78.9162         13.1515 
         1.4113         78.5755         13.0151 
        1.41742         78.2512         12.8811 
        1.42355          77.769         12.7487 
         1.4297           77.53         12.6178 
        1.43585         76.8905         12.4889 
        1.44198         76.4267         12.3622 
        1.44809         76.1597         12.2375 
        1.45423         75.8742         12.1141 
        1.46036          75.452         11.9926 
        1.46649         74.8779         11.8727 
        1.47263         74.4183         11.7544 
        1.47877         74.2801         11.6378 
        1.48491         73.6466         11.5226 
        1.49104         73.5038         11.4091 
        1.49718          73.058         11.2972 
        1.50333         72.7457         11.1865 
        1.50947         72.2918         11.0776 
         1.5156         71.9661         10.9703 
        1.52172          71.525         10.8644 
        1.52787          71.231         10.7597 
          1.534           70.72         10.6565 
        1.54013         70.3542         10.5548 
        1.54627         70.1768         10.4542 
        1.55241         69.6236          10.355 
        1.55855          69.394         10.2571 
        1.56467         69.1265         10.1608 
         1.5708         68.6996         10.0655 
        1.57695         68.6146         9.97128 
        1.58308          67.993         9.87847 
        1.58922          67.731         9.78679 
        1.59535         67.5127          9.6963 
         1.6015         66.9388         9.60684 
        1.60764         66.7357         9.51855 
        1.61376         66.4417         9.43162 
        1.61989         66.0643         9.34571 
        1.62604         65.7835         9.26067 
        1.63218         65.5524         9.17676 
        1.63831          64.815         9.09408 
        1.64444         64.6739         9.01238 
        1.65059         64.4632          8.9315 
        1.65673         63.9614         8.85171 
        1.66285         63.7336         8.77311 
        1.66898         63.5198         8.69544 
        1.67512         62.9766         8.61857 
        1.68127         62.8722         8.54256 
         1.6874         62.4503         8.46763 
        1.69353         62.1548         8.39366 
        1.69967         61.8728         8.32039 
        1.70581         61.6608         8.24803 
        1.71193         61.4038         8.17681 
        1.71806         60.9676         8.10628 
        1.72421          60.711         8.03645 
        1.73035         60.4273         7.96752 
        1.73649         60.1747         7.89942 
        1.74262         59.8266         7.83217 
        1.74876         59.5751         7.76566 
        1.75489         59.2409         7.70007 
        1.76101         59.0639         7.63525 
        1.76715         58.5901         7.57109 
        1.77329         58.3872          7.5076 
        1.77943         58.0622          7.4448 
        1.78557         57.8927         7.38282 
        1.79171         57.5196         7.32154 
        1.79785         57.1529         7.26094 
        1.80399         57.0818         7.20104 
        1.81012         56.7866          7.1419 
        1.81625         56.4277         7.08346 
        1.82239         56.1889         7.02558 
        1.82853         55.9226         6.96838 
        1.83466          55.681         6.91187 
        1.84078         55.3315         6.85605 
        1.84692         55.0899         6.80076 
        1.85306          54.824         6.74602 
         1.8592         54.6196         6.69196 
        1.86533         54.3184         6.63853 
        1.87147         53.9347         6.58562 
        1.87761          53.843         6.53327 
        1.88375         53.5536         6.48155 
        1.88988         53.2319         6.43044 
        1.89601         53.0382         6.37986 
        1.90215         52.6771         6.32979 
        1.90829         52.5072         6.28027 
        1.91442         52.3194         6.23129 
        1.92056         52.0164         6.18287 
         1.9267          51.795         6.13491 
        1.93284         51.4496         6.08744 
        1.93897         51.3114         6.04056 
        1.94509         51.1101         5.99428 
        1.95123         50.8073         5.94837 
        1.95737          50.549          5.9029 
        1.96349          50.282         5.85803 
        1.96964         50.0826          5.8135 
        1.97578         49.8208         5.76941 
        1.98192          49.728         5.72587 
        1.98805          49.424         5.68277 
        1.99419         49.1196         5.64012 
        2.00033         48.9635         5.59788 
        2.00647         48.7809         5.55609 
         2.0126         48.3661          5.5148 
        2.01874          48.225         5.47387 
        2.02488         48.0613         5.43331 
        2.03101         47.8218         5.39324 
        2.03714         47.5776         5.35362 
        2.04328         47.3661         5.31435 
        2.04941         47.1279         5.27551 
        2.05554         46.9584         5.23708 
        2.06167         46.7632         5.19898 
        2.06781         46.4496         5.16126 
        2.07396         46.2838         5.12386 
        2.08009         46.1316          5.0869 
        2.08622         45.7757         5.05034 
        2.09237         45.6366         5.01407 
        2.09851         45.5207         4.97816 
        2.10464         45.2342         4.94265 
        2.11077         44.9866         4.90754 
        2.11691          44.742         4.87269 
        2.12305         44.6212         4.83818 
        2.12918         44.4836         4.80408 
        2.13531         44.1394         4.77032 
        2.14145         43.9243          4.7368 
         2.1476         43.7341         4.70356 
        2.15372         43.5349         4.67081 
        2.15985         43.4131         4.63834 
        2.16599         43.1603         4.60608 
        2.17213         43.0372         4.57417 
        2.17827         42.7802         4.54257 
         2.1844         42.5404          4.5113 
        2.19054         42.3417         4.48031 
        2.19666         42.1203         4.44965 
         2.2028         42.0527         4.41926 
        2.20893         41.8202         4.38913 
        2.21508         41.6421         4.35926 
        2.22122         41.4935         4.32965 
        2.22736         41.2587         4.30038 
        2.23349         41.0815         4.27138 
        2.23962         40.8184         4.24264 
        2.24577         40.6248         4.21414 
         2.2519         40.4463         4.18594 
        2.25802          40.375         4.15805 
        2.26417         40.1147         4.13033 
        2.27031         39.9506         4.10284 
        2.27644         39.7813         4.07568 
        2.28257         39.5381         4.04877 
        2.28872         39.3152         4.02205 
        2.29486         39.2388         3.99558 
        2.30099         39.1143          3.9694 
        2.30712         38.8856         3.94344 
        2.31326         38.6841         3.91767 
         2.3194         38.4546         3.89215 
        2.32553         38.2973          3.8669 
        2.33166         38.1193         3.84189 
         2.3378         37.9867         3.81706 
        2.34394         37.8511         3.79244 
        2.35007         37.6523         3.76808 
        2.35619         37.4202         3.74396 
        2.36233         37.2854         3.71999 
        2.36848         37.2041         3.69619 
        2.37462         36.9264         3.67264 
        2.38075         36.8536         3.64932 
        2.38689         36.6884         3.62619 
        2.39303         36.4435         3.60326 
        2.39916         36.2649         3.58055 
        2.40529         36.1808         3.55804 
        2.41143         36.0227         3.53571 
        2.41757         35.8317         3.51356 
         2.4237         35.6986         3.49164 
        2.42983         35.5325         3.46991 
        2.43598         35.3854         3.44831 
        2.44211         35.2316         3.42693 
        2.44823         35.0797         3.40577 
        2.45437         34.8642         3.38474 
        2.46052         34.7169         3.36387 
        2.46665         34.5719         3.34321 
        2.47279         34.3833         3.32274 
        2.47892         34.3083         3.30242 
        2.48507         34.1496         3.28225 
         2.4912         34.0125         3.26229 
