# k  (h/Mpc)    Pcb(k)  (Mpc/h)^3    Pcb_linear(k)  (Mpc/h)^3
     0.00783031         700.348         706.219 
       0.013688         955.298         956.743 
       0.019231         1046.72         1047.32 
      0.0249154         1038.84          1044.9 
      0.0312784         977.551         979.678 
      0.0375637         892.963         892.221 
      0.0433917         811.632         814.112 
      0.0492413         748.449         748.668 
      0.0555754         690.416         693.919 
      0.0619321         653.046         651.245 
       0.067871         613.666          616.29 
      0.0738098         577.885         580.975 
      0.0800417         536.107         540.676 
      0.0862327         494.767         497.554 
      0.0921407         454.275         455.902 
      0.0982031         413.459         415.835 
       0.104506         380.399         379.864 
       0.110769          351.59          351.21 
       0.116806         328.496         329.963 
       0.122832         313.457         313.492 
       0.129052         297.627         299.288 
       0.135211         283.936         285.899 
       0.141259         271.222         271.979 
       0.147318         257.038          256.77 
       0.153489         239.772         240.364 
       0.159709         223.837          223.89 
       0.165845         210.709         208.799 
       0.171974         196.166         195.699 
       0.178125         185.683         184.859 
       0.184229         177.694         176.216 
        0.19034         168.928          169.13 
       0.196428          163.88         162.924 
       0.202534         158.956         156.889 
       0.208729         151.828         150.493 
       0.214876         144.195         143.716 
       0.220989         138.951          136.68 
       0.227147          130.39         129.612 
        0.23329         124.051         122.945 
       0.239377         118.739         116.998 
       0.245482          112.81         111.821 
       0.251667         109.523         107.352 
       0.257832         105.542         103.509 
       0.263955         102.075         100.064 
       0.270079         98.8823         96.7644 
        0.27624         96.3236         93.4249 
       0.282372         92.7621         90.0075 
        0.28843         88.9411         86.5624 
       0.294538         85.5852         83.1025 
       0.300721         82.9568         79.7325 
        0.30691         79.2965         76.5895 
       0.313033         76.6607         73.7682 
       0.319153         73.2576          71.236 
       0.325316         72.0769         68.9384 
        0.33145         69.7075         66.8308 
       0.337538         67.8803         64.8435 
       0.343633         65.7617         62.8952 
       0.349808          63.969         60.9322 
       0.355968         62.0628         58.9753 
       0.362074         60.1287         57.0593 
       0.368217         58.3959         55.1864 
       0.374374         56.4251         53.3959 
       0.380519         54.9996         51.7207 
       0.386598         53.5357         50.1773 
       0.392688         52.3257         48.7399 
        0.39888         50.8554          47.369 
       0.405048         49.7017         46.0697 
       0.411186         48.6012         44.8215 
       0.417313         46.9991          43.603 
       0.423458         45.9303          42.402 
       0.429607         44.6513         41.2247 
       0.435692         43.3966         40.0893 
       0.441815         42.5395         38.9862 
       0.447964         41.8117         37.9272 
       0.454126         40.3438         36.9177 
       0.460267         39.5048         35.9623 
       0.466387         38.3971         35.0571 
        0.47254         37.8084          34.186 
       0.478662          37.085         33.3499 
       0.484765         36.1245         32.5413 
       0.490885         35.2763         31.7519 
       0.497035         34.8236         30.9779 
       0.503198          33.957         30.2225 
       0.509342         33.1569         29.4922 
       0.515458         32.4292         28.7903 
       0.521598         31.8637         28.1113 
       0.527764         31.1598         27.4552 
       0.533884         30.6282         26.8293 
           0.54         30.0276         26.2272 
       0.546137          29.498         25.6431 
       0.552299          28.995         25.0744 
       0.558452         28.1321         24.5225 
       0.564573         27.7951         23.9885 
       0.570708         27.3158          23.468 
       0.576825         26.6214         22.9632 
       0.582926         26.2149         22.4741 
       0.589034         25.4916         21.9991 
       0.595184         25.1487          21.536 
       0.601379         24.6847         21.0847 
       0.607522         24.3237         20.6513 
       0.613639          24.057         20.2326 
       0.619772         23.4464         19.8247 
       0.625918         23.2634         19.4272 
       0.632068         22.8892         19.0404 
       0.638161         22.3913         18.6673 
         0.6443         21.9529         18.3014 
       0.650464         21.5502         17.9437 
       0.656582         21.3894         17.5982 
       0.662703         21.0219         17.2617 
       0.668861         20.6616         16.9325 
       0.675024         20.2783         16.6121 
       0.681124         19.9479         16.3038 
       0.687237         19.6656          16.003 
       0.693381         19.4371         15.7086 
       0.699536         18.9251         15.4212 
       0.705665          18.753         15.1422 
       0.711789         18.4595         14.8702 
       0.717957         18.1841         14.6031 
        0.72409         17.9034          14.344 
       0.730186         17.6804         14.0929 
       0.736317         17.5044         13.8466 
       0.742472         17.2366         13.6054 
       0.748622         16.9779         13.3704 
        0.75476         16.6276         13.1416 
       0.760888         16.4765         12.9187 
       0.767043         16.2801         12.7001 
       0.773185         15.9658         12.4871 
       0.779291         15.8475         12.2802 
       0.785407         15.6109         12.0778 
       0.791564         15.3585         11.8787 
       0.797719         15.1429         11.6842 
       0.803834         15.0206         11.4954 
       0.809972         14.8848         11.3102 
       0.816124         14.5753         11.1287 
       0.822261         14.4075         10.9518 
       0.828378         14.2381         10.7793 
       0.834502         14.1049         10.6105 
       0.840667         13.8801         10.4443 
       0.846816         13.6666         10.2821 
       0.852925         13.5492         10.1245 
       0.859047         13.3891          9.9699 
       0.865192         13.2808         9.81806 
       0.871341         13.1388         9.66932 
       0.877463         12.9535         9.52438 
       0.883569         12.7461         9.38282 
       0.889708         12.5522         9.24345 
       0.895864         12.4868         9.10659 
       0.902008         12.3385         8.97284 
       0.908149          12.206         8.84189 
       0.914301         12.0401         8.71338 
       0.920448         11.8691         8.58758 
       0.926574         11.7408         8.46474 
       0.932687         11.6564         8.34461 
       0.938823         11.5032          8.2264 
       0.944975         11.3574         8.11026 
       0.951105         11.2667          7.9968 
       0.957225         11.2032         7.88575 
       0.963368         11.0545         7.77645 
       0.969511         10.9433         7.66926 
       0.975621         10.8042         7.56469 
       0.981748         10.7018         7.46184 
       0.987916         10.6074         7.36027 
        0.99406         10.4465           7.261 
        1.00019         10.3059         7.16379 
        1.00632         10.2835         7.06848 
        1.01246         10.1754         6.97478 
        1.01859         10.0416         6.88295 
        1.02471         9.95189         6.79292 
        1.03085         9.86581          6.7042 
        1.03698         9.73275         6.61728 
        1.04314         9.66359         6.53155 
        1.04929         9.53718         6.44757 
        1.05541          9.4471         6.36541 
        1.06154         9.36684         6.28451 
        1.06769         9.32453          6.2049 
        1.07382         9.18171         6.12696 
        1.07993         9.09567         6.05055 
        1.08607         9.04047         5.97514 
        1.09222         8.95417         5.90096 
        1.09836         8.87644         5.82814 
        1.10449         8.78425         5.75665 
        1.11063         8.71583          5.6863 
        1.11677         8.64016         5.61716 
         1.1229          8.5623         5.54931 
        1.12903         8.48311         5.48253 
        1.13518         8.40121         5.41681 
        1.14131         8.30265         5.35221 
        1.14745          8.2121         5.28872 
        1.15359          8.1771         5.22626 
        1.15973         8.09817         5.16479 
        1.16584         8.01926          5.1046 
        1.17197         7.95613          5.0453 
        1.17811         7.89572         4.98677 
        1.18424         7.85303         4.92935 
        1.19038         7.78898         4.87268 
        1.19652         7.71918         4.81694 
        1.20267         7.63079         4.76207 
        1.20881         7.58715         4.70809 
        1.21495         7.52931         4.65504 
        1.22108         7.45384         4.60282 
         1.2272         7.42685         4.55154 
        1.23334         7.32782         4.50093 
        1.23949         7.27161         4.45097 
        1.24562         7.24287         4.40193 
        1.25174         7.15398         4.35371 
        1.25789         7.10954         4.30607 
        1.26402         7.05045         4.25924 
        1.27014         6.98732         4.21322 
        1.27628         6.95351         4.16776 
        1.28244         6.86929         4.12289 
        1.28858         6.84647         4.07874 
        1.29471         6.78334         4.03535 
        1.30084         6.72197         3.99263 
        1.30697         6.71764         3.95048 
        1.31312         6.59476         3.90888 
        1.31925         6.58134         3.86802 
        1.32537         6.52998         3.82779 
        1.33151         6.49789         3.78799 
        1.33765         6.41699         3.74879 
        1.34378         6.37021         3.71022 
        1.34992         6.35131         3.67218 
        1.35606         6.28304          3.6346 
         1.3622         6.25538         3.59762 
        1.36833         6.20978         3.56124 
        1.37445         6.16824         3.52539 
        1.38059         6.13319         3.48993 
        1.38675         6.09141         3.45488 
        1.39288         6.03383         3.42045 
        1.39901         5.98469         3.38651 
        1.40515         5.95517         3.35297 
         1.4113         5.91542         3.31989 
        1.41742         5.87769         3.28739 
        1.42355         5.83822         3.25528 
         1.4297         5.77921         3.22349 
        1.43585         5.76592         3.19215 
        1.44198         5.73871         3.16136 
        1.44809         5.66909         3.13102 
        1.45423         5.63327         3.10099 
        1.46036         5.59778          3.0714 
        1.46649         5.55077         3.04219 
        1.47263         5.51547         3.01334 
        1.47877         5.47218         2.98489 
        1.48491         5.44191         2.95676 
        1.49104         5.42101         2.92905 
        1.49718         5.38195         2.90169 
        1.50333         5.34899         2.87463 
        1.50947         5.31589         2.84798 
         1.5156         5.28393         2.82171 
        1.52172         5.25469         2.79577 
        1.52787         5.21799         2.77011 
          1.534          5.1847         2.74481 
        1.54013         5.15525         2.71985 
        1.54627         5.10728         2.69516 
        1.55241         5.07903         2.67078 
        1.55855         5.06228         2.64674 
        1.56467         5.02679         2.62306 
         1.5708         4.98532          2.5996 
        1.57695         4.95873         2.57641 
        1.58308         4.92625         2.55355 
        1.58922         4.91069         2.53095 
        1.59535         4.87805         2.50864 
         1.6015         4.84852         2.48657 
        1.60764         4.82143         2.46477 
        1.61376         4.79125          2.4433 
        1.61989         4.76279         2.42208 
        1.62604         4.73053         2.40105 
        1.63218         4.71804          2.3803 
        1.63831         4.67809         2.35984 
        1.64444         4.65049         2.33961 
        1.65059          4.6237         2.31958 
        1.65673         4.60158          2.2998 
        1.66285         4.56597         2.28032 
        1.66898         4.55203         2.26105 
        1.67512         4.51528         2.24197 
        1.68127         4.49323          2.2231 
         1.6874         4.47588         2.20449 
        1.69353         4.43251          2.1861 
        1.69967         4.41892         2.16788 
        1.70581         4.40361         2.14988 
        1.71193         4.37547         2.13216 
        1.71806         4.35389         2.11459 
        1.72421         4.32758          2.0972 
        1.73035         4.30692         2.08002 
        1.73649         4.27739         2.06304 
        1.74262         4.25214         2.04626 
        1.74876         4.24618         2.02966 
        1.75489         4.21411         2.01328 
        1.76101         4.18537         1.99709 
        1.76715         4.16671         1.98106 
        1.77329         4.14532         1.96518 
        1.77943         4.11549         1.94947 
        1.78557         4.10494         1.93396 
        1.79171          4.0811         1.91862 
        1.79785         4.05663         1.90344 
        1.80399         4.04105         1.88843 
        1.81012         4.02785         1.87361 
        1.81625         3.99512         1.85895 
        1.82239         3.97323         1.84443 
        1.82853         3.95042         1.83007 
        1.83466         3.94219         1.81588 
        1.84078         3.91871         1.80185 
        1.84692         3.90125         1.78795 
        1.85306         3.87381         1.77419 
         1.8592         3.85703         1.76059 
        1.86533         3.83898         1.74714 
        1.87147         3.82491         1.73382 
        1.87761         3.80606         1.72063 
        1.88375         3.77589          1.7076 
        1.88988         3.76355         1.69471 
        1.89601         3.74571         1.68196 
        1.90215         3.72175         1.66932 
        1.90829         3.70727         1.65683 
        1.91442          3.6916         1.64446 
        1.92056         3.66936         1.63223 
         1.9267         3.65895         1.62011 
        1.93284         3.64058         1.60811 
        1.93897         3.62043         1.59626 
        1.94509         3.59622         1.58455 
        1.95123         3.57937         1.57293 
        1.95737         3.56327         1.56142 
        1.96349         3.55116         1.55005 
        1.96964         3.54061         1.53877 
        1.97578         3.51963         1.52759 
        1.98192         3.50618         1.51655 
        1.98805         3.48655         1.50562 
        1.99419         3.46959         1.49479 
        2.00033         3.46536         1.48407 
        2.00647         3.44094         1.47346 
         2.0126         3.42975         1.46297 
        2.01874          3.4032         1.45256 
        2.02488         3.39342         1.44225 
        2.03101          3.3729         1.43206 
        2.03714         3.35533         1.42198 
        2.04328         3.34654         1.41199 
        2.04941         3.32369         1.40209 
        2.05554         3.31905         1.39231 
        2.06167         3.29827          1.3826 
        2.06781          3.2903         1.37299 
        2.07396           3.277         1.36345 
        2.08009         3.25824         1.35402 
        2.08622         3.23778          1.3447 
        2.09237         3.23772         1.33544 
        2.09851         3.22071         1.32627 
        2.10464         3.20489          1.3172 
        2.11077         3.18912         1.30823 
        2.11691         3.17455         1.29932 
        2.12305         3.16621         1.29049 
        2.12918         3.15305         1.28177 
        2.13531         3.13883         1.27313 
        2.14145         3.12286         1.26455 
         2.1476         3.11012         1.25604 
        2.15372          3.0964         1.24765 
        2.15985         3.08301         1.23933 
        2.16599          3.0684         1.23106 
        2.17213         3.05737         1.22288 
        2.17827         3.04608         1.21478 
         2.1844         3.03367         1.20675 
        2.19054         3.02413          1.1988 
        2.19666         3.00695         1.19093 
         2.2028         2.99536         1.18312 
        2.20893         2.98041         1.17538 
        2.21508         2.97154          1.1677 
        2.22122         2.95617         1.16009 
        2.22736         2.94193         1.15256 
        2.23349         2.93713         1.14511 
        2.23962          2.9194         1.13771 
        2.24577         2.90853         1.13037 
         2.2519         2.89783         1.12311 
        2.25802         2.89266         1.11593 
        2.26417         2.87537         1.10879 
        2.27031         2.86724          1.1017 
        2.27644           2.855          1.0947 
        2.28257         2.84213         1.08776 
        2.28872         2.82987         1.08086 
        2.29486         2.82457         1.07403 
        2.30099         2.80908         1.06728 
        2.30712         2.79675         1.06057 
        2.31326         2.79141         1.05392 
         2.3194         2.77629         1.04732 
        2.32553         2.76823          1.0408 
        2.33166           2.755         1.03433 
         2.3378         2.74419         1.02791 
        2.34394         2.73386         1.02154 
        2.35007         2.72283         1.01523 
        2.35619         2.71872         1.00899 
        2.36233         2.70368         1.00279 
        2.36848         2.69464         0.99662 
        2.37462         2.68458         0.99052 
        2.38075         2.67379        0.984477 
        2.38689         2.66377         0.97848 
        2.39303         2.65651        0.972535 
        2.39916         2.64386        0.966645 
        2.40529         2.63568        0.960805 
        2.41143         2.62483        0.955009 
        2.41757          2.6137        0.949259 
         2.4237         2.60545        0.943567 
        2.42983         2.59272        0.937923 
        2.43598         2.59139         0.93231 
        2.44211         2.57689        0.926753 
        2.44823         2.56931        0.921253 
        2.45437         2.55956        0.915784 
        2.46052         2.54929        0.910355 
        2.46665         2.54403         0.90498 
        2.47279         2.53313         0.89965 
        2.47892         2.52344         0.89436 
        2.48507          2.5165        0.889108 
         2.4912         2.50461        0.883909 
