# k  (h/Mpc)    Pcb(k)  (Mpc/h)^3    Pcb_linear(k)  (Mpc/h)^3
     0.00783031         1690.55          1699.3 
       0.013688         2284.03         2311.62 
       0.019231         2523.41         2538.11 
      0.0249154         2533.36         2535.14 
      0.0312784         2365.09         2374.36 
      0.0375637         2142.34         2156.17 
      0.0433917         1959.19         1960.83 
      0.0492413         1788.41         1797.95 
      0.0555754         1662.51         1663.76 
      0.0619321         1539.22         1562.12 
       0.067871         1470.31         1481.21 
      0.0738098         1391.57         1400.15 
      0.0800417          1301.2         1306.43 
      0.0862327         1195.01          1203.9 
      0.0921407         1094.11         1102.74 
      0.0982031         1000.86         1003.75 
       0.104506         904.622         913.872 
       0.110769         834.837         842.095 
       0.116806         790.786         789.473 
       0.122832         744.794         749.872 
       0.129052         715.031         717.177 
       0.135211          688.95         687.304 
       0.141259         653.273         656.173 
       0.147318         613.206         621.273 
       0.153489         578.736         582.379 
       0.159709         543.542         542.129 
       0.165845         499.244         504.396 
       0.171974         476.455         471.186 
       0.178125         450.514         443.687 
       0.184229         424.148         422.134 
        0.19034         411.793         405.124 
       0.196428         397.586          390.92 
       0.202534         378.214          377.53 
       0.208729         368.754         363.304 
       0.214876         356.034          347.81 
       0.220989         333.292         331.142 
       0.227147         323.454         313.837 
        0.23329         308.802         297.095 
       0.239377         296.285         281.955 
       0.245482         281.373         268.783 
       0.251667         269.164         257.606 
       0.257832         264.186         248.324 
       0.263955         252.232         240.342 
       0.270079         244.782          232.91 
        0.27624         235.095         225.418 
       0.282372         228.398         217.598 
        0.28843         225.068         209.473 
       0.294538         215.213          201.06 
       0.300721          205.64         192.658 
        0.30691         201.074         184.712 
       0.313033         193.026         177.566 
       0.319153         189.364         171.241 
       0.325316         181.617         165.638 
        0.33145         176.531         160.657 
       0.337538         171.888         156.071 
       0.343633          167.36         151.617 
       0.349808         162.551         147.091 
       0.355968         158.048         142.489 
       0.362074         155.031         137.879 
       0.368217         150.896          133.27 
       0.374374         147.811         128.809 
       0.380519         141.433         124.613 
       0.386598         137.903         120.774 
       0.392688         134.337         117.254 
        0.39888         131.904         113.958 
       0.405048         129.095         110.895 
       0.411186         126.346         107.982 
       0.417313           123.2         105.135 
       0.423458         120.104         102.307 
       0.429607         118.256         99.4911 
       0.435692         116.174         96.7335 
       0.441815         112.216         94.0263 
       0.447964         109.185         91.4107 
       0.454126         107.231         88.9174 
       0.460267         106.486         86.5789 
       0.466387         103.753         84.3876 
        0.47254         102.524         82.3005 
       0.478662          99.378         80.3159 
       0.484765         97.6767         78.4054 
       0.490885         95.2288         76.5338 
       0.497035          94.341         74.6839 
       0.503198         91.9711          72.865 
       0.509342         89.8517         71.0935 
       0.515458         88.9383         69.3791 
       0.521598         86.8792         67.7166 
       0.527764         85.9239         66.1158 
       0.533884         84.5006         64.5979 
           0.54         82.7187         63.1457 
       0.546137         80.4969         61.7436 
       0.552299         79.3846         60.3836 
       0.558452         77.9814         59.0667 
       0.564573         77.5547         57.7906 
       0.570708          75.338         56.5399 
       0.576825          74.556         55.3202 
       0.582926         73.5473         54.1346 
       0.589034         72.3028         52.9818 
       0.595184         71.3771         51.8585 
       0.601379         69.5357         50.7651 
       0.607522         68.7418         49.7165 
       0.613639         67.8554          48.706 
       0.619772         66.8062          47.725 
       0.625918         65.6387         46.7713 
       0.632068          65.141         45.8437 
       0.638161         63.8703         44.9478 
         0.6443         63.1708         44.0666 
       0.650464         61.7697         43.2027 
       0.656582         61.4721         42.3667 
       0.662703         60.8572         41.5527 
       0.668861         59.4258         40.7569 
       0.675024         59.0014         39.9836 
       0.681124         58.3878         39.2403 
       0.687237          57.299         38.5156 
       0.693381         56.4674         37.8065 
       0.699536         56.2331         37.1141 
       0.705665         55.2471         36.4418 
       0.711789         54.4008         35.7865 
       0.717957         53.5192         35.1426 
        0.72409         53.0874         34.5182 
       0.730186         52.8392         33.9129 
       0.736317         51.9098         33.3191 
       0.742472         51.3256         32.7376 
       0.748622         50.5699         32.1708 
        0.75476         49.5484         31.6189 
       0.760888         49.4251          31.081 
       0.767043          48.672         30.5538 
       0.773185         48.3431         30.0401 
       0.779291          47.819         29.5413 
       0.785407         47.0495         29.0533 
       0.791564         46.9254         28.5735 
       0.797719         46.1137         28.1049 
       0.803834         45.8182           27.65 
       0.809972         45.1164         27.2037 
       0.816124         44.6975         26.7664 
       0.822261         44.2509           26.34 
       0.828378         43.8776         25.9243 
       0.834502         43.4996         25.5174 
       0.840667         43.0825         25.1167 
       0.846816         42.2406         24.7259 
       0.852925         42.2209         24.3459 
       0.859047         41.7419         23.9733 
       0.865192         41.2213         23.6073 
       0.871341         40.7711         23.2488 
       0.877463         40.4684         22.8995 
       0.883569         40.2928         22.5583 
       0.889708         39.7482         22.2225 
       0.895864         39.2966         21.8927 
       0.902008         38.8447         21.5704 
       0.908149         38.5501         21.2548 
       0.914301         38.3612         20.9452 
       0.920448         37.8554         20.6421 
       0.926574          37.468         20.3462 
       0.932687         37.1621         20.0568 
       0.938823          36.769         19.7721 
       0.944975         36.4717         19.4923 
       0.951105         36.1449          19.219 
       0.957225         35.9921         18.9515 
       0.963368         35.4972         18.6882 
       0.969511         35.2145           18.43 
       0.975621         34.9014         18.1781 
       0.981748         34.5398         17.9303 
       0.987916         34.3525         17.6857 
        0.99406         34.0224         17.4466 
        1.00019         33.7622         17.2124 
        1.00632         33.4987         16.9828 
        1.01246         33.2814         16.7571 
        1.01859         32.8936          16.536 
        1.02471         32.6187         16.3191 
        1.03085         32.5311         16.1054 
        1.03698         32.2264         15.8961 
        1.04314         31.9059         15.6896 
        1.04929          31.598         15.4873 
        1.05541         31.5204         15.2895 
        1.06154         31.3037         15.0946 
        1.06769         30.9989         14.9029 
        1.07382         30.6376         14.7152 
        1.07993         30.4013         14.5312 
        1.08607         30.2811         14.3497 
        1.09222         29.9897          14.171 
        1.09836          29.834         13.9957 
        1.10449         29.5749         13.8236 
        1.11063         29.4053         13.6542 
        1.11677         29.2955         13.4877 
         1.1229         29.0114         13.3244 
        1.12903          28.863         13.1636 
        1.13518         28.5468         13.0054 
        1.14131         28.4265         12.8499 
        1.14745         28.0691         12.6971 
        1.15359         27.8929         12.5467 
        1.15973         27.6564         12.3988 
        1.16584         27.4926         12.2539 
        1.17197         27.2719         12.1112 
        1.17811         27.0921         11.9703 
        1.18424         26.9394         11.8321 
        1.19038         26.8043         11.6957 
        1.19652         26.5888         11.5616 
        1.20267         26.4248         11.4295 
        1.20881         26.2159         11.2996 
        1.21495         26.0042         11.1719 
        1.22108         26.0071         11.0463 
         1.2272         25.7973         10.9228 
        1.23334         25.6231          10.801 
        1.23949         25.4446         10.6808 
        1.24562         25.2232         10.5628 
        1.25174         25.1106         10.4468 
        1.25789         24.9301         10.3321 
        1.26402          24.838         10.2195 
        1.27014         24.6915         10.1087 
        1.27628         24.4242         9.99933 
        1.28244         24.4388         9.89136 
        1.28858         24.1753         9.78514 
        1.29471         23.9315         9.68074 
        1.30084         23.8283         9.57797 
        1.30697         23.8079         9.47655 
        1.31312         23.5582         9.37647 
        1.31925         23.4576         9.27816 
        1.32537         23.3137         9.18138 
        1.33151         23.1701         9.08564 
        1.33765         23.0532         8.99134 
        1.34378         22.9516         8.89858 
        1.34992         22.7933         8.80708 
        1.35606         22.6032         8.71668 
         1.3622         22.4461         8.62772 
        1.36833          22.395         8.54023 
        1.37445         22.3033         8.45401 
        1.38059         22.1778         8.36873 
        1.38675         21.9957         8.28443 
        1.39288         21.8398         8.20164 
        1.39901         21.7851         8.12003 
        1.40515         21.6215         8.03936 
         1.4113         21.5036         7.95983 
        1.41742         21.4126         7.88168 
        1.42355         21.2312         7.80445 
         1.4297         21.1593         7.72804 
        1.43585         21.0605         7.65268 
        1.44198          20.966         7.57863 
        1.44809         20.8493         7.50571 
        1.45423         20.6971         7.43348 
        1.46036         20.6096         7.36235 
        1.46649          20.479         7.29212 
        1.47263         20.4213         7.22277 
        1.47877         20.3073         7.15435 
        1.48491         20.1837         7.08672 
        1.49104         20.0625         7.02012 
        1.49718         19.9954         6.95433 
        1.50333         19.8785         6.88928 
        1.50947         19.7767         6.82521 
         1.5156         19.6805         6.76206 
        1.52172         19.5888         6.69971 
        1.52787         19.4622         6.63803 
          1.534         19.4219         6.57721 
        1.54013          19.308         6.51722 
        1.54627         19.1885         6.45787 
        1.55241         19.0576         6.39927 
        1.55855         19.0358         6.34148 
        1.56467          18.914         6.28457 
         1.5708         18.8496          6.2282 
        1.57695         18.7196         6.17244 
        1.58308         18.6122          6.1175 
        1.58922         18.5438          6.0632 
        1.59535         18.4098         6.00959 
         1.6015         18.2971         5.95655 
        1.60764         18.2741         5.90418 
        1.61376         18.2189         5.85259 
        1.61989         18.0686         5.80159 
        1.62604         18.0321         5.75108 
        1.63218         17.9446         5.70121 
        1.63831         17.8343         5.65205 
        1.64444         17.7322         5.60346 
        1.65059          17.645         5.55533 
        1.65673         17.5858         5.50782 
        1.66285         17.5013           5.461 
        1.66898         17.4308         5.41472 
        1.67512         17.3398         5.36889 
        1.68127         17.2213         5.32355 
         1.6874         17.1893         5.27884 
        1.69353         17.1107         5.23468 
        1.69967         17.0078         5.19092 
        1.70581         16.9414         5.14768 
        1.71193         16.8879          5.1051 
        1.71806         16.8362         5.06292 
        1.72421         16.7015         5.02113 
        1.73035         16.6314         4.97987 
        1.73649         16.5936         4.93908 
        1.74262         16.4413         4.89878 
        1.74876         16.4462         4.85892 
        1.75489         16.3506         4.81958 
        1.76101         16.2706         4.78069 
        1.76715         16.2197         4.74218 
        1.77329         16.1439         4.70406 
        1.77943         16.0425         4.66633 
        1.78557         16.0246         4.62909 
        1.79171         15.9326         4.59224 
        1.79785         15.9022         4.55579 
        1.80399         15.7625         4.51975 
        1.81012         15.7454         4.48415 
        1.81625         15.6155         4.44895 
        1.82239         15.5634         4.41408 
        1.82853          15.508          4.3796 
        1.83466         15.4122         4.34553 
        1.84078         15.4041         4.31186 
        1.84692         15.3365         4.27849 
        1.85306         15.2775         4.24544 
         1.8592         15.2081         4.21279 
        1.86533         15.1455         4.18051 
        1.87147         15.0535         4.14853 
        1.87761         15.0036         4.11687 
        1.88375         14.9427         4.08559 
        1.88988          14.863         4.05466 
        1.89601         14.8313         4.02404 
        1.90215         14.7314         3.99372 
        1.90829         14.6898         3.96372 
        1.91442         14.6312         3.93403 
        1.92056         14.6159         3.90468 
         1.9267          14.517          3.8756 
        1.93284          14.499         3.84679 
        1.93897         14.4095         3.81834 
        1.94509         14.3445         3.79024 
        1.95123          14.321         3.76235 
        1.95737         14.2646         3.73473 
        1.96349         14.1425         3.70745 
        1.96964         14.1263         3.68037 
        1.97578         14.0707         3.65355 
        1.98192         13.9905         3.62706 
        1.98805         13.9515         3.60082 
        1.99419         13.9155         3.57485 
        2.00033         13.8608         3.54912 
        2.00647         13.8116         3.52365 
         2.0126         13.7517         3.49848 
        2.01874         13.6756         3.47352 
        2.02488         13.6402         3.44878 
        2.03101         13.5599         3.42433 
        2.03714         13.5114         3.40014 
        2.04328         13.4545         3.37616 
        2.04941          13.398         3.35243 
        2.05554         13.3779         3.32895 
        2.06167         13.3173         3.30566 
        2.06781         13.2525         3.28259 
        2.07396         13.2331         3.25972 
        2.08009         13.1548          3.2371 
        2.08622         13.1298         3.21472 
        2.09237         13.0935         3.19251 
        2.09851         12.9975         3.17051 
        2.10464         12.9897         3.14876 
        2.11077         12.9073         3.12724 
        2.11691         12.9039         3.10587 
        2.12305         12.8247          3.0847 
        2.12918          12.765         3.06378 
        2.13531         12.7376         3.04306 
        2.14145         12.6892         3.02248 
         2.1476         12.6301         3.00207 
        2.15372         12.5852         2.98195 
        2.15985         12.5542         2.96199 
        2.16599         12.4967         2.94217 
        2.17213         12.4827         2.92254 
        2.17827         12.4179         2.90311 
         2.1844         12.3878         2.88386 
        2.19054         12.3308         2.86479 
        2.19666         12.2883         2.84592 
         2.2028         12.2321          2.8272 
        2.20893         12.2074         2.80864 
        2.21508         12.1546         2.79023 
        2.22122         12.0896         2.77198 
        2.22736         12.0745         2.75393 
        2.23349         12.0167         2.73605 
        2.23962         11.9865         2.71832 
        2.24577         11.9363         2.70073 
         2.2519          11.908         2.68332 
        2.25802         11.8237         2.66609 
        2.26417         11.8165         2.64897 
        2.27031         11.7565         2.63198 
        2.27644          11.715          2.6152 
        2.28257         11.6589         2.59856 
        2.28872          11.657         2.58203 
        2.29486         11.6129         2.56566 
        2.30099         11.5643         2.54946 
        2.30712         11.5139         2.53339 
        2.31326         11.4687         2.51743 
         2.3194         11.4337         2.50163 
        2.32553         11.3736         2.48598 
        2.33166         11.3406         2.47048 
         2.3378         11.3173         2.45509 
        2.34394         11.2939         2.43983 
        2.35007         11.2164         2.42472 
        2.35619         11.2124         2.40975 
        2.36233         11.1503         2.39488 
        2.36848         11.1226         2.38011 
        2.37462         11.0892         2.36549 
        2.38075         11.0567           2.351 
        2.38689         11.0164         2.33663 
        2.39303         10.9575         2.32238 
        2.39916         10.9359         2.30827 
        2.40529         10.8887         2.29427 
        2.41143         10.8641         2.28038 
        2.41757         10.8263         2.26661 
         2.4237          10.775         2.25297 
        2.42983         10.7578         2.23944 
        2.43598         10.7249         2.22599 
        2.44211         10.6999         2.21268 
        2.44823         10.6403          2.1995 
        2.45437         10.6045         2.18639 
        2.46052         10.5792         2.17339 
        2.46665         10.5547         2.16051 
        2.47279         10.5087         2.14774 
        2.47892         10.4579         2.13506 
        2.48507         10.4414         2.12248 
         2.4912         10.3974         2.11003 
