# k  (h/Mpc)    Pcb(k)  (Mpc/h)^3    Pcb_linear(k)  (Mpc/h)^3
     0.00783031         13619.1         13666.5 
       0.013688         17424.2         17895.6 
       0.019231         18873.1         19198.6 
      0.0249154         18802.2         18864.8 
      0.0312784           17139         17453.4 
      0.0375637         15287.2         15726.5 
      0.0433917         13976.4         14229.8 
      0.0492413         12616.2         12990.2 
      0.0555754         11664.4         11956.2 
      0.0619321         10515.1         11150.9 
       0.067871         10030.8         10496.7 
      0.0738098         9480.24         9847.39 
      0.0800417         8775.17         9121.48 
      0.0862327         8002.29         8357.89 
      0.0921407         7335.09         7628.92 
      0.0982031         6764.49         6932.86 
       0.104506         6090.83         6310.42 
       0.110769         5649.15         5814.87 
       0.116806         5402.53         5446.43 
       0.122832         5073.68         5159.58 
       0.129052         4815.51         4911.81 
       0.135211         4685.01          4679.5 
       0.141259         4375.97         4440.44 
       0.147318         4083.58         4181.99 
       0.153489         3880.82         3905.54 
       0.159709         3742.93         3629.56 
       0.165845         3426.31          3377.6 
       0.171974          3333.9         3159.08 
       0.178125         3232.93         2978.09 
       0.184229         2982.67         2833.33 
        0.19034         2946.14          2714.3 
       0.196428         2871.83         2609.96 
       0.202534         2718.65         2508.84 
       0.208729         2665.03          2402.4 
       0.214876         2562.33         2290.38 
       0.220989         2448.53         2174.75 
       0.227147         2386.12         2059.07 
        0.23329         2296.97         1950.19 
       0.239377         2285.67         1853.11 
       0.245482         2187.05         1768.56 
       0.251667         2108.01         1695.46 
       0.257832         2077.03         1632.47 
       0.263955         1994.28         1576.01 
       0.270079         1954.71         1522.02 
        0.27624         1874.15         1467.57 
       0.282372         1859.71         1412.13 
        0.28843         1824.34         1356.42 
       0.294538         1750.18         1300.66 
       0.300721         1723.12         1246.44 
        0.30691         1680.61         1195.93 
       0.313033         1624.71         1150.57 
       0.319153         1610.75         1109.85 
       0.325316         1591.95         1072.86 
        0.33145         1561.67         1038.94 
       0.337538         1516.26         1006.98 
       0.343633         1484.57         975.729 
       0.349808          1462.6         944.294 
       0.355968         1431.84         913.073 
       0.362074         1397.76         882.542 
       0.368217         1393.36         852.767 
       0.374374         1371.45         824.324 
       0.380519         1329.85         797.713 
       0.386598         1327.71         773.221 
       0.392688          1293.9         750.384 
        0.39888         1272.11         728.629 
       0.405048         1249.69         708.018 
       0.411186         1241.86         688.229 
       0.417313         1242.64         668.961 
       0.423458         1204.97         649.988 
       0.429607         1174.59         631.414 
       0.435692          1167.6         613.543 
       0.441815         1145.81         596.188 
       0.447964         1137.42         579.527 
       0.454126         1121.66         563.671 
       0.460267         1109.95         548.664 
       0.466387         1093.77          534.44 
        0.47254         1073.24         520.769 
       0.478662          1063.9         507.666 
       0.484765         1054.73         494.992 
       0.490885          1041.9         482.632 
       0.497035         1025.41         470.537 
       0.503198         1024.72         458.746 
       0.509342         1006.06         447.348 
       0.515458         986.634         436.398 
       0.521598         988.074         425.822 
       0.527764          964.28         415.612 
       0.533884         955.269         405.865 
           0.54         948.827         396.492 
       0.546137         938.979         387.413 
       0.552299         930.597         378.582 
       0.558452         923.378         370.018 
       0.564573         917.013         361.731 
       0.570708         907.514         353.658 
       0.576825         889.845         345.843 
       0.582926         888.047         338.279 
       0.589034         879.247         330.935 
       0.595184         868.286         323.774 
       0.601379         854.809         316.797 
       0.607522         845.726         310.103 
       0.613639         844.541         303.644 
       0.619772         835.583         297.358 
       0.625918         827.348         291.234 
       0.632068          820.52         285.273 
       0.638161         809.106         279.527 
         0.6443         802.907         273.895 
       0.650464         797.805         268.397 
       0.656582         792.068          263.09 
       0.662703         780.492         257.927 
       0.668861         773.775         252.876 
       0.675024         769.154         247.961 
       0.681124         756.831         243.231 
       0.687237         757.612         238.619 
       0.693381         743.859         234.109 
       0.699536          745.28          229.71 
       0.705665         735.924         225.443 
       0.711789         732.908         221.287 
       0.717957         724.742         217.206 
        0.72409         718.486          213.25 
       0.730186         715.204         209.416 
       0.736317         707.497         205.657 
       0.742472         698.216         201.978 
       0.748622         696.161         198.395 
        0.75476         688.025         194.908 
       0.760888         684.538         191.513 
       0.767043         682.129         188.186 
       0.773185          677.41         184.946 
       0.779291         669.164         181.802 
       0.785407         664.234         178.726 
       0.791564          659.74         175.702 
       0.797719         650.359          172.75 
       0.803834         650.849         169.885 
       0.809972         642.778         167.075 
       0.816124         638.598         164.323 
       0.822261         634.596         161.641 
       0.828378         632.041         159.028 
       0.834502         622.065         156.471 
       0.840667         620.622         153.954 
       0.846816         616.177         151.501 
       0.852925         612.869         149.117 
       0.859047         607.297          146.78 
       0.865192         603.606         144.486 
       0.871341         597.156          142.24 
       0.877463         596.273         140.052 
       0.883569         589.661         137.916 
       0.889708         583.393         135.814 
       0.895864         578.181         133.751 
       0.902008         577.426         131.735 
       0.908149           571.9         129.762 
       0.914301         569.798         127.827 
       0.920448         562.958         125.934 
       0.926574         560.404         124.085 
       0.932687          558.36         122.278 
       0.938823         551.704         120.501 
       0.944975         548.101         118.756 
       0.951105          544.97         117.051 
       0.957225         537.475         115.383 
       0.963368         538.581         113.743 
       0.969511         530.999         112.134 
       0.975621         529.239         110.566 
       0.981748         525.532         109.024 
       0.987916         522.713         107.501 
        0.99406         517.858         106.014 
        1.00019         513.058         104.558 
        1.00632         510.433         103.131 
        1.01246         507.043         101.728 
        1.01859         502.844         100.355 
        1.02471         501.119          99.008 
        1.03085         496.454         97.6817 
        1.03698          495.14         96.3827 
        1.04314         489.551          95.102 
        1.04929         488.455         93.8477 
        1.05541         481.666         92.6212 
        1.06154         480.777         91.4138 
        1.06769         476.434         90.2262 
        1.07382         472.242         89.0637 
        1.07993          471.98         87.9245 
        1.08607         468.067         86.8007 
        1.09222          464.18         85.6955 
        1.09836         460.535          84.611 
        1.10449          456.54         83.5467 
        1.11063         454.949         82.4996 
        1.11677         450.416         81.4709 
         1.1229         448.417         80.4617 
        1.12903         444.406         79.4687 
        1.13518         442.909         78.4919 
        1.14131           440.4          77.532 
        1.14745         435.346         76.5889 
        1.15359         432.792         75.6614 
        1.15973          430.63         74.7489 
        1.16584         428.699         73.8557 
        1.17197         425.501         72.9759 
        1.17811          420.47         72.1079 
        1.18424         419.233         71.2565 
        1.19038         416.769         70.4166 
        1.19652         412.513         69.5906 
        1.20267         411.314         68.7779 
        1.20881         409.143         67.9785 
        1.21495         403.853         67.1931 
        1.22108         403.884         66.4203 
         1.2272         398.122         65.6615 
        1.23334          397.35          64.913 
        1.23949         393.736         64.1744 
        1.24562         393.664         63.4494 
        1.25174         389.627         62.7368 
        1.25789         386.671          62.033 
        1.26402         384.526         61.3414 
        1.27014         382.448          60.662 
        1.27628         378.842          59.991 
        1.28244         376.593         59.3289 
        1.28858          374.99         58.6776 
        1.29471         373.218         58.0377 
        1.30084          370.69          57.408 
        1.30697         366.944         56.7866 
        1.31312         364.865         56.1736 
        1.31925         362.568         55.5717 
        1.32537         360.818         54.9792 
        1.33151         357.457         54.3932 
        1.33765         355.039         53.8162 
        1.34378         352.671         53.2487 
        1.34992          349.97         52.6891 
        1.35606         347.731         52.1364 
         1.3622         346.342         51.5925 
        1.36833         345.088         51.0578 
        1.37445         342.993          50.531 
        1.38059         339.025         50.0101 
        1.38675         337.625         49.4952 
        1.39288         335.928         48.9897 
        1.39901         333.177         48.4916 
        1.40515          331.51         47.9992 
         1.4113         329.186         47.5139 
        1.41742         326.102         47.0373 
        1.42355         325.557         46.5662 
         1.4297         323.441         46.1003 
        1.43585         319.276          45.641 
        1.44198         318.952         45.1896 
        1.44809         317.022         44.7453 
        1.45423         314.428         44.3054 
        1.46036         312.994         43.8721 
        1.46649         311.044         43.4446 
        1.47263         307.834         43.0224 
        1.47877         306.941          42.606 
        1.48491         304.093         42.1946 
        1.49104         301.972         41.7894 
        1.49718         300.384         41.3893 
        1.50333         298.423         40.9938 
        1.50947         297.427         40.6043 
         1.5156         294.109         40.2205 
        1.52172         292.666         39.8416 
        1.52787         290.701         39.4669 
          1.534          289.99         39.0975 
        1.54013         287.441         38.7332 
        1.54627         285.533         38.3729 
        1.55241         284.121         38.0171 
        1.55855          281.96         37.6664 
        1.56467         280.192         37.3211 
         1.5708          278.81         36.9792 
        1.57695         277.198          36.641 
        1.58308         276.084         36.3079 
        1.58922         273.719         35.9787 
        1.59535          271.16         35.6537 
         1.6015         270.144         35.3323 
        1.60764          268.51          35.015 
        1.61376          266.55         34.7025 
        1.61989         265.074         34.3936 
        1.62604         263.121         34.0878 
        1.63218         261.536         33.7858 
        1.63831         260.423         33.4883 
        1.64444         258.294         33.1942 
        1.65059         257.502          32.903 
        1.65673         255.198         32.6156 
        1.66285         253.859         32.3324 
        1.66898         252.417         32.0526 
        1.67512         250.223         31.7755 
        1.68127         248.959         31.5014 
         1.6874         247.242         31.2312 
        1.69353         246.593         30.9644 
        1.69967         244.857            30.7 
        1.70581         242.767         30.4389 
        1.71193          241.71         30.1817 
        1.71806         239.558         29.9271 
        1.72421          238.57         29.6748 
        1.73035         236.505         29.4258 
        1.73649         235.027         29.1797 
        1.74262         234.147         28.9366 
        1.74876         232.404         28.6961 
        1.75489          231.37         28.4589 
        1.76101          230.07         28.2244 
        1.76715         228.271         27.9922 
        1.77329         226.203         27.7624 
        1.77943         225.114         27.5351 
        1.78557         224.172         27.3106 
        1.79171         223.171         27.0887 
        1.79785         221.462         26.8691 
        1.80399         220.193         26.6521 
        1.81012         218.705         26.4378 
        1.81625         217.267         26.2259 
        1.82239         215.874          26.016 
        1.82853         215.092         25.8085 
        1.83466         213.369         25.6035 
        1.84078         212.053          25.401 
        1.84692         211.062         25.2003 
        1.85306         209.331         25.0015 
         1.8592         208.552         24.8052 
        1.86533         206.608         24.6112 
        1.87147         206.066         24.4189 
        1.87761          204.43         24.2287 
        1.88375         203.081         24.0407 
        1.88988         202.091         23.8549 
        1.89601          201.29          23.671 
        1.90215         199.665         23.4889 
        1.90829         198.378         23.3088 
        1.91442         197.427         23.1305 
        1.92056         195.777         22.9543 
         1.9267         195.193         22.7798 
        1.93284         194.011          22.607 
        1.93897         192.315         22.4363 
        1.94509         191.762         22.2677 
        1.95123         190.283         22.1005 
        1.95737         189.581         21.9348 
        1.96349         188.127         21.7713 
        1.96964         186.888         21.6089 
        1.97578         186.091         21.4482 
        1.98192         185.262         21.2894 
        1.98805         183.868         21.1323 
        1.99419         182.593         20.9767 
        2.00033         181.897         20.8225 
        2.00647         180.465           20.67 
         2.0126         179.329         20.5193 
        2.01874         178.321         20.3699 
        2.02488         177.153         20.2218 
        2.03101         176.642         20.0754 
        2.03714         175.537         19.9307 
        2.04328         174.276         19.7872 
        2.04941         173.301         19.6453 
        2.05554         172.433         19.5048 
        2.06167         171.102         19.3655 
        2.06781         170.501         19.2276 
        2.07396         169.038         19.0909 
        2.08009         168.264         18.9557 
        2.08622         167.435         18.8219 
        2.09237         166.147         18.6892 
        2.09851         165.526         18.5578 
        2.10464         164.678         18.4278 
        2.11077         163.549         18.2993 
        2.11691         162.648         18.1717 
        2.12305         161.541         18.0453 
        2.12918         160.617         17.9204 
        2.13531         159.597         17.7967 
        2.14145         158.956         17.6738 
         2.1476         157.798          17.552 
        2.15372         156.915          17.432 
        2.15985          156.18         17.3129 
        2.16599         155.407         17.1947 
        2.17213          154.25         17.0776 
        2.17827         153.541         16.9617 
         2.1844         152.506          16.847 
        2.19054         151.676         16.7333 
        2.19666         150.759         16.6208 
         2.2028         150.165         16.5092 
        2.20893         149.161         16.3986 
        2.21508         148.127         16.2889 
        2.22122         147.201         16.1802 
        2.22736         146.356         16.0727 
        2.23349          145.63         15.9662 
        2.23962          145.09         15.8606 
        2.24577         143.932         15.7559 
         2.2519         143.076         15.6522 
        2.25802         142.742         15.5497 
        2.26417         141.891         15.4478 
        2.27031         140.843         15.3467 
        2.27644         140.016         15.2468 
        2.28257         139.573         15.1479 
        2.28872         138.542         15.0496 
        2.29486         137.849         14.9522 
        2.30099         136.877         14.8558 
        2.30712         136.364         14.7603 
        2.31326         135.409         14.6655 
         2.3194         134.877         14.5715 
        2.32553         134.132         14.4785 
        2.33166         133.508         14.3864 
         2.3378         132.658          14.295 
        2.34394         131.559         14.2043 
        2.35007         131.065         14.1145 
        2.35619         130.148         14.0257 
        2.36233         129.738         13.9373 
        2.36848         129.033         13.8496 
        2.37462         128.496         13.7628 
        2.38075         127.646         13.6768 
        2.38689         126.683         13.5915 
        2.39303         126.168          13.507 
        2.39916         125.526         13.4232 
        2.40529         124.695         13.3402 
        2.41143         124.005         13.2578 
        2.41757         123.176          13.176 
         2.4237         122.832         13.0952 
        2.42983         122.111          13.015 
        2.43598         121.173         12.9352 
        2.44211         120.785         12.8563 
        2.44823         120.077         12.7782 
        2.45437         119.548         12.7005 
        2.46052         118.828         12.6234 
        2.46665         118.216         12.5471 
        2.47279         117.568         12.4714 
        2.47892         116.904         12.3964 
        2.48507         116.362         12.3218 
         2.4912         115.788         12.2481 
