# k  (h/Mpc)    P(k)  (Mpc/h)^3    P_linear(k)  (Mpc/h)^3
     0.00783031         250.988         253.143 
       0.013688         303.672          306.04 
       0.019231          306.05          306.85 
      0.0249154         282.719         282.711 
      0.0312784         245.364          245.24 
      0.0375637             210         209.952 
      0.0433917         184.231         183.777 
      0.0492413         164.601         164.446 
      0.0555754         149.936         149.524 
      0.0619321         137.581         137.947 
       0.067871         127.892         127.879 
      0.0738098         117.325         117.268 
      0.0800417         105.597         105.396 
      0.0862327         93.6926         93.6019 
      0.0921407         83.4057         83.3272 
      0.0982031         74.7741         74.5349 
       0.104506         67.5431         67.5587 
       0.110769         62.5716         62.5642 
       0.116806          59.168          59.006 
       0.122832         56.0078         56.0213 
       0.129052          53.036         52.9513 
       0.135211         49.7416          49.597 
       0.141259         46.0404         45.9885 
       0.147318         42.2468         42.2795 
       0.153489         38.7789         38.7166 
       0.159709         35.7314         35.6118 
       0.165845          33.109         33.1485 
       0.171974         31.3978          31.251 
       0.178125         29.8773         29.7653 
       0.184229          28.547         28.5104 
        0.19034          27.428          27.293 
       0.196428         26.1036         26.0042 
       0.202534         24.5886         24.6065 
       0.208729          23.218          23.129 
       0.214876         21.8519         21.6932 
       0.220989         20.4223          20.383 
       0.227147         19.4078         19.2394 
        0.23329         18.4608         18.2868 
       0.239377         17.6796         17.5005 
       0.245482         16.9823         16.8171 
       0.251667         16.2781         16.1746 
       0.257832         15.7108         15.5374 
       0.263955          15.004         14.8854 
       0.270079          14.336         14.2166 
        0.27624         13.6277         13.5463 
       0.282372         13.0022         12.9083 
        0.28843         12.4904         12.3281 
       0.294538         11.9533         11.8045 
       0.300721         11.4406         11.3365 
        0.30691         11.0754         10.9181 
       0.313033         10.6764         10.5374 
       0.319153         10.3746         10.1734 
       0.325316         9.92302         9.81273 
        0.33145          9.5643         9.45484 
       0.337538         9.22994         9.10314 
       0.343633         8.91007         8.76023 
       0.349808           8.562         8.42929 
       0.355968         8.24531         8.12106 
       0.362074         7.99268         7.83871 
       0.368217         7.72065           7.577 
       0.374374         7.51126         7.33264 
       0.380519         7.24113         7.10199 
       0.386598         7.00614         6.88246 
       0.392688         6.78138         6.66802 
        0.39888         6.58821         6.45504 
       0.405048         6.38673         6.24833 
       0.411186         6.18184         6.04962 
       0.417313         5.99551         5.86008 
       0.423458         5.79387         5.67972 
       0.429607         5.65156         5.50916 
       0.435692         5.49955         5.34974 
       0.441815         5.32708         5.19712 
       0.447964         5.16162          5.0503 
       0.454126         5.04164         4.90849 
       0.460267         4.92342         4.77161 
       0.466387         4.77968         4.63912 
        0.47254         4.65897         4.51011 
       0.478662         4.52664         4.38629 
       0.484765         4.41022         4.26758 
       0.490885         4.28465         4.15337 
       0.497035         4.16131         4.04351 
       0.503198         4.07189          3.9381 
       0.509342         3.95459         3.83712 
       0.515458         3.87046          3.7402 
       0.521598         3.77747         3.64615 
       0.527764         3.69823         3.55476 
       0.533884         3.58484         3.46687 
           0.54         3.50869         3.38178 
       0.546137         3.41392         3.29915 
       0.552299         3.34028         3.21902 
       0.558452         3.26228         3.14188 
       0.564573          3.1913         3.06782 
       0.570708         3.11899         2.99612 
       0.576825         3.04922           2.927 
       0.582926         2.97532         2.86029 
       0.589034         2.92109         2.79558 
       0.595184         2.86226         2.73243 
       0.601379         2.79001         2.67073 
       0.607522         2.72742         2.61136 
       0.613639         2.66217         2.55402 
       0.619772         2.61702         2.49827 
       0.625918         2.56093         2.44412 
       0.632068         2.50921         2.39162 
       0.638161          2.4564         2.34117 
         0.6443           2.404         2.29185 
       0.650464         2.35578         2.24378 
       0.656582         2.31704         2.19743 
       0.662703         2.26944         2.15236 
       0.668861         2.21284         2.10829 
       0.675024         2.17323         2.06542 
       0.681124         2.15076         2.02419 
       0.687237         2.09819           1.984 
       0.693381         2.04803         1.94474 
       0.699536         2.02169         1.90648 
       0.705665         1.98287         1.86942 
       0.711789         1.93776         1.83338 
       0.717957         1.90358         1.79806 
        0.72409         1.86942         1.76387 
       0.730186         1.84421         1.73077 
       0.736317         1.80256         1.69835 
       0.742472         1.77591         1.66665 
       0.748622         1.74608         1.63579 
        0.75476         1.70785         1.60578 
       0.760888         1.68502         1.57657 
       0.767043         1.64069         1.54798 
       0.773185         1.61937         1.52016 
       0.779291         1.60066         1.49319 
       0.785407         1.56915         1.46684 
       0.791564         1.54213         1.44095 
       0.797719          1.5151         1.41571 
       0.803834         1.48977         1.39124 
       0.809972          1.4656         1.36726 
       0.816124         1.44153         1.34379 
       0.822261         1.41975         1.32094 
       0.828378         1.39456         1.29869 
       0.834502         1.37214         1.27694 
       0.840667         1.35365         1.25555 
       0.846816         1.33026         1.23471 
       0.852925         1.30638         1.21447 
       0.859047         1.28679         1.19465 
       0.865192         1.26801         1.17521 
       0.871341          1.2504         1.15619 
       0.877463         1.22658         1.13767 
       0.883569         1.20934         1.11962 
       0.889708         1.19386         1.10186 
       0.895864         1.17585         1.08444 
       0.902008         1.15481         1.06744 
       0.908149         1.14011         1.05081 
       0.914301         1.12561         1.03452 
       0.920448         1.10936         1.01858 
       0.926574         1.09574         1.00304 
       0.932687         1.07866         0.98785 
       0.938823         1.05846        0.972926 
       0.944975         1.04701        0.958277 
       0.951105         1.02701        0.943983 
       0.957225         1.01414        0.930007 
       0.963368         1.00237        0.916266 
       0.969511        0.989991        0.902804 
       0.975621         0.97338        0.889685 
       0.981748        0.956075        0.876795 
       0.987916        0.944998        0.864079 
        0.99406        0.934811        0.851664 
        1.00019         0.92117        0.839518 
        1.00632        0.911912        0.827621 
        1.01246        0.898548        0.815937 
        1.01859        0.886892        0.804499 
        1.02471        0.871755        0.793294 
        1.03085        0.860004        0.782264 
        1.03698        0.851297        0.771467 
        1.04314        0.839773        0.760829 
        1.04929        0.831311        0.750417 
        1.05541         0.81667        0.740242 
        1.06154        0.808624        0.730231 
        1.06769        0.799016         0.72039 
        1.07382        0.788168        0.710763 
        1.07993        0.778489        0.701334 
        1.08607        0.769032        0.692038 
        1.09222        0.757933        0.682901 
        1.09836        0.750092         0.67394 
        1.10449        0.738926         0.66515 
        1.11063        0.729714        0.656507 
        1.11677        0.722723        0.648021 
         1.1229        0.711104          0.6397 
        1.12903         0.70497        0.631518 
        1.13518          0.6953        0.623473 
        1.14131        0.688148        0.615572 
        1.14745        0.681716        0.607813 
        1.15359        0.671853        0.600187 
        1.15973        0.664919        0.592688 
        1.16584        0.655918        0.585352 
        1.17197        0.647675        0.578129 
        1.17811        0.639814        0.571006 
        1.18424        0.632747        0.564024 
        1.19038        0.624586        0.557139 
        1.19652        0.620003        0.550372 
        1.20267        0.613387        0.543717 
        1.20881        0.603357        0.537174 
        1.21495        0.598074        0.530749 
        1.22108        0.591826         0.52443 
         1.2272        0.583587        0.518229 
        1.23334        0.577992        0.512114 
        1.23949        0.572843        0.506084 
        1.24562        0.565999        0.500167 
        1.25174        0.559869        0.494354 
        1.25789        0.552017        0.488616 
        1.26402        0.547439        0.482979 
        1.27014        0.539727        0.477444 
        1.27628        0.535707         0.47198 
        1.28244        0.530012         0.46659 
        1.28858        0.523066        0.461292 
        1.29471          0.5179        0.456089 
        1.30084        0.512592         0.45097 
        1.30697        0.508809        0.445922 
        1.31312        0.503058        0.440944 
        1.31925        0.497358        0.436058 
        1.32537        0.492439         0.43125 
        1.33151        0.487053        0.426498 
        1.33765        0.482004        0.421821 
        1.34378        0.476091        0.417222 
        1.34992        0.473433        0.412689 
        1.35606        0.467307        0.408214 
         1.3622        0.463007        0.403813 
        1.36833        0.459116        0.399487 
        1.37445        0.454574        0.395227 
        1.38059        0.449712        0.391016 
        1.38675        0.444663        0.386856 
        1.39288        0.439659        0.382773 
        1.39901        0.436706        0.378751 
        1.40515        0.431795        0.374778 
         1.4113        0.428973        0.370863 
        1.41742        0.424188        0.367019 
        1.42355        0.418366        0.363223 
         1.4297        0.416427        0.359468 
        1.43585         0.41119        0.355768 
        1.44198        0.408051        0.352135 
        1.44809        0.403386        0.348559 
        1.45423        0.400297        0.345019 
        1.46036          0.3963        0.341535 
        1.46649        0.392483        0.338098 
        1.47263         0.38788        0.334705 
        1.47877        0.386685        0.331361 
        1.48491        0.380692        0.328057 
        1.49104        0.379443        0.324805 
        1.49718         0.37462        0.321594 
        1.50333        0.371778        0.318422 
        1.50947        0.368677        0.315299 
         1.5156         0.36487        0.312222 
        1.52172        0.361976        0.309187 
        1.52787        0.357572        0.306186 
          1.534        0.355554        0.303228 
        1.54013        0.352242        0.300312 
        1.54627         0.34921         0.29743 
        1.55241         0.34587        0.294584 
        1.55855        0.342833         0.29178 
        1.56467        0.340185         0.28902 
         1.5708        0.336696        0.286288 
        1.57695        0.333745        0.283587 
        1.58308        0.329975        0.280927 
        1.58922        0.328383        0.278299 
        1.59535        0.324906        0.275706 
         1.6015        0.322377        0.273142 
        1.60764        0.319519        0.270611 
        1.61376        0.316817         0.26812 
        1.61989        0.313906        0.265658 
        1.62604        0.311081        0.263222 
        1.63218         0.30931        0.260818 
        1.63831        0.306057        0.258449 
        1.64444        0.303951        0.256108 
        1.65059        0.300664        0.253791 
        1.65673        0.298556        0.251505 
        1.66285        0.296475        0.249254 
        1.66898        0.293678         0.24703 
        1.67512        0.291069        0.244828 
        1.68127        0.288482        0.242651 
         1.6874        0.286671        0.240505 
        1.69353        0.284047        0.238387 
        1.69967        0.281644        0.236289 
        1.70581        0.279974        0.234217 
        1.71193        0.277887        0.232178 
        1.71806        0.275304        0.230158 
        1.72421        0.272949        0.228159 
        1.73035        0.270541        0.226186 
        1.73649        0.269163        0.224236 
        1.74262         0.26619        0.222311 
        1.74876        0.264813        0.220407 
        1.75489        0.262714         0.21853 
        1.76101        0.260365        0.216675 
        1.76715        0.258565        0.214838 
        1.77329        0.256249        0.213021 
        1.77943        0.254209        0.211224 
        1.78557        0.252993        0.209451 
        1.79171        0.250997        0.207697 
        1.79785        0.248559        0.205963 
        1.80399        0.246224        0.204249 
        1.81012        0.245083        0.202557 
        1.81625        0.243484        0.200885 
        1.82239        0.241925        0.199229 
        1.82853        0.239437        0.197592 
        1.83466        0.237564        0.195976 
        1.84078        0.235847        0.194379 
        1.84692        0.234204        0.192797 
        1.85306        0.232639        0.191231 
         1.8592        0.230819        0.189685 
        1.86533        0.229413        0.188157 
        1.87147        0.227281        0.186643 
        1.87761        0.225619        0.185146 
        1.88375        0.223944        0.183667 
        1.88988        0.222171        0.182205 
        1.89601        0.220193        0.180759 
        1.90215        0.219053        0.179327 
        1.90829        0.217163        0.177912 
        1.91442        0.216243        0.176511 
        1.92056        0.214923        0.175127 
         1.9267        0.212969        0.173756 
        1.93284        0.211132        0.172399 
        1.93897        0.209924        0.171059 
        1.94509        0.208602        0.169736 
        1.95123        0.206658        0.168424 
        1.95737        0.205494        0.167125 
        1.96349        0.203992        0.165842 
        1.96964        0.202476         0.16457 
        1.97578        0.201021         0.16331 
        1.98192        0.200087        0.162066 
        1.98805        0.198709        0.160834 
        1.99419          0.1976        0.159616 
        2.00033        0.195853        0.158409 
        2.00647        0.194483        0.157215 
         2.0126        0.193316        0.156036 
        2.01874        0.192066        0.154866 
        2.02488        0.190755        0.153708 
        2.03101        0.189151        0.152564 
        2.03714        0.188701        0.151432 
        2.04328        0.186606         0.15031 
        2.04941        0.185908        0.149201 
        2.05554        0.184619        0.148104 
        2.06167        0.183279        0.147016 
        2.06781        0.181579        0.145939 
        2.07396        0.180946        0.144871 
        2.08009        0.179603        0.143816 
        2.08622        0.178608        0.142772 
        2.09237         0.17734        0.141737 
        2.09851        0.175885        0.140712 
        2.10464        0.174969        0.139698 
        2.11077        0.173643        0.138696 
        2.11691        0.172814        0.137701 
        2.12305         0.17135        0.136716 
        2.12918        0.170279        0.135743 
        2.13531        0.169391         0.13478 
        2.14145        0.168204        0.133823 
         2.1476        0.167242        0.132875 
        2.15372        0.166315         0.13194 
        2.15985        0.165022        0.131014 
        2.16599        0.163859        0.130094 
        2.17213         0.16321        0.129183 
        2.17827        0.162016        0.128282 
         2.1844        0.161139         0.12739 
        2.19054        0.160215        0.126506 
        2.19666        0.159194        0.125631 
         2.2028        0.157776        0.124764 
        2.20893        0.157119        0.123905 
        2.21508        0.156178        0.123053 
        2.22122        0.155313        0.122209 
        2.22736        0.154143        0.121374 
        2.23349        0.153082        0.120547 
        2.23962        0.152302        0.119728 
        2.24577        0.151533        0.118915 
         2.2519        0.150553        0.118111 
        2.25802        0.149576        0.117316 
        2.26417        0.148914        0.116526 
        2.27031        0.147792        0.115742 
        2.27644        0.147446        0.114968 
        2.28257         0.14621        0.114201 
        2.28872        0.145348         0.11344 
        2.29486        0.144557        0.112685 
        2.30099         0.14347        0.111939 
        2.30712        0.142791        0.111199 
        2.31326         0.14177        0.110465 
         2.3194        0.141163        0.109738 
        2.32553        0.140385        0.109018 
        2.33166        0.139465        0.108306 
         2.3378        0.138676        0.107598 
        2.34394        0.137897        0.106897 
        2.35007        0.137147        0.106203 
        2.35619        0.136485        0.105516 
        2.36233        0.135486        0.104833 
        2.36848        0.134829        0.104156 
        2.37462        0.134269        0.103485 
        2.38075        0.133379        0.102821 
        2.38689         0.13267        0.102162 
        2.39303        0.131932        0.101509 
        2.39916         0.13107        0.100863 
        2.40529        0.130349        0.100222 
        2.41143        0.129416       0.0995859 
        2.41757        0.128868       0.0989553 
         2.4237        0.128239       0.0983313 
        2.42983        0.127678       0.0977127 
        2.43598        0.126776       0.0970978 
        2.44211        0.125736       0.0964892 
        2.44823        0.125554       0.0958872 
        2.45437         0.12479       0.0952886 
        2.46052        0.124067       0.0946946 
        2.46665        0.123374       0.0941067 
        2.47279        0.122626        0.093524 
        2.47892        0.122314       0.0929459 
        2.48507        0.121276        0.092372 
         2.4912        0.120843       0.0918041 
