# k  (h/Mpc)    P(k)  (Mpc/h)^3    P_linear(k)  (Mpc/h)^3
     0.00783031         7751.97         7866.08 
       0.013688         10324.7           10283 
       0.019231         10935.6         10945.3 
      0.0249154         10449.2         10637.9 
      0.0312784         9619.64          9723.6 
      0.0375637         8657.26         8690.54 
      0.0433917         7699.21         7846.24 
      0.0492413         7101.79         7180.86 
      0.0555754         6445.51         6642.71 
      0.0619321         6180.79         6214.92 
       0.067871         5672.37         5840.48 
      0.0738098         5277.28         5442.15 
      0.0800417         4782.37         4986.28 
      0.0862327         4376.93         4517.74 
      0.0921407         4012.68         4092.91 
      0.0982031         3623.94         3713.37 
       0.104506         3399.11         3398.33 
       0.110769         3158.81         3163.64 
       0.116806         2965.71         2993.53 
       0.122832         2840.46         2853.72 
       0.129052         2654.99         2715.81 
       0.135211         2519.52         2568.76 
       0.141259         2402.24         2409.71 
       0.147318         2260.99         2241.96 
       0.153489         2080.06          2074.8 
       0.159709            1965         1922.92 
       0.165845         1886.28         1797.42 
       0.171974         1775.98         1697.69 
       0.178125         1694.47         1618.98 
       0.184229          1634.1         1554.23 
        0.19034         1536.52         1494.23 
       0.196428          1510.5         1432.67 
       0.202534          1459.3         1366.01 
       0.208729         1389.14         1294.04 
       0.214876         1319.02         1221.77 
       0.220989         1279.65         1153.41 
       0.227147         1212.77         1091.73 
        0.23329         1166.81         1039.13 
       0.239377         1146.47          995.52 
       0.245482         1075.12          958.32 
       0.251667         1067.83         924.477 
       0.257832         1030.27         891.899 
       0.263955         997.353         858.858 
       0.270079         964.747         824.518 
        0.27624         953.877         789.267 
       0.282372         912.671         754.691 
        0.28843         896.314         722.406 
       0.294538         854.153         692.721 
       0.300721         851.242         666.017 
        0.30691         813.931          642.38 
       0.313033         798.958         621.286 
       0.319153         778.776         601.569 
       0.325316         755.324         582.259 
        0.33145          736.02         563.072 
       0.337538         727.786         543.943 
       0.343633         706.088         524.911 
       0.349808         683.978          506.17 
       0.355968          679.48         488.403 
       0.362074         667.567         472.029 
       0.368217          649.72         456.841 
       0.374374         624.733          442.82 
       0.380519         620.558         429.756 
       0.386598         606.773         417.441 
       0.392688         604.049         405.484 
        0.39888         586.697         393.531 
       0.405048         576.599         381.807 
       0.411186         566.505         370.394 
       0.417313         556.594         359.351 
       0.423458          547.67         348.754 
       0.429607         536.861         338.719 
       0.435692         525.068          329.34 
       0.441815          522.17          320.42 
       0.447964         511.878         311.909 
       0.454126         497.633         303.717 
       0.460267          491.62         295.801 
       0.466387         486.292         288.125 
        0.47254         476.654         280.596 
       0.478662          475.47         273.298 
       0.484765          462.38         266.252 
       0.490885         457.634         259.453 
       0.497035         449.997           252.9 
       0.503198         442.285         246.608 
       0.509342         438.966           240.6 
       0.515458         434.814         234.857 
       0.521598         427.004         229.292 
       0.527764         418.723         223.871 
       0.533884         416.356          218.64 
           0.54         410.953         213.562 
       0.546137         409.582         208.612 
       0.552299         401.613          203.79 
       0.558452         398.617         199.129 
       0.564573         392.181         194.646 
       0.570708         386.253         190.311 
       0.576825         380.128         186.138 
       0.582926         377.816         182.113 
       0.589034         373.681         178.205 
       0.595184         370.415         174.383 
       0.601379          366.89         170.642 
       0.607522         360.665         167.037 
       0.613639          359.41         163.549 
       0.619772         350.456         160.151 
       0.625918         349.488         156.843 
       0.632068          344.84         153.628 
       0.638161         343.575         150.536 
         0.6443         337.342         147.511 
       0.650464         335.043         144.564 
       0.656582         333.935         141.721 
       0.662703         330.582         138.956 
       0.668861         325.171         136.249 
       0.675024         322.207         133.611 
       0.681124         321.021         131.068 
       0.687237         316.958         128.585 
       0.693381         312.662         126.155 
       0.699536         310.305         123.784 
       0.705665         308.703         121.487 
       0.711789         304.845         119.251 
       0.717957         302.792         117.059 
        0.72409         299.714         114.935 
       0.730186         296.542         112.878 
       0.736317         294.053         110.861 
       0.742472         292.884         108.885 
       0.748622         290.428          106.96 
        0.75476         287.919         105.085 
       0.760888         284.189         103.258 
       0.767043         283.701         101.468 
       0.773185         280.262         99.7241 
       0.779291         275.784         98.0318 
       0.785407           275.1          96.377 
       0.791564          272.62         94.7507 
       0.797719           270.1         93.1634 
       0.803834         268.608         91.6231 
       0.809972         266.192         90.1127 
       0.816124         266.567         88.6334 
       0.822261         262.068         87.1917 
       0.828378         260.574         85.7868 
       0.834502          260.19          84.412 
       0.840667         255.883         83.0586 
       0.846816         255.021         81.7391 
       0.852925         253.036         80.4568 
       0.859047         251.335         79.1997 
       0.865192         249.574         77.9656 
       0.871341         246.989         76.7572 
       0.877463         245.637         75.5803 
       0.883569         243.708         74.4313 
       0.889708         241.908         73.3006 
       0.895864         239.097         72.1907 
       0.902008         238.636         71.1064 
       0.908149         237.306         70.0453 
       0.914301         234.651         69.0044 
       0.920448         232.851         67.9858 
       0.926574         231.797         66.9915 
       0.932687         231.024         66.0195 
       0.938823         228.496         65.0634 
       0.944975         226.941         64.1243 
       0.951105         225.872         63.2072 
       0.957225         223.355         62.3099 
       0.963368          221.25          61.427 
       0.969511         220.269         60.5614 
       0.975621         218.718         59.7174 
       0.981748          218.73         58.8873 
       0.987916          215.85          58.068 
        0.99406         214.594         57.2675 
        1.00019         214.149         56.4838 
        1.00632         212.113         55.7156 
        1.01246         210.804         54.9606 
        1.01859         209.499          54.221 
        1.02471         208.287         53.4961 
        1.03085         205.969          52.782 
        1.03698         204.771         52.0826 
        1.04314         203.744          51.393 
        1.04929         202.024         50.7176 
        1.05541         201.371         50.0572 
        1.06154         199.913         49.4071 
        1.06769         199.601         48.7676 
        1.07382         198.099         48.1416 
        1.07993         196.526         47.5282 
        1.08607         195.297          46.923 
        1.09222         194.196         46.3278 
        1.09836         192.456         45.7438 
        1.10449         190.986         45.1705 
        1.11063         189.861         44.6066 
        1.11677         189.389         44.0526 
         1.1229         187.474         43.5091 
        1.12903         186.646         42.9743 
        1.13518          186.15         42.4481 
        1.14131         184.374         41.9312 
        1.14745         183.793         41.4232 
        1.15359         182.274         40.9236 
        1.15973         181.988         40.4321 
        1.16584         180.023         39.9509 
        1.17197         179.335          39.477 
        1.17811         178.326         39.0093 
        1.18424         177.181         38.5506 
        1.19038         176.563         38.0981 
        1.19652         175.388          37.653 
        1.20267         174.305         37.2152 
        1.20881          173.11         36.7844 
        1.21495         172.115         36.3611 
        1.22108         171.479         35.9447 
         1.2272          170.08         35.5358 
        1.23334          169.11         35.1323 
        1.23949         167.362         34.7342 
        1.24562         167.142         34.3434 
        1.25174         165.151         33.9592 
        1.25789         164.725         33.5798 
        1.26402          164.01         33.2069 
        1.27014          162.84         32.8406 
        1.27628         162.165         32.4788 
        1.28244         161.349         32.1218 
        1.28858         160.497         31.7707 
        1.29471         158.801         31.4256 
        1.30084         158.152         31.0861 
        1.30697          157.36          30.751 
        1.31312         156.985         30.4205 
        1.31925         155.593         30.0959 
        1.32537         155.126         29.7764 
        1.33151         153.451         29.4604 
        1.33765          153.11         29.1492 
        1.34378         151.972         28.8432 
        1.34992          151.63         28.5414 
        1.35606         150.543         28.2433 
         1.3622         149.688           27.95 
        1.36833         148.744         27.6616 
        1.37445         147.651         27.3774 
        1.38059         147.519         27.0964 
        1.38675         146.231         26.8187 
        1.39288         145.731          26.546 
        1.39901         145.091         26.2773 
        1.40515          144.22         26.0117 
         1.4113         142.552         25.7499 
        1.41742          142.46         25.4927 
        1.42355          141.35         25.2386 
         1.4297         140.532         24.9872 
        1.43585         139.471         24.7393 
        1.44198         139.341         24.4958 
        1.44809         138.153          24.256 
        1.45423         137.098         24.0186 
        1.46036         136.852         23.7847 
        1.46649         136.133          23.554 
        1.47263         135.594         23.3261 
        1.47877         134.724         23.1014 
        1.48491         133.645         22.8793 
        1.49104         132.963         22.6606 
        1.49718         132.008         22.4446 
        1.50333         131.437         22.2311 
        1.50947         130.622         22.0208 
         1.5156         130.229         21.8136 
        1.52172         129.213          21.609 
        1.52787         128.887         21.4067 
          1.534         128.174         21.2073 
        1.54013         127.105         21.0106 
        1.54627         126.517          20.816 
        1.55241         125.846         20.6239 
        1.55855         125.353         20.4345 
        1.56467         124.569         20.2481 
         1.5708         123.766         20.0634 
        1.57695         123.386         19.8808 
        1.58308         122.294         19.7009 
        1.58922         122.208         19.5231 
        1.59535         121.371         19.3475 
         1.6015         120.805         19.1739 
        1.60764         119.937         19.0026 
        1.61376         119.474         18.8338 
        1.61989         118.885         18.6669 
        1.62604         118.018         18.5017 
        1.63218          117.67         18.3386 
        1.63831         116.819         18.1778 
        1.64444         116.245          18.019 
        1.65059         115.544         17.8616 
        1.65673         114.757         17.7064 
        1.66285         114.585         17.5534 
        1.66898         113.675         17.4021 
        1.67512          113.11         17.2524 
        1.68127         112.427         17.1043 
         1.6874         111.753         16.9583 
        1.69353         111.228         16.8141 
        1.69967         110.701         16.6712 
        1.70581          110.17         16.5301 
        1.71193         109.703         16.3911 
        1.71806         108.746         16.2535 
        1.72421         108.467         16.1171 
        1.73035         107.646         15.9825 
        1.73649         107.124         15.8495 
        1.74262         106.647         15.7181 
        1.74876         106.113         15.5881 
        1.75489         105.347         15.4598 
        1.76101         105.056         15.3331 
        1.76715         104.192         15.2076 
        1.77329         103.895         15.0833 
        1.77943         103.367         14.9604 
        1.78557         102.872         14.8391 
        1.79171         102.205          14.719 
        1.79785         101.721         14.6003 
        1.80399         101.224          14.483 
        1.81012          100.75          14.367 
        1.81625         100.024         14.2525 
        1.82239         99.7099          14.139 
        1.82853         99.3429         14.0267 
        1.83466         98.5125         13.9159 
        1.84078         98.2861         13.8063 
        1.84692         97.4941         13.6978 
        1.85306         96.9483         13.5903 
         1.8592          96.334         13.4841 
        1.86533         95.9872         13.3791 
        1.87147         95.2054         13.2751 
        1.87761         94.9549         13.1722 
        1.88375         94.5864         13.0705 
        1.88988         93.9763           12.97 
        1.89601         93.4826         12.8705 
        1.90215         93.1126          12.772 
        1.90829         92.5582         12.6745 
        1.91442         92.1304         12.5781 
        1.92056         91.5714         12.4828 
         1.9267         91.1549         12.3883 
        1.93284          90.332         12.2948 
        1.93897         90.1088         12.2024 
        1.94509         89.5636         12.1112 
        1.95123         89.1092         12.0207 
        1.95737         88.9844          11.931 
        1.96349         88.2849         11.8425 
        1.96964         87.5957         11.7547 
        1.97578         87.5087         11.6677 
        1.98192         86.9178         11.5817 
        1.98805         86.4336         11.4966 
        1.99419         85.8279         11.4124 
        2.00033         85.6084          11.329 
        2.00647           85.18         11.2464 
         2.0126         84.6059         11.1648 
        2.01874         84.1053         11.0839 
        2.02488         83.8941         11.0038 
        2.03101         83.4832         10.9245 
        2.03714         82.8023         10.8462 
        2.04328         82.4849         10.7685 
        2.04941          81.881         10.6916 
        2.05554         81.6328         10.6156 
        2.06167         81.3039         10.5402 
        2.06781         80.7642         10.4655 
        2.07396         80.3733         10.3914 
        2.08009         80.0128         10.3182 
        2.08622         79.5837         10.2458 
        2.09237          79.228         10.1739 
        2.09851         78.8913         10.1027 
        2.10464         78.4097         10.0323 
        2.11077         77.8626          9.9627 
        2.11691         77.6398         9.89358 
        2.12305         77.1908         9.82512 
        2.12918         76.7658         9.75747 
        2.13531          76.395         9.69046 
        2.14145         75.9133         9.62392 
         2.1476          75.711         9.55793 
        2.15372         75.3122          9.4929 
        2.15985         74.8326         9.42841 
        2.16599          74.484         9.36433 
        2.17213         74.1298         9.30092 
        2.17827          73.752         9.23812 
         2.1844         73.2365         9.17595 
        2.19054         72.9542         9.11434 
        2.19666         72.5996         9.05338 
         2.2028         72.3699         8.99293 
        2.20893         71.9455           8.933 
        2.21508         71.4994         8.87355 
        2.22122         71.3337         8.81462 
        2.22736         70.8116         8.75636 
        2.23349         70.5286         8.69863 
        2.23962         70.0468          8.6414 
        2.24577         69.6454         8.58464 
         2.2519         69.4297         8.52847 
        2.25802         69.0217         8.47289 
        2.26417         68.6338         8.41765 
        2.27031         68.4241         8.36286 
        2.27644         67.9375         8.30871 
        2.28257         67.6345         8.25506 
        2.28872         67.3706         8.20177 
        2.29486         67.0755         8.14897 
        2.30099         66.6671         8.09674 
        2.30712         66.3604         8.04495 
        2.31326          65.945         7.99353 
         2.3194         65.7428         7.94259 
        2.32553         65.2888         7.89217 
        2.33166         64.9099         7.84222 
         2.3378         64.6238         7.79264 
        2.34394         64.1612         7.74347 
        2.35007         63.9514         7.69479 
        2.35619         63.6407         7.64659 
        2.36233         63.4166          7.5987 
        2.36848         62.9853         7.55111 
        2.37462         62.7445         7.50404 
        2.38075         62.4882         7.45741 
        2.38689         62.1452         7.41114 
        2.39303         61.8774         7.36527 
        2.39916          61.693         7.31984 
        2.40529         61.2337          7.2748 
        2.41143         60.9287         7.23011 
        2.41757         60.6678         7.18577 
         2.4237         60.3159         7.14189 
        2.42983           59.95         7.09838 
        2.43598          59.663         7.05512 
        2.44211         59.3804         7.01229 
        2.44823         59.1603         6.96992 
        2.45437         58.7459         6.92778 
        2.46052         58.4311         6.88595 
        2.46665         58.2033         6.84455 
        2.47279         57.9603          6.8035 
        2.47892         57.7577         6.76276 
        2.48507         57.3648         6.72232 
         2.4912         57.1943         6.68229 
