# k  (h/Mpc)    P(k)  (Mpc/h)^3    P_linear(k)  (Mpc/h)^3
     0.00783031          7708.8         7825.45 
       0.013688         10088.7         10049.6 
       0.019231         10627.3         10636.8 
      0.0249154         10163.4           10344 
      0.0312784         9388.43         9488.58 
      0.0375637         8465.06         8497.79 
      0.0433917         7516.17         7656.61 
      0.0492413         6892.27         6964.82 
      0.0555754         6203.94         6386.23 
      0.0619321         5908.13         5931.01 
       0.067871         5408.32         5558.47 
      0.0738098         5043.03         5190.58 
      0.0800417         4598.01         4785.85 
      0.0862327         4237.12         4368.51 
      0.0921407         3899.65         3977.22 
      0.0982031         3521.34         3608.99 
       0.104506         3285.47          3283.1 
       0.110769         3027.04         3024.63 
       0.116806         2817.48         2831.34 
       0.122832         2681.96         2678.33 
       0.129052         2502.69         2543.17 
       0.135211         2383.02         2414.74 
       0.141259         2284.28         2283.24 
       0.147318         2162.99         2143.46 
       0.153489         1998.76         1997.05 
       0.159709         1889.14         1853.74 
       0.165845         1806.03         1724.93 
       0.171974         1690.44         1614.26 
       0.178125         1603.79         1522.64 
       0.184229         1538.67         1448.58 
        0.19034         1443.31         1386.31 
       0.196428         1419.68         1330.39 
       0.202534         1374.93         1275.49 
       0.208729         1312.87         1217.95 
       0.214876         1249.66         1158.44 
       0.220989         1213.83         1098.28 
       0.227147         1149.55         1039.24 
        0.23329         1103.33         984.496 
       0.239377         1080.62         936.084 
       0.245482          1010.6         893.869 
       0.251667         1001.92         856.941 
       0.257832         966.071         824.511 
       0.263955         935.416         794.846 
       0.270079         905.169          766.15 
        0.27624         895.725         737.274 
       0.282372         857.561         708.204 
        0.28843         841.471         679.503 
       0.294538         801.788         651.246 
       0.300721         798.116         624.127 
        0.30691         762.313         599.038 
       0.313033         747.712         576.492 
       0.319153         727.577         556.092 
       0.325316         705.592         537.306 
        0.33145         687.355         519.835 
       0.337538         679.703         503.222 
       0.343633         659.153         486.949 
       0.349808          638.59         470.695 
       0.355968         633.986         454.715 
       0.362074         622.342         439.295 
       0.368217         605.552         424.392 
       0.374374         582.405         410.252 
       0.380519         577.836         397.031 
       0.386598         564.832         384.804 
       0.392688         562.058          373.33 
        0.39888          545.77         362.289 
       0.405048         536.216         351.765 
       0.411186         526.437         341.642 
       0.417313          517.16         331.791 
       0.423458         508.862         322.163 
       0.429607         498.509         312.803 
       0.435692         487.402         303.851 
       0.441815         484.473         295.206 
       0.447964         474.985         286.926 
       0.454126         461.105         279.023 
       0.460267         455.565         271.524 
       0.466387         450.524         264.386 
        0.47254         441.544         257.491 
       0.478662         440.233         250.866 
       0.484765         427.965         244.468 
       0.490885         423.472         238.241 
       0.497035         416.391         232.163 
       0.503198         408.878         226.266 
       0.509342         405.823         220.588 
       0.515458         401.649         215.143 
       0.521598         394.587         209.879 
       0.527764         387.082         204.793 
       0.533884         384.502         199.934 
           0.54           379.4          195.25 
       0.546137         378.141         190.702 
       0.552299         370.657         186.276 
       0.558452         367.613          181.99 
       0.564573         361.675         177.852 
       0.570708          356.03         173.828 
       0.576825         350.607         169.936 
       0.582926         348.086         166.175 
       0.589034         344.207         162.527 
       0.595184         341.207         158.973 
       0.601379         337.919         155.508 
       0.607522         331.959         152.179 
       0.613639         330.721         148.963 
       0.619772         322.668         145.832 
       0.625918         321.493         142.784 
       0.632068         317.246         139.821 
       0.638161         316.017         136.967 
         0.6443         310.383         134.171 
       0.650464         308.096         131.444 
       0.656582         306.861         128.811 
       0.662703         303.624         126.252 
       0.668861           298.7         123.749 
       0.675024         295.893         121.315 
       0.681124         294.795         118.972 
       0.687237         290.902         116.688 
       0.693381         286.886         114.453 
       0.699536          284.75         112.273 
       0.705665         283.422         110.159 
       0.711789         279.591           108.1 
       0.717957         277.832         106.081 
        0.72409         274.888         104.124 
       0.730186         271.859          102.23 
       0.736317         269.551         100.373 
       0.742472         268.412         98.5561 
       0.748622         266.257         96.7865 
        0.75476         263.968         95.0646 
       0.760888         260.432         93.3877 
       0.767043         259.843         91.7448 
       0.773185         256.743          90.145 
       0.779291         252.571         88.5927 
       0.785407         251.912         87.0749 
       0.791564         249.627         85.5833 
       0.797719         247.133         84.1277 
       0.803834         245.869         82.7155 
       0.809972         243.565         81.3309 
       0.816124         243.923         79.9753 
       0.822261         239.823         78.6546 
       0.828378         238.311         77.3679 
       0.834502         237.996         76.1092 
       0.840667         234.062         74.8705 
       0.846816         233.155         73.6631 
       0.852925         231.373         72.4901 
       0.859047         229.602         71.3404 
       0.865192         228.066         70.2119 
       0.871341         225.641         69.1072 
       0.877463         224.399         68.0314 
       0.883569         222.577         66.9814 
       0.889708         220.991         65.9483 
       0.895864         218.433         64.9345 
       0.902008         217.851         63.9442 
       0.908149         216.698         62.9753 
       0.914301         214.275          62.025 
       0.920448         212.671         61.0954 
       0.926574         211.705         60.1881 
       0.932687         210.826         59.3014 
       0.938823         208.492         58.4294 
       0.944975         206.955          57.573 
       0.951105         206.029         56.7371 
       0.957225         203.665         55.9192 
       0.963368         201.855         55.1148 
       0.969511          200.98         54.3263 
       0.975621         199.672         53.5575 
       0.981748         199.441         52.8018 
       0.987916         196.823          52.056 
        0.99406         195.749         51.3274 
        1.00019         195.192         50.6144 
        1.00632         193.388         49.9156 
        1.01246         192.207          49.229 
        1.01859         190.799         48.5566 
        1.02471         189.882         47.8976 
        1.03085         187.799         47.2487 
        1.03698         186.596         46.6132 
        1.04314         185.605         45.9867 
        1.04929         184.078         45.3733 
        1.05541         183.431         44.7736 
        1.06154         182.109         44.1834 
        1.06769         181.895         43.6029 
        1.07382         180.505         43.0348 
        1.07993         179.032         42.4782 
        1.08607         177.808         41.9292 
        1.09222         176.846         41.3893 
        1.09836          175.29         40.8597 
        1.10449         174.023         40.3399 
        1.11063         172.975         39.8287 
        1.11677         172.478         39.3265 
         1.1229         170.639         38.8339 
        1.12903           169.9         38.3493 
        1.13518         169.584         37.8726 
        1.14131         167.871         37.4043 
        1.14745         167.245         36.9443 
        1.15359         165.914         36.4919 
        1.15973         165.642         36.0469 
        1.16584         163.914         35.6114 
        1.17197         163.185         35.1825 
        1.17811         162.282         34.7594 
        1.18424         161.247         34.3444 
        1.19038          160.63         33.9351 
        1.19652         159.548         33.5327 
        1.20267         158.576         33.1368 
        1.20881         157.485         32.7473 
        1.21495         156.563         32.3648 
        1.22108         155.908         31.9885 
         1.2272         154.703         31.6191 
        1.23334         153.804         31.2547 
        1.23949         152.143         30.8952 
        1.24562         151.989         30.5424 
        1.25174         150.253         30.1956 
        1.25789         149.842         29.8532 
        1.26402         149.192         29.5167 
        1.27014         148.092         29.1862 
        1.27628         147.465         28.8599 
        1.28244         146.649         28.5379 
        1.28858         145.917         28.2213 
        1.29471         144.407         27.9102 
        1.30084         143.826         27.6041 
        1.30697         143.098         27.3021 
        1.31312         142.786         27.0042 
        1.31925         141.433         26.7118 
        1.32537         141.028         26.4239 
        1.33151         139.473         26.1393 
        1.33765         139.116         25.8591 
        1.34378         138.096         25.5835 
        1.34992          137.87         25.3118 
        1.35606         136.843         25.0434 
         1.3622         135.996         24.7794 
        1.36833         135.195         24.5199 
        1.37445         134.233         24.2642 
        1.38059         134.037         24.0114 
        1.38675         132.869         23.7615 
        1.39288         132.352         23.5163 
        1.39901         131.786         23.2746 
        1.40515         131.047         23.0358 
         1.4113         129.522         22.8004 
        1.41742         129.459         22.5692 
        1.42355         128.437         22.3408 
         1.4297         127.686         22.1149 
        1.43585         126.775         21.8922 
        1.44198         126.603         21.6735 
        1.44809          125.49         21.4581 
        1.45423          124.58         21.2449 
        1.46036         124.346          21.035 
        1.46649         123.669         20.8278 
        1.47263         123.155         20.6233 
        1.47877         122.419         20.4216 
        1.48491          121.45         20.2223 
        1.49104         120.806         20.0261 
        1.49718         119.992         19.8324 
        1.50333         119.444         19.6409 
        1.50947         118.642         19.4524 
         1.5156         118.343         19.2666 
        1.52172         117.395         19.0832 
        1.52787          117.15         18.9019 
          1.534         116.476         18.7231 
        1.54013         115.498         18.5469 
        1.54627         114.915         18.3726 
        1.55241         114.341         18.2005 
        1.55855         113.886         18.0308 
        1.56467         113.175         17.8638 
         1.5708         112.428         17.6985 
        1.57695         112.151          17.535 
        1.58308         111.038         17.3739 
        1.58922         110.987         17.2147 
        1.59535          110.29         17.0576 
         1.6015         109.732         16.9023 
        1.60764         108.983         16.7489 
        1.61376         108.509         16.5979 
        1.61989         107.992         16.4486 
        1.62604          107.19         16.3009 
        1.63218         106.939          16.155 
        1.63831         106.142         16.0113 
        1.64444         105.613         15.8692 
        1.65059         104.896         15.7286 
        1.65673          104.24         15.5898 
        1.66285         104.051         15.4531 
        1.66898         103.248          15.318 
        1.67512         102.709         15.1842 
        1.68127         102.101         15.0519 
         1.6874         101.565         14.9215 
        1.69353         101.041         14.7927 
        1.69967          100.48         14.6651 
        1.70581         100.088         14.5391 
        1.71193         99.6629          14.415 
        1.71806         98.7725         14.2922 
        1.72421         98.5389         14.1705 
        1.73035         97.7997         14.0504 
        1.73649         97.3339         13.9317 
        1.74262         96.8612         13.8144 
        1.74876          96.384         13.6985 
        1.75489         95.7023         13.5841 
        1.76101         95.3996          13.471 
        1.76715         94.7309         13.3591 
        1.77329         94.3759         13.2483 
        1.77943         93.9057         13.1388 
        1.78557         93.4585         13.0306 
        1.79171         92.8413         12.9236 
        1.79785         92.4299         12.8179 
        1.80399         91.9521         12.7133 
        1.81012         91.5412           12.61 
        1.81625         90.8961         12.5079 
        1.82239         90.5234         12.4068 
        1.82853         90.2223         12.3069 
        1.83466          89.511         12.2082 
        1.84078         89.2177         12.1106 
        1.84692         88.5819          12.014 
        1.85306         88.1157         11.9183 
         1.8592         87.5144         11.8237 
        1.86533         87.1918         11.7303 
        1.87147          86.507         11.6378 
        1.87761         86.2395         11.5462 
        1.88375         85.9628         11.4557 
        1.88988         85.4158         11.3663 
        1.89601         84.9136         11.2778 
        1.90215         84.5675         11.1902 
        1.90829         84.1372         11.1035 
        1.91442         83.6304         11.0178 
        1.92056         83.1581          10.933 
         1.9267         82.8056         10.8491 
        1.93284         82.0567          10.766 
        1.93897         81.8493         10.6839 
        1.94509         81.2911         10.6028 
        1.95123         80.9374         10.5224 
        1.95737         80.8287         10.4427 
        1.96349         80.1951         10.3641 
        1.96964         79.6257         10.2861 
        1.97578         79.4809         10.2088 
        1.98192         78.9877         10.1325 
        1.98805         78.5923         10.0569 
        1.99419         77.9999         9.98216 
        2.00033         77.7963          9.9081 
        2.00647         77.3998         9.83482 
         2.0126         76.8484         9.76241 
        2.01874         76.4201         9.69061 
        2.02488         76.2523         9.61947 
        2.03101         75.8582         9.54918 
        2.03714         75.2327         9.47966 
        2.04328         74.9778         9.41075 
        2.04941         74.4251         9.34259 
        2.05554          74.134         9.27514 
        2.06167         73.9171         9.20828 
        2.06781           73.42         9.14206 
        2.07396         73.0111          9.0764 
        2.08009          72.733         9.01149 
        2.08622         72.3063          8.9473 
        2.09237         72.0143          8.8836 
        2.09851         71.7046         8.82052 
        2.10464         71.2514         8.75815 
        2.11077         70.7701         8.69645 
        2.11691         70.5365         8.63522 
        2.12305         70.1376         8.57457 
        2.12918         69.7513         8.51465 
        2.13531         69.4103          8.4553 
        2.14145         69.0147         8.39637 
         2.1476         68.8234         8.33794 
        2.15372         68.4424         8.28036 
        2.15985         68.0164         8.22327 
        2.16599         67.6757         8.16655 
        2.17213         67.3466         8.11042 
        2.17827         67.0135         8.05484 
         2.1844         66.5168         7.99983 
        2.19054         66.2569         7.94531 
        2.19666         66.0061         7.89138 
         2.2028         65.7799          7.8379 
        2.20893         65.3923         7.78489 
        2.21508          65.025         7.73231 
        2.22122         64.8161          7.6802 
        2.22736          64.358         7.62868 
        2.23349         64.0804         7.57764 
        2.23962         63.6681         7.52705 
        2.24577         63.3106         7.47687 
         2.2519          63.094         7.42721 
        2.25802         62.7419         7.37809 
        2.26417         62.3848         7.32928 
        2.27031         62.1714         7.28086 
        2.27644         61.7394         7.23302 
        2.28257         61.4783         7.18561 
        2.28872         61.2218         7.13854 
        2.29486         60.9369         7.09189 
        2.30099         60.6092         7.04576 
        2.30712         60.3284         7.00003 
        2.31326         59.9286         6.95461 
         2.3194         59.7418         6.90963 
        2.32553          59.345         6.86513 
        2.33166         59.0084         6.82103 
         2.3378         58.7062         6.77726 
        2.34394         58.3115         6.73386 
        2.35007         58.1348          6.6909 
        2.35619         57.8965         6.64837 
        2.36233         57.6839         6.60611 
        2.36848         57.2333         6.56413 
        2.37462         57.0152          6.5226 
        2.38075         56.7747         6.48147 
        2.38689         56.4982         6.44066 
        2.39303         56.2734         6.40021 
        2.39916          56.072         6.36015 
        2.40529         55.6754         6.32043 
        2.41143         55.3731         6.28103 
        2.41757         55.1307         6.24194 
         2.4237         54.8468         6.20326 
        2.42983         54.5064          6.1649 
        2.43598         54.2597         6.12677 
        2.44211         53.9926         6.08903 
        2.44823         53.7555         6.05169 
        2.45437         53.4135         6.01455 
        2.46052         53.1126          5.9777 
        2.46665         52.9228         5.94123 
        2.47279         52.7019         5.90506 
        2.47892          52.496         5.86918 
        2.48507         52.1683         5.83356 
         2.4912          52.015         5.79831 
