#  k  (h/Mpc)          P(k)  (Mpc/h)^3     P_linear(k) (Mpc/h)^3
     0.00783031         7365.73         7398.27 
       0.013688         9486.33         9680.08 
       0.019231           10185         10303.4 
      0.0249154          9990.5         9994.87 
      0.0312784         9005.91         9091.54 
      0.0375637         7938.69         8065.94 
      0.0433917          7176.5         7224.85 
      0.0492413         6468.64         6565.07 
      0.0555754         5991.87         6044.18 
      0.0619321         5459.11         5651.74 
       0.067871         5207.38         5326.35 
      0.0738098         4896.45         4985.66 
      0.0800417          4516.1         4587.97 
      0.0862327            4082         4164.04 
      0.0921407          3701.4         3764.75 
      0.0982031         3377.64         3395.67 
       0.104506         3032.88         3081.26 
       0.110769         2812.95         2845.55 
       0.116806         2694.44         2680.14 
       0.122832          2536.2         2554.67 
       0.129052         2426.51         2441.83 
       0.135211         2345.38         2325.86 
       0.141259         2190.68         2197.11 
       0.147318         2027.41         2053.65 
       0.153489         1906.44         1901.58 
       0.159709         1808.05         1755.18 
       0.165845         1648.97         1628.57 
       0.171974         1601.89         1525.61 
       0.178125         1538.84         1445.69 
       0.184229         1433.96         1384.55 
        0.19034          1408.7         1333.76 
       0.196428         1367.28         1285.71 
       0.202534          1285.1         1234.28 
       0.208729         1258.81         1176.29 
       0.214876         1207.31         1114.02 
       0.220989         1131.03         1050.94 
       0.227147          1102.9         990.568 
        0.23329         1059.54         936.997 
       0.239377         1040.71         892.168 
       0.245482         989.937         855.228 
       0.251667         953.478         824.152 
       0.257832         944.179         796.802 
       0.263955         897.164         770.612 
       0.270079         870.595         743.483 
        0.27624         834.448         714.506 
       0.282372         818.298         684.416 
        0.28843         810.978         654.568 
       0.294538         770.292         625.783 
       0.300721         747.737         599.129 
        0.30691         735.588         575.578 
       0.313033         705.518         555.278 
       0.319153         694.984         537.387 
       0.325316         682.829         520.889 
        0.33145         669.017         505.106 
       0.337538         646.074         489.398 
       0.343633         627.947         473.386 
       0.349808         613.049         456.928 
       0.355968         601.819         440.656 
       0.362074         584.289           425.1 
       0.368217         580.118         410.434 
       0.374374         569.435         396.934 
       0.380519         547.837         384.654 
       0.386598         541.774         373.522 
       0.392688         531.068         363.076 
        0.39888         517.127          352.89 
       0.405048         509.165         342.945 
       0.411186         506.453         333.103 
       0.417313         499.949         323.358 
       0.423458         485.419         313.747 
       0.429607         473.941         304.422 
       0.435692          466.32         295.627 
       0.441815         459.234         287.282 
       0.447964         449.511         279.407 
       0.454126         443.916         271.997 
       0.460267         437.418         264.996 
       0.466387         430.735         258.285 
        0.47254         424.784         251.723 
       0.478662         414.803         245.341 
       0.484765         410.832         239.095 
       0.490885         406.604         232.963 
       0.497035         399.789         226.979 
       0.503198          398.24         221.207 
       0.509342         388.089         215.692 
       0.515458          383.18         210.443 
       0.521598         376.406          205.41 
       0.527764         371.427         200.571 
       0.533884         370.694         195.941 
           0.54         364.433          191.45 
       0.546137         356.815         187.058 
       0.552299         356.096         182.761 
       0.558452         350.534         178.583 
       0.564573         347.168          174.54 
       0.570708         342.305         170.606 
       0.576825          336.66         166.812 
       0.582926         333.696         163.163 
       0.589034         329.577         159.643 
       0.595184         327.624         156.221 
       0.601379          321.76         152.882 
       0.607522         316.609         149.667 
       0.613639         314.737         146.551 
       0.619772         312.994         143.511 
       0.625918         309.114         140.547 
       0.632068         304.013         137.662 
       0.638161         301.382          134.88 
         0.6443         299.686         132.156 
       0.650464         294.953         129.499 
       0.656582         292.592         126.938 
       0.662703         290.636         124.452 
       0.668861         285.854         122.024 
       0.675024         284.871         119.663 
       0.681124         281.564          117.39 
       0.687237         278.789          115.17 
       0.693381         276.369         112.995 
       0.699536         273.239         110.869 
       0.705665         270.551         108.806 
       0.711789         268.525         106.797 
       0.717957         265.443         104.825 
        0.72409         263.314         102.917 
       0.730186         264.015          101.07 
       0.736317         259.444         99.2599 
       0.742472         256.248         97.4895 
       0.748622         253.044         95.7648 
        0.75476          253.81          94.086 
       0.760888         250.789         92.4499 
       0.767043         247.825         90.8457 
       0.773185         246.207         89.2827 
       0.779291         242.743         87.7651 
       0.785407         241.847         86.2808 
       0.791564         239.565         84.8218 
       0.797719         236.337         83.3977 
       0.803834          237.42          82.016 
       0.809972          235.35         80.6613 
       0.816124         232.265          79.335 
       0.822261         229.937         78.0427 
       0.828378         230.211         76.7836 
       0.834502         226.368         75.5516 
       0.840667         226.092          74.339 
       0.846816         223.363         73.1567 
       0.852925         221.943         72.0077 
       0.859047          219.76         70.8812 
       0.865192          219.42         69.7753 
       0.871341         216.533         68.6925 
       0.877463         214.911         67.6377 
       0.883569         214.732          66.608 
       0.889708         212.998         65.5947 
       0.895864         211.115         64.6001 
       0.902008         209.283         63.6284 
       0.908149         207.238         62.6775 
       0.914301         206.989         61.7447 
       0.920448         205.765          60.832 
       0.926574         203.414         59.9412 
       0.932687         202.679         59.0703 
       0.938823         201.215         58.2137 
       0.944975         199.441         57.3723 
       0.951105         197.986         56.5508 
       0.957225         197.356         55.7469 
       0.963368         195.685          54.956 
       0.969511         193.529         54.1806 
       0.975621         192.473         53.4245 
       0.981748         191.089          52.681 
       0.987916          190.31         51.9471 
        0.99406         189.049         51.2301 
        1.00019         187.821         50.5282 
        1.00632         187.062         49.8401 
        1.01246         185.627          49.164 
        1.01859         184.126         48.5016 
        1.02471         182.817         47.8524 
        1.03085         181.808         47.2129 
        1.03698          180.47         46.5865 
        1.04314         179.948          45.969 
        1.04929         179.109         45.3641 
        1.05541         177.813         44.7727 
        1.06154         176.735         44.1905 
        1.06769         175.134         43.6179 
        1.07382         174.453         43.0574 
        1.07993         173.353          42.508 
        1.08607         171.937         41.9661 
        1.09222         171.319         41.4332 
        1.09836         169.984         40.9103 
        1.10449         168.661          40.397 
        1.11063          167.83         39.8921 
        1.11677         167.107         39.3961 
         1.1229         165.764         38.9094 
        1.12903         165.286         38.4306 
        1.13518          164.18         37.9596 
        1.14131         163.232         37.4967 
        1.14745         162.018         37.0419 
        1.15359         160.487         36.5947 
        1.15973         160.127         36.1547 
        1.16584         159.318         35.7239 
        1.17197         158.482         35.2996 
        1.17811         157.126          34.881 
        1.18424         156.378         34.4704 
        1.19038         155.743         34.0653 
        1.19652         154.477         33.6669 
        1.20267         153.684          33.275 
        1.20881         152.733         32.8894 
        1.21495         152.402         32.5106 
        1.22108         151.147         32.1378 
         1.2272         150.125         31.7718 
        1.23334         149.739         31.4107 
        1.23949          149.15         31.0544 
        1.24562         147.862         30.7047 
        1.25174         146.691         30.3609 
        1.25789         146.433         30.0213 
        1.26402         145.703         29.6876 
        1.27014         144.834         29.3599 
        1.27628         143.237         29.0361 
        1.28244         143.129         28.7166 
        1.28858         142.024         28.4023 
        1.29471          141.22         28.0935 
        1.30084         140.508         27.7897 
        1.30697         140.138         27.4898 
        1.31312         139.134          27.194 
        1.31925         138.077         26.9036 
        1.32537         137.653         26.6177 
        1.33151          137.14         26.3349 
        1.33765         135.745         26.0565 
        1.34378         135.828         25.7826 
        1.34992         135.172         25.5126 
        1.35606         134.112         25.2458 
         1.3622         133.823         24.9834 
        1.36833         132.349         24.7253 
        1.37445         132.017         24.4711 
        1.38059         131.414         24.2196 
        1.38675         130.482         23.9712 
        1.39288         129.919         23.7272 
        1.39901         128.812         23.4868 
        1.40515         128.649         23.2491 
         1.4113         127.965         23.0149 
        1.41742         127.023         22.7848 
        1.42355         126.608         22.5575 
         1.4297         125.769         22.3326 
        1.43585         124.934         22.1109 
        1.44198         124.269          21.893 
        1.44809          123.47         21.6785 
        1.45423         123.098         21.4661 
        1.46036         122.194         21.2569 
        1.46649         121.559         21.0505 
        1.47263         121.286         20.8467 
        1.47877         120.402         20.6456 
        1.48491         119.692          20.447 
        1.49104         118.631         20.2513 
        1.49718         118.702         20.0581 
        1.50333         117.973         19.8671 
        1.50947         117.516          19.679 
         1.5156         116.863         19.4937 
        1.52172         116.088         19.3107 
        1.52787         115.421         19.1298 
          1.534         115.111         18.9513 
        1.54013         114.524         18.7754 
        1.54627         113.585         18.6014 
        1.55241         113.088         18.4296 
        1.55855         112.603         18.2602 
        1.56467         111.627         18.0934 
         1.5708         111.381         17.9283 
        1.57695         110.936         17.7649 
        1.58308         110.329          17.604 
        1.58922         110.009          17.445 
        1.59535          109.48          17.288 
         1.6015         108.823         17.1327 
        1.60764         108.138         16.9795 
        1.61376         107.493         16.8285 
        1.61989         106.897         16.6793 
        1.62604         106.441         16.5315 
        1.63218         106.118         16.3857 
        1.63831         105.336         16.2419 
        1.64444         104.893         16.0999 
        1.65059           104.3         15.9592 
        1.65673         103.652         15.8203 
        1.66285         103.112         15.6835 
        1.66898          102.53         15.5483 
        1.67512         102.279         15.4144 
        1.68127         101.706          15.282 
         1.6874         101.127         15.1514 
        1.69353         100.541         15.0225 
        1.69967         100.329         14.8947 
        1.70581         99.7818         14.7685 
        1.71193         99.2193         14.6442 
        1.71806         98.4673         14.5211 
        1.72421         98.1506         14.3992 
        1.73035         97.9512         14.2789 
        1.73649         97.2282         14.1599 
        1.74262         96.5105         14.0424 
        1.74876         96.1985         13.9262 
        1.75489         95.5339         13.8115 
        1.76101         95.0794         13.6982 
        1.76715         94.7878         13.5859 
        1.77329         94.1615         13.4748 
        1.77943         93.8273         13.3649 
        1.78557         93.4789         13.2564 
        1.79171         92.9041         13.1491 
        1.79785         92.3524          13.043 
        1.80399         91.9595         12.9381 
        1.81012         91.3986         12.8344 
        1.81625         91.1985          12.732 
        1.82239          90.852         12.6305 
        1.82853         90.0939         12.5302 
        1.83466         89.6703         12.4311 
        1.84078         89.3105         12.3331 
        1.84692         89.0347         12.2361 
        1.85306         88.5226           12.14 
         1.8592         88.1125          12.045 
        1.86533         87.5986         11.9512 
        1.87147         87.0956         11.8582 
        1.87761         86.6158         11.7662 
        1.88375         86.1127         11.6753 
        1.88988         85.7531         11.5855 
        1.89601         85.3202         11.4965 
        1.90215         84.8678         11.4085 
        1.90829         84.5606         11.3213 
        1.91442         84.1896         11.2351 
        1.92056         83.7097         11.1499 
         1.9267         83.3486         11.0655 
        1.93284         83.0702         10.9819 
        1.93897         82.6741         10.8993 
        1.94509         82.1484         10.8178 
        1.95123         81.8294         10.7369 
        1.95737         81.2057         10.6567 
        1.96349         80.9464         10.5776 
        1.96964         80.5509         10.4991 
        1.97578         80.0473         10.4213 
        1.98192         79.7295         10.3445 
        1.98805         79.2507         10.2684 
        1.99419         78.8437         10.1932 
        2.00033          78.423         10.1186 
        2.00647         78.2288         10.0448 
         2.0126         77.7627         9.97186 
        2.01874         77.4928         9.89955 
        2.02488         77.1472         9.82789 
        2.03101         76.7176         9.75707 
        2.03714         76.5278         9.68703 
        2.04328         76.0022         9.61759 
        2.04941         75.4384          9.5489 
        2.05554         75.3525         9.48092 
        2.06167         75.0862         9.41352 
        2.06781         74.3942         9.34677 
        2.07396         74.1267         9.28058 
        2.08009         73.8885         9.21514 
        2.08622         73.4282         9.15041 
        2.09237          73.032         9.08617 
        2.09851         72.6437         9.02255 
        2.10464         72.3997         8.95964 
        2.11077         72.0618         8.89741 
        2.11691         71.7069         8.83563 
        2.12305         71.2682         8.77444 
        2.12918         70.9349         8.71398 
        2.13531         70.6781         8.65409 
        2.14145         70.1795         8.59462 
         2.1476         69.9592         8.53565 
        2.15372         69.6873         8.47753 
        2.15985         69.2506         8.41989 
        2.16599         68.8927         8.36262 
        2.17213         68.6365         8.30596 
        2.17827         68.2543         8.24983 
         2.1844         67.9816         8.19427 
        2.19054         67.6251         8.13921 
        2.19666         67.2029         8.08474 
         2.2028          67.038         8.03072 
        2.20893         66.5874         7.97716 
        2.21508         66.2452         7.92404 
        2.22122         65.9248         7.87138 
        2.22736         65.5925         7.81932 
        2.23349         65.4504         7.76774 
        2.23962         65.0728          7.7166 
        2.24577         64.7738         7.66587 
         2.2519         64.4418         7.61568 
        2.25802         64.1568         7.56601 
        2.26417         63.8153         7.51665 
        2.27031         63.4895         7.46769 
        2.27644         63.2526         7.41931 
        2.28257         62.9248         7.37136 
        2.28872         62.7615         7.32374 
        2.29486         62.4402         7.27656 
        2.30099         61.9725         7.22989 
        2.30712         61.8207         7.18361 
        2.31326         61.4841         7.13766 
         2.3194         61.1466         7.09214 
        2.32553         61.0259          7.0471 
        2.33166         60.4821         7.00246 
         2.3378         60.2466         6.95816 
        2.34394          59.967         6.91422 
        2.35007         59.6726         6.87073 
        2.35619         59.5144         6.82766 
        2.36233          59.065         6.78487 
        2.36848         58.8372         6.74235 
        2.37462         58.5716         6.70029 
        2.38075         58.3618         6.65863 
        2.38689          58.091         6.61729 
        2.39303         57.8882         6.57631 
        2.39916         57.6212         6.53572 
        2.40529         57.2551         6.49548 
        2.41143           56.99         6.45555 
        2.41757         56.6977         6.41594 
         2.4237         56.5739         6.37673 
        2.42983         56.1303         6.33786 
        2.43598         55.8529          6.2992 
        2.44211         55.7023         6.26094 
        2.44823         55.4179         6.22308 
        2.45437         55.1485         6.18543 
        2.46052         54.8094         6.14806 
        2.46665         54.5888         6.11107 
        2.47279         54.3744         6.07439 
        2.47892         54.0796         6.03799 
        2.48507         53.8947         6.00186 
         2.4912         53.5659          5.9661 
