# k  (h/Mpc)    Pcb(k)  (Mpc/h)^3    Pcb_linear(k)  (Mpc/h)^3
     0.00783031         16431.3         16670.7 
       0.013688           19513         19326.9 
       0.019231         18497.9         18429.7 
      0.0249154         15675.9         15967.4 
      0.0312784         12781.2         12866.1 
      0.0375637         10390.8         10324.3 
      0.0433917         8601.61         8678.01 
      0.0492413         7641.65         7635.43 
      0.0555754         6809.31         6960.29 
      0.0619321         6539.71         6481.63 
       0.067871         5907.16          6018.4 
      0.0738098         5361.61         5451.91 
      0.0800417         4661.67         4764.26 
      0.0862327         4063.04          4076.4 
      0.0921407         3586.11         3505.98 
      0.0982031         3125.88         3062.41 
       0.104506         2910.03         2760.26 
       0.110769         2709.38          2586.2 
       0.116806         2581.61         2484.28 
       0.122832         2479.85         2393.27 
       0.129052         2300.18         2269.26 
       0.135211         2148.31          2101.6 
       0.141259         2009.91          1905.6 
       0.147318         1844.83         1705.23 
       0.153489         1659.01         1525.01 
       0.159709         1548.39          1385.4 
       0.165845         1478.51         1291.98 
       0.171974         1405.28         1233.68 
       0.178125         1346.97         1194.62 
       0.184229         1294.42         1158.43 
        0.19034         1217.37         1112.31 
       0.196428         1183.58         1051.79 
       0.202534         1129.95         979.607 
       0.208729         1060.92         903.066 
       0.214876         1002.58         833.073 
       0.220989         959.666         775.751 
       0.227147         916.565         732.509 
        0.23329         879.077         701.859 
       0.239377         861.927         679.224 
       0.245482         805.684         658.909 
       0.251667         799.821         636.217 
       0.257832         766.327         609.192 
       0.263955         738.153         578.373 
       0.270079         706.636         545.763 
        0.27624         695.316         514.154 
       0.282372         666.273         486.327 
        0.28843         652.039         463.559 
       0.294538         617.816         445.254 
       0.300721         613.771         430.187 
        0.30691         587.103          416.88 
       0.313033         574.863         403.758 
       0.319153         558.505          389.72 
       0.325316         541.714         374.341 
        0.33145         525.434         358.352 
       0.337538         515.686         342.607 
       0.343633         500.182         327.877 
       0.349808         481.446         314.576 
       0.355968         477.039         303.092 
       0.362074         469.757         293.231 
       0.368217         455.703         284.299 
       0.374374         435.724         275.814 
       0.380519         434.013         267.321 
       0.386598         421.678         258.704 
       0.392688         418.489         249.908 
        0.39888         406.208          240.97 
       0.405048          397.61         232.397 
       0.411186         391.061         224.433 
       0.417313         382.994         217.136 
       0.423458         374.459         210.495 
       0.429607          368.88         204.393 
       0.435692         359.197         198.689 
       0.441815         355.437         193.134 
       0.447964         347.618         187.635 
       0.454126         339.949         182.136 
       0.460267         333.187         176.709 
       0.466387         328.881         171.449 
        0.47254         322.991         166.377 
       0.478662         321.564         161.591 
       0.484765          309.69         157.111 
       0.490885         306.606         152.901 
       0.497035         300.845          148.89 
       0.503198         296.479         145.025 
       0.509342         294.254         141.279 
       0.515458         290.305         137.641 
       0.521598         282.752         134.067 
       0.527764         279.027         130.556 
       0.533884         276.208         127.172 
           0.54         272.089         123.919 
       0.546137         270.577         120.803 
       0.552299         264.934         117.818 
       0.558452         263.429         114.961 
       0.564573         259.562         112.223 
       0.570708         254.144         109.568 
       0.576825         249.704         107.002 
       0.582926         247.419         104.515 
       0.589034         244.901         102.091 
       0.595184         242.661         99.7147 
       0.601379         238.612         97.3903 
       0.607522         235.329         95.1594 
       0.613639         233.636         93.0155 
       0.619772         228.891          90.945 
       0.625918         227.727          88.944 
       0.632068         223.815         87.0069 
       0.638161         222.725          85.145 
         0.6443         219.133         83.3196 
       0.650464         216.891         81.5348 
       0.656582         214.295         79.8108 
       0.662703         213.932          78.134 
       0.668861         210.229         76.4961 
       0.675024         207.362         74.9062 
       0.681124         205.922         73.3806 
       0.687237         203.584         71.8971 
       0.693381         200.302         70.4491 
       0.699536         198.576         69.0391 
       0.705665         196.728         67.6736 
       0.711789         195.123         66.3452 
       0.717957         194.203         65.0423 
        0.72409          191.86         63.7808 
       0.730186         189.401         62.5601 
       0.736317         187.281         61.3647 
       0.742472          185.93         60.1964 
       0.748622         184.358         59.0601 
        0.75476         182.501         57.9564 
       0.760888         180.467         56.8831 
       0.767043          180.07         55.8331 
       0.773185          178.29         54.8121 
       0.779291          174.88         53.8226 
       0.785407         174.468         52.8562 
       0.791564         172.764         51.9073 
       0.797719         170.141          50.982 
       0.803834         169.148          50.085 
       0.809972          168.41         49.2063 
       0.816124         167.403         48.3468 
       0.822261         165.968         47.5101 
       0.828378         164.161         46.6958 
       0.834502         163.406            45.9 
       0.840667         161.312         45.1176 
       0.846816         159.914         44.3558 
       0.852925         159.156         43.6165 
       0.859047         157.771         42.8927 
       0.865192         155.769         42.1829 
       0.871341         154.571         41.4888 
       0.877463         153.502         40.8136 
       0.883569         153.111         40.1552 
       0.889708         151.232          39.508 
       0.895864         149.773         38.8734 
       0.902008         148.777         38.2541 
       0.908149         148.308         37.6487 
       0.914301         146.304         37.0555 
       0.920448         145.433         36.4757 
       0.926574         144.304         35.9103 
       0.932687         144.249         35.3581 
       0.938823         142.213         34.8156 
       0.944975          141.32         34.2832 
       0.951105         140.445         33.7639 
       0.957225         139.393         33.2563 
       0.963368         137.367         32.7574 
       0.969511         137.052         32.2687 
       0.975621         135.852         31.7926 
       0.981748         135.713         31.3249 
       0.987916         134.284         30.8637 
        0.99406         133.138         30.4136 
        1.00019         132.941         29.9733 
        1.00632         131.486         29.5421 
        1.01246         130.744         29.1188 
        1.01859         130.344         28.7045 
        1.02471         128.548         28.2987 
        1.03085          127.52         27.8994 
        1.03698         127.037         27.5087 
        1.04314         125.667         27.1238 
        1.04929         125.292         26.7471 
        1.05541         124.624         26.3792 
        1.06154         123.663         26.0172 
        1.06769         123.398         25.6615 
        1.07382         122.124         25.3137 
        1.07993         121.303         24.9731 
        1.08607         120.595         24.6374 
        1.09222         120.125         24.3075 
        1.09836         119.119          23.984 
        1.10449         117.859         23.6668 
        1.11063         117.164         23.3551 
        1.11677         116.611          23.049 
         1.1229         115.779          22.749 
        1.12903         115.323         22.4541 
        1.13518         114.769         22.1641 
        1.14131         113.595         21.8795 
        1.14745          113.35            21.6 
        1.15359         112.418         21.3253 
        1.15973          111.83         21.0553 
        1.16584          110.79         20.7912 
        1.17197         110.261         20.5313 
        1.17811         109.621         20.2749 
        1.18424         109.191         20.0237 
        1.19038          108.87         19.7761 
        1.19652         107.955         19.5327 
        1.20267         107.168         19.2934 
        1.20881         106.567         19.0582 
        1.21495         105.711         18.8273 
        1.22108         105.279         18.6002 
         1.2272         104.348         18.3774 
        1.23334         103.959         18.1577 
        1.23949          103.38         17.9411 
        1.24562         102.688         17.7287 
        1.25174          102.24           17.52 
        1.25789         101.599          17.314 
        1.26402         100.436         17.1117 
        1.27014         100.105         16.9131 
        1.27628         99.8141         16.7171 
        1.28244         99.4253         16.5238 
        1.28858          98.835         16.3338 
        1.29471         97.9075         16.1472 
        1.30084         97.8135         15.9637 
        1.30697         96.7412         15.7828 
        1.31312         96.3507         15.6044 
        1.31925         95.6703         15.4294 
        1.32537          95.311         15.2572 
        1.33151         94.5342          15.087 
        1.33765         94.0725         14.9195 
        1.34378          93.683         14.7549 
        1.34992         93.3431         14.5926 
        1.35606         92.8055         14.4325 
         1.3622         91.9654          14.275 
        1.36833         91.5556         14.1203 
        1.37445         91.1324         13.9679 
        1.38059         90.3736         13.8173 
        1.38675         89.8572         13.6686 
        1.39288          89.768         13.5226 
        1.39901         89.1855         13.3789 
        1.40515         88.4671         13.2369 
         1.4113         88.1397          13.097 
        1.41742         87.5966         12.9597 
        1.42355         87.1284         12.8241 
         1.4297         86.7872           12.69 
        1.43585         86.1149         12.5579 
        1.44198         85.6601         12.4282 
        1.44809         85.3589         12.3005 
        1.45423         85.0014         12.1742 
        1.46036         84.4613         12.0498 
        1.46649          83.856         11.9272 
        1.47263         83.2789         11.8061 
        1.47877         83.0451         11.6868 
        1.48491         82.3988         11.5689 
        1.49104         82.2449         11.4529 
        1.49718         81.7627         11.3384 
        1.50333         81.3445         11.2253 
        1.50947         80.8227          11.114 
         1.5156         80.4833         11.0043 
        1.52172          80.018         10.8961 
        1.52787         79.5413         10.7892 
          1.534         79.0757         10.6838 
        1.54013         78.7076         10.5799 
        1.54627            78.4         10.4772 
        1.55241         77.8653         10.3759 
        1.55855         77.4725         10.2761 
        1.56467         77.2579         10.1778 
         1.5708          76.641         10.0805 
        1.57695         76.5646         9.98438 
        1.58308         75.9938         9.88972 
        1.58922         75.7047         9.79621 
        1.59535         75.3282         9.70395 
         1.6015         74.8232         9.61275 
        1.60764         74.4676         9.52276 
        1.61376         74.1916         9.43417 
        1.61989         73.7675         9.34663 
        1.62604           73.39         9.26001 
        1.63218         73.2136         9.17453 
        1.63831         72.3789         9.09033 
        1.64444         72.1477         9.00716 
        1.65059         71.8468         8.92482 
        1.65673         71.3277         8.84361 
        1.66285         71.0999         8.76362 
        1.66898         70.8738          8.6846 
        1.67512         70.2343          8.6064 
        1.68127         70.0821         8.52908 
         1.6874         69.5499         8.45288 
        1.69353         69.2272         8.37766 
        1.69967         69.0085         8.30317 
        1.70581         68.6612         8.22962 
        1.71193         68.2932         8.15723 
        1.71806         67.9746         8.08556 
        1.72421         67.5712         8.01461 
        1.73035         67.2693         7.94458 
        1.73649         67.0147         7.87541 
        1.74262         66.5306         7.80711 
        1.74876         66.3263         7.73957 
        1.75489         65.8812         7.67297 
        1.76101          65.642         7.60718 
        1.76715         65.1331         7.54206 
        1.77329         64.9384         7.47762 
        1.77943          64.537         7.41391 
        1.78557         64.4033         7.35103 
        1.79171         63.8395         7.28887 
        1.79785         63.5015         7.22741 
        1.80399         63.3212         7.16668 
        1.81012         63.0896         7.10672 
        1.81625         62.7248         7.04747 
        1.82239         62.4043         6.98881 
        1.82853         62.1643         6.93084 
        1.83466         61.8662         6.87358 
        1.84078         61.4173         6.81703 
        1.84692         61.2215         6.76102 
        1.85306         60.8883         6.70558 
         1.8592         60.6806         6.65084 
        1.86533         60.2888         6.59674 
        1.87147          59.854         6.54318 
        1.87761         59.7375         6.49019 
        1.88375         59.4547         6.43784 
        1.88988          59.039         6.38613 
        1.89601         58.8497         6.33496 
        1.90215         58.3979          6.2843 
        1.90829         58.1735         6.23423 
        1.91442         57.9648         6.18469 
        1.92056         57.6454         6.13574 
         1.9267          57.382         6.08726 
        1.93284         57.0546         6.03927 
        1.93897         56.8135          5.9919 
        1.94509         56.6226         5.94513 
        1.95123         56.2694         5.89874 
        1.95737         55.9562         5.85281 
        1.96349         55.6732         5.80748 
        1.96964          55.405          5.7625 
        1.97578         55.1289         5.71798 
        1.98192         55.0921         5.67402 
        1.98805         54.5797         5.63051 
        1.99419         54.3698         5.58746 
        2.00033         54.1934         5.54483 
        2.00647         53.9051         5.50266 
         2.0126         53.5543           5.461 
        2.01874         53.2488          5.4197 
        2.02488         53.1246         5.37879 
        2.03101         52.8263         5.33838 
        2.03714         52.5028         5.29842 
        2.04328         52.2869         5.25883 
        2.04941         52.0541         5.21967 
        2.05554          51.892         5.18094 
        2.06167          51.655         5.14254 
        2.06781         51.2585         5.10453 
        2.07396         51.0665         5.06685 
        2.08009         50.9055         5.02961 
        2.08622         50.5497         4.99279 
        2.09237         50.3789         4.95626 
        2.09851         50.2429         4.92009 
        2.10464         49.8608         4.88434 
        2.11077           49.65         4.84898 
        2.11691         49.3582          4.8139 
        2.12305         49.1958         4.77916 
        2.12918         49.0112         4.74485 
        2.13531         48.6242         4.71087 
        2.14145         48.4284         4.67714 
         2.1476         48.1899         4.64371 
        2.15372         48.0111         4.61076 
        2.15985         47.8028         4.57811 
        2.16599         47.5524         4.54567 
        2.17213         47.3955         4.51359 
        2.17827         47.1051         4.48181 
         2.1844         46.8492         4.45038 
        2.19054         46.6319         4.41923 
        2.19666         46.4296         4.38843 
         2.2028         46.3353         4.35788 
        2.20893         46.0185         4.32762 
        2.21508         45.8467         4.29761 
        2.22122         45.6375         4.26787 
        2.22736         45.3896         4.23847 
        2.23349         45.1936         4.20936 
        2.23962         44.9131          4.1805 
        2.24577         44.6566         4.15189 
         2.2519         44.5288         4.12358 
        2.25802         44.3649         4.09558 
        2.26417         44.0884         4.06777 
        2.27031         43.9221         4.04018 
        2.27644         43.6931         4.01293 
        2.28257         43.4737         3.98594 
        2.28872         43.2138         3.95914 
        2.29486         43.0802         3.93259 
        2.30099         42.9031         3.90633 
        2.30712         42.6914         3.88031 
        2.31326          42.442         3.85447 
         2.3194         42.2335         3.82889 
        2.32553         42.0549         3.80358 
        2.33166         41.7873         3.77851 
         2.3378         41.6467         3.75363 
        2.34394         41.4661         3.72897 
        2.35007          41.288         3.70456 
        2.35619          41.072          3.6804 
        2.36233         40.8669          3.6564 
        2.36848          40.736         3.63256 
        2.37462         40.4935         3.60898 
        2.38075         40.3877         3.58564 
        2.38689         40.1871         3.56248 
        2.39303         39.9266         3.53952 
        2.39916         39.7407          3.5168 
        2.40529         39.6514         3.49427 
        2.41143         39.4594         3.47193 
        2.41757         39.2564         3.44977 
         2.4237         39.0486         3.42784 
        2.42983         38.8778          3.4061 
        2.43598          38.711          3.3845 
        2.44211         38.5428         3.36311 
        2.44823         38.3821         3.34196 
        2.45437         38.1614         3.32094 
        2.46052         38.0061         3.30007 
        2.46665         37.8471         3.27942 
        2.47279         37.6001         3.25896 
        2.47892         37.4898         3.23865 
        2.48507         37.2981          3.2185 
         2.4912         37.1867         3.19855 
