# k  (h/Mpc)    Pcb(k)  (Mpc/h)^3    Pcb_linear(k)  (Mpc/h)^3
     0.00783031         1006.86         1017.29 
       0.013688         1178.07         1180.31 
       0.019231         1126.17         1125.87 
      0.0249154         971.461         975.603 
      0.0312784         787.018         786.201 
      0.0375637         633.651         630.923 
      0.0433917         530.872         530.339 
      0.0492413         467.814         466.637 
      0.0555754         424.133         425.387 
      0.0619321         397.797         396.139 
       0.067871         366.819         367.832 
      0.0738098         332.206         333.213 
      0.0800417         289.932         291.187 
      0.0862327         249.186         249.147 
      0.0921407         214.992         214.285 
      0.0982031         187.401         187.175 
       0.104506         170.195         168.708 
       0.110769         159.129          158.07 
       0.116806         151.993         151.841 
       0.122832          146.83         146.279 
       0.129052         138.506           138.7 
       0.135211          128.31         128.452 
       0.141259         117.019         116.472 
       0.147318         105.247         104.226 
       0.153489         94.0463         93.2105 
       0.159709          85.638         84.6775 
       0.165845         80.3979         78.9676 
       0.171974         76.1668         75.4046 
       0.178125         73.8516          73.017 
       0.184229         71.6603          70.805 
        0.19034         68.2229         67.9864 
       0.196428         64.9524         64.2872 
       0.202534         61.0415         59.8753 
       0.208729         56.1586          55.197 
       0.214876         51.7274          50.919 
       0.220989         48.6069         47.4154 
       0.227147         45.6273         44.7723 
        0.23329         43.7287          42.899 
       0.239377         42.4275         41.5155 
       0.245482         40.8357         40.2738 
       0.251667         39.7572         38.8869 
       0.257832         38.0353          37.235 
       0.263955         36.2137         35.3513 
       0.270079         34.2573         33.3582 
        0.27624         32.5738         31.4261 
       0.282372         30.9122         29.7253 
        0.28843         29.3712         28.3337 
       0.294538         28.2043         27.2148 
       0.300721         27.4387          26.294 
        0.30691          26.416         25.4806 
       0.313033         25.5998         24.6785 
       0.319153         24.4851         23.8205 
       0.325316         23.8895         22.8805 
        0.33145         22.8462         21.9032 
       0.337538         21.9331         20.9409 
       0.343633         20.9546         20.0406 
       0.349808         20.2238         19.2276 
       0.355968         19.5304         18.5257 
       0.362074         18.8756         17.9229 
       0.368217          18.316          17.377 
       0.374374          17.716         16.8583 
       0.380519         17.2584         16.3393 
       0.386598         16.7534         15.8126 
       0.392688         16.2822         15.2749 
        0.39888         15.6886         14.7286 
       0.405048          15.197         14.2046 
       0.411186          14.727         13.7178 
       0.417313         14.2164         13.2718 
       0.423458         13.8247         12.8659 
       0.429607         13.4123          12.493 
       0.435692         13.0268         12.1443 
       0.441815         12.7034         11.8048 
       0.447964         12.4319         11.4687 
       0.454126         11.9863         11.1325 
       0.460267         11.6932         10.8009 
       0.466387         11.3089         10.4794 
        0.47254         11.0506         10.1694 
       0.478662         10.7994          9.8768 
       0.484765         10.4535         9.60299 
       0.490885         10.1973         9.34567 
       0.497035         10.0361         9.10051 
       0.503198         9.74519         8.86427 
       0.509342         9.50582         8.63532 
       0.515458         9.25956         8.41296 
       0.521598         9.05513         8.19449 
       0.527764         8.80872         7.97987 
       0.533884         8.64869         7.77302 
           0.54         8.42624         7.57424 
       0.546137         8.24704         7.38374 
       0.552299         8.07159         7.20129 
       0.558452         7.83213         7.02668 
       0.564573         7.69841         6.85931 
       0.570708         7.52962         6.69705 
       0.576825         7.33582         6.54019 
       0.582926         7.19498          6.3882 
       0.589034         6.98893         6.24004 
       0.595184         6.86749         6.09479 
       0.601379         6.70639         5.95272 
       0.607522         6.59856         5.81636 
       0.613639          6.4911         5.68532 
       0.619772          6.3067         5.55877 
       0.625918         6.22814         5.43646 
       0.632068         6.12344         5.31807 
       0.638161         5.96514         5.20426 
         0.6443         5.84069         5.09269 
       0.650464         5.70985          4.9836 
       0.656582         5.64488         4.87822 
       0.662703         5.53058         4.77573 
       0.668861          5.4299         4.67562 
       0.675024         5.31254         4.57844 
       0.681124         5.20891          4.4852 
       0.687237         5.12631         4.39452 
       0.693381         5.03839         4.30601 
       0.699536          4.9024         4.21983 
       0.705665         4.83332         4.13637 
       0.711789          4.7507         4.05517 
       0.717957         4.65818         3.97554 
        0.72409         4.57551         3.89844 
       0.730186         4.50139         3.82382 
       0.736317         4.45084         3.75075 
       0.742472         4.37303         3.67934 
       0.748622         4.28767          3.6099 
        0.75476         4.19894         3.54243 
       0.760888         4.13389         3.47683 
       0.767043         4.08152         3.41265 
       0.773185         3.99367         3.35025 
       0.779291         3.94874         3.28977 
       0.785407         3.87902          3.2307 
       0.791564          3.8215          3.1727 
       0.797719         3.75632         3.11614 
       0.803834         3.71503         3.06132 
       0.809972         3.65936         3.00761 
       0.816124         3.58513         2.95507 
       0.822261         3.51818         2.90393 
       0.828378         3.47381         2.85416 
       0.834502         3.43998         2.80551 
       0.840667         3.36416          2.7577 
       0.846816         3.30885         2.71113 
       0.852925         3.27932         2.66595 
       0.859047         3.22843          2.6217 
       0.865192         3.18549         2.57832 
       0.871341         3.14586          2.5359 
       0.877463         3.09817         2.49463 
       0.883569         3.04123         2.45438 
       0.889708         2.99434         2.41482 
       0.895864         2.95303         2.37603 
       0.902008         2.91219         2.33818 
       0.908149          2.8799         2.30118 
       0.914301         2.82601         2.26492 
       0.920448         2.78866         2.22948 
       0.926574         2.74712         2.19492 
       0.932687         2.71335         2.16117 
       0.938823         2.68175         2.12801 
       0.944975         2.64467         2.09547 
       0.951105         2.61291         2.06373 
       0.957225          2.5945          2.0327 
       0.963368         2.55412         2.00221 
       0.969511         2.51402         1.97234 
       0.975621         2.47718         1.94324 
       0.981748         2.45251         1.91466 
       0.987916         2.41892         1.88647 
        0.99406          2.3776         1.85895 
        1.00019         2.35306         1.83204 
        1.00632         2.32551         1.80569 
        1.01246         2.29714         1.77981 
        1.01859         2.26833         1.75449 
        1.02471           2.239         1.72969 
        1.03085         2.21179         1.70528 
        1.03698         2.18146          1.6814 
        1.04314         2.15995         1.65787 
        1.04929         2.13226         1.63485 
        1.05541         2.10712         1.61236 
        1.06154         2.08209         1.59024 
        1.06769         2.06445          1.5685 
        1.07382         2.03203         1.54723 
        1.07993         2.00383         1.52642 
        1.08607         1.99253          1.5059 
        1.09222         1.96364         1.48573 
        1.09836         1.94656         1.46596 
        1.10449         1.92419         1.44658 
        1.11063         1.89561         1.42752 
        1.11677         1.87681         1.40881 
         1.1229         1.85617         1.39047 
        1.12903         1.83272         1.37245 
        1.13518         1.81587         1.35473 
        1.14131         1.78999         1.33733 
        1.14745         1.76185         1.32024 
        1.15359         1.75194         1.30346 
        1.15973         1.72534         1.28695 
        1.16584         1.71618         1.27081 
        1.17197         1.69565         1.25492 
        1.17811         1.68121         1.23925 
        1.18424         1.66373          1.2239 
        1.19038          1.6443         1.20876 
        1.19652         1.62585         1.19389 
        1.20267         1.61192         1.17926 
        1.20881         1.59152         1.16488 
        1.21495         1.57813         1.15077 
        1.22108         1.56194         1.13689 
         1.2272          1.5498         1.12327 
        1.23334         1.52858         1.10984 
        1.23949         1.51168         1.09661 
        1.24562         1.50061         1.08362 
        1.25174         1.48295         1.07086 
        1.25789         1.46981         1.05827 
        1.26402         1.45136         1.04591 
        1.27014         1.43749         1.03377 
        1.27628         1.42987         1.02179 
        1.28244          1.4092         1.00997 
        1.28858         1.39834        0.998361 
        1.29471         1.38249        0.986957 
        1.30084         1.36748        0.975742 
        1.30697         1.35936        0.964684 
        1.31312         1.33799        0.953781 
        1.31925         1.33036        0.943081 
        1.32537         1.31723        0.932556 
        1.33151         1.30751        0.922154 
        1.33765         1.29136        0.911917 
        1.34378          1.2796        0.901855 
        1.34992         1.27175        0.891939 
        1.35606         1.25315         0.88215 
         1.3622         1.24703        0.872525 
        1.36833         1.23379        0.863067 
        1.37445         1.21978        0.853753 
        1.38059         1.21227        0.844549 
        1.38675         1.20605        0.835458 
        1.39288          1.1902        0.826537 
        1.39901         1.17787        0.817751 
        1.40515         1.16865        0.809072 
         1.4113         1.15869        0.800523 
        1.41742         1.14842        0.792129 
        1.42355         1.14238         0.78384 
         1.4297         1.12771        0.775645 
        1.43585         1.11973         0.76757 
        1.44198         1.11315         0.75964 
        1.44809         1.09877        0.751838 
        1.45423         1.09018        0.744115 
        1.46036         1.08038        0.736515 
        1.46649         1.07168        0.729018 
        1.47263         1.06135        0.721619 
        1.47877         1.05145        0.714326 
        1.48491         1.04299        0.707122 
        1.49104         1.03504        0.700032 
        1.49718         1.02813        0.693034 
        1.50333         1.01703        0.686121 
        1.50947         1.01074        0.679315 
         1.5156         1.00119        0.672612 
        1.52172        0.992659           0.666 
        1.52787        0.983522        0.659463 
          1.534        0.976596        0.653021 
        1.54013        0.967422        0.646672 
        1.54627        0.958997        0.640396 
        1.55241        0.950795        0.634202 
        1.55855        0.944512        0.628099 
        1.56467         0.93856        0.622092 
         1.5708        0.927599        0.616147 
        1.57695        0.923388        0.610271 
        1.58308        0.915365        0.604485 
        1.58922        0.907812         0.59877 
        1.59535        0.900856         0.59313 
         1.6015        0.893361        0.587556 
        1.60764         0.88821        0.582055 
        1.61376        0.880741         0.57664 
        1.61989        0.873319         0.57129 
        1.62604        0.865354        0.565995 
        1.63218        0.862117        0.560771 
        1.63831        0.853029        0.555625 
        1.64444        0.846416        0.550541 
        1.65059        0.841376        0.545508 
        1.65673         0.83317        0.540544 
        1.66285        0.827391        0.535655 
        1.66898         0.82371        0.530825 
        1.67512        0.813842        0.526045 
        1.68127        0.808167        0.521319 
         1.6874        0.805416        0.516662 
        1.69353        0.796114        0.512064 
        1.69967        0.789779        0.507511 
        1.70581        0.787065        0.503016 
        1.71193        0.779572        0.498591 
        1.71806        0.775872         0.49421 
        1.72421        0.769046        0.489874 
        1.73035        0.762372        0.485593 
        1.73649        0.758656        0.481365 
        1.74262         0.75267        0.477191 
        1.74876        0.746877        0.473063 
        1.75489        0.739496        0.468992 
        1.76101         0.73566         0.46497 
        1.76715        0.730973         0.46099 
        1.77329        0.726394        0.457052 
        1.77943         0.71933        0.453158 
        1.78557        0.714268        0.449314 
        1.79171         0.71163        0.445515 
        1.79785        0.705057        0.441758 
        1.80399        0.700756        0.438046 
        1.81012        0.696626        0.434381 
        1.81625        0.691006         0.43076 
        1.82239        0.686539        0.427174 
        1.82853        0.679422        0.423631 
        1.83466        0.676455        0.420131 
        1.84078        0.671177        0.416675 
        1.84692        0.668654        0.413252 
        1.85306        0.663665        0.409863 
         1.8592        0.659171        0.406517 
        1.86533        0.654184         0.40321 
        1.87147        0.650435        0.399936 
        1.87761        0.645581        0.396697 
        1.88375        0.640269        0.393498 
        1.88988        0.637813        0.390337 
        1.89601        0.632595        0.387209 
        1.90215        0.627899        0.384113 
        1.90829         0.62309        0.381053 
        1.91442        0.620318        0.378025 
        1.92056          0.6163        0.375032 
         1.9267         0.61149        0.372069 
        1.93284        0.609782        0.369137 
        1.93897        0.603968        0.366241 
        1.94509        0.600622        0.363382 
        1.95123        0.595982        0.360547 
        1.95737        0.592731        0.357739 
        1.96349        0.587997        0.354969 
        1.96964        0.585358         0.35222 
        1.97578        0.581099        0.349498 
        1.98192        0.578389        0.346811 
        1.98805        0.573527        0.344152 
        1.99419        0.571402         0.34152 
        2.00033        0.568922        0.338915 
        2.00647        0.563144        0.336337 
         2.0126        0.560375        0.333791 
        2.01874        0.556977        0.331267 
        2.02488        0.554368        0.328766 
        2.03101        0.548844        0.326296 
        2.03714        0.544992        0.323854 
        2.04328        0.544155        0.321434 
        2.04941        0.539902         0.31904 
        2.05554        0.536333        0.316673 
        2.06167        0.532765        0.314326 
        2.06781        0.529515        0.312003 
        2.07396         0.52578        0.309699 
        2.08009        0.523311        0.307423 
        2.08622        0.519784        0.305173 
        2.09237        0.518025         0.30294 
        2.09851        0.514864        0.300729 
        2.10464        0.512141        0.298544 
        2.11077        0.508704        0.296383 
        2.11691        0.505001        0.294239 
        2.12305        0.502502        0.292115 
        2.12918        0.499652        0.290018 
        2.13531        0.496358        0.287941 
        2.14145        0.493897         0.28588 
         2.1476        0.490144        0.283836 
        2.15372        0.488516        0.281822 
        2.15985        0.484488        0.279826 
        2.16599        0.481504        0.277844 
        2.17213        0.479181        0.275883 
        2.17827        0.477563        0.273941 
         2.1844        0.474695        0.272019 
        2.19054        0.472212        0.270116 
        2.19666        0.468877        0.268233 
         2.2028        0.466178        0.266366 
        2.20893         0.46408        0.264516 
        2.21508        0.461655        0.262682 
        2.22122        0.456954        0.260864 
        2.22736        0.455351        0.259067 
        2.23349        0.454611        0.257288 
        2.23962        0.450993        0.255524 
        2.24577        0.447857        0.253775 
         2.2519        0.445467        0.252045 
        2.25802        0.442979        0.250333 
        2.26417        0.440357        0.248633 
        2.27031        0.438263        0.246947 
        2.27644        0.436079        0.245282 
        2.28257        0.434077        0.243632 
        2.28872        0.431332        0.241993 
        2.29486        0.428803        0.240371 
        2.30099        0.426152        0.238766 
        2.30712        0.424026        0.237175 
        2.31326        0.422329        0.235596 
         2.3194           0.421        0.234032 
        2.32553        0.418486        0.232486 
        2.33166        0.415749        0.230953 
         2.3378        0.413475        0.229432 
        2.34394        0.410498        0.227925 
        2.35007        0.408813        0.226433 
        2.35619        0.407172        0.224956 
        2.36233        0.403912        0.223489 
        2.36848        0.402454        0.222032 
        2.37462        0.399895        0.220591 
        2.38075        0.398889        0.219164 
        2.38689        0.396388        0.217749 
        2.39303        0.394541        0.216346 
        2.39916        0.391611        0.214957 
        2.40529        0.390414         0.21358 
        2.41143        0.388513        0.212214 
        2.41757        0.386523        0.210859 
         2.4237        0.384709        0.209519 
        2.42983        0.382793        0.208191 
        2.43598        0.380891         0.20687 
        2.44211        0.379287        0.205563 
        2.44823        0.376964         0.20427 
        2.45437        0.374992        0.202985 
        2.46052        0.373783         0.20171 
        2.46665        0.371371        0.200448 
        2.47279        0.369448        0.199197 
        2.47892        0.367083        0.197955 
        2.48507        0.365718        0.196724 
         2.4912        0.364047        0.195505 
