# k  (h/Mpc)    P(k)  (Mpc/h)^3    P_linear(k)  (Mpc/h)^3
     0.00783031          93.912         94.7305 
       0.013688         113.924         114.335 
       0.019231         112.863         112.859 
      0.0249154         100.979         101.113 
      0.0312784         84.3288          84.159 
      0.0375637         69.2714         69.0045 
      0.0433917         58.6409         58.4522 
      0.0492413         51.5079         51.3294 
      0.0555754         46.6271         46.5444 
      0.0619321         43.4973         43.3674 
       0.067871         40.6988         40.6834 
      0.0738098          37.555         37.5612 
      0.0800417         33.6218         33.6398 
      0.0862327         29.4458         29.4166 
      0.0921407         25.6478         25.5908 
      0.0982031         22.3542         22.3103 
       0.104506         19.8992         19.8142 
       0.110769         18.2792         18.2147 
       0.116806         17.3019         17.2825 
       0.122832         16.6812         16.6513 
       0.129052         16.0085         16.0113 
       0.135211         15.1679         15.1801 
       0.141259         14.1227         14.1142 
       0.147318         12.9055         12.8765 
       0.153489         11.6232         11.5992 
       0.159709         10.4833         10.4564 
       0.165845         9.62011         9.57126 
       0.171974         8.96835         8.94893 
       0.178125         8.56303         8.54204 
       0.184229         8.29143         8.26856 
        0.19034         8.02636          8.0287 
       0.196428         7.75235         7.74558 
       0.202534         7.40409         7.37795 
       0.208729          6.9384         6.92523 
       0.214876         6.44249         6.43783 
       0.220989         5.99529         5.96912 
       0.227147         5.56782          5.5586 
        0.23329         5.24381         5.23416 
       0.239377         5.00598         4.99593 
       0.245482         4.82523         4.82075 
       0.251667         4.69051         4.67745 
       0.257832         4.54338         4.53759 
       0.263955         4.38772         4.37979 
       0.270079          4.2041         4.19452 
        0.27624         4.00411         3.98655 
       0.282372         3.79076         3.77303 
        0.28843         3.58337         3.57236 
       0.294538          3.4057         3.39393 
       0.300721         3.26159         3.24359 
        0.30691         3.13358         3.12252 
       0.313033         3.03379         3.02358 
       0.319153         2.93402         2.93551 
       0.325316         2.86163         2.84746 
        0.33145         2.76584         2.75447 
       0.337538          2.6651         2.65443 
       0.343633         2.55674         2.54941 
       0.349808         2.45331         2.44267 
       0.355968         2.35435         2.34155 
       0.362074         2.26105         2.25078 
       0.368217         2.18081         2.17048 
       0.374374         2.10608         2.10067 
       0.380519         2.04822         2.03859 
       0.386598         1.99239          1.9815 
       0.392688         1.93869          1.9255 
        0.39888         1.87772         1.86743 
       0.405048         1.81921          1.8083 
       0.411186         1.76008         1.74862 
       0.417313         1.69916         1.68986 
       0.423458          1.6458         1.63367 
       0.429607         1.59038         1.58126 
       0.435692         1.54272         1.53367 
       0.441815         1.49898         1.49002 
       0.447964         1.46184         1.44938 
       0.454126         1.41917         1.41068 
       0.460267         1.38101         1.37324 
       0.466387         1.34315         1.33637 
        0.47254          1.3067         1.29929 
       0.478662          1.2717         1.26277 
       0.484765          1.2342         1.22725 
       0.490885         1.20129         1.19297 
       0.497035         1.17149         1.16016 
       0.503198         1.13827         1.12919 
       0.509342          1.1111         1.10023 
       0.515458         1.08129         1.07291 
       0.521598         1.05515         1.04657 
       0.527764         1.02745         1.02088 
       0.533884         1.00591        0.995997 
           0.54        0.980692        0.971652 
       0.546137        0.957414        0.947668 
       0.552299        0.933316        0.924154 
       0.558452         0.90897        0.901434 
       0.564573        0.888481        0.879742 
       0.570708        0.867624        0.858973 
       0.576825        0.847148        0.839132 
       0.582926        0.829558        0.820093 
       0.589034        0.807794        0.801672 
       0.595184        0.790308        0.783694 
       0.601379        0.773305        0.766109 
       0.607522         0.75753        0.749133 
       0.613639         0.74209        0.732642 
       0.619772        0.723727        0.716514 
       0.625918        0.708636        0.700798 
       0.632068        0.694288        0.685554 
       0.638161        0.678791        0.670958 
         0.6443         0.66459        0.656773 
       0.650464        0.649457        0.643018 
       0.656582        0.637275        0.629793 
       0.662703        0.624561        0.616939 
       0.668861        0.613169        0.604345 
       0.675024         0.59985        0.592049 
       0.681124        0.586664        0.580187 
       0.687237        0.576334        0.568611 
       0.693381        0.565303        0.557294 
       0.699536        0.552314        0.546277 
       0.705665        0.541892        0.535628 
       0.711789        0.532789        0.525291 
       0.717957        0.521556         0.51517 
        0.72409        0.512328        0.505379 
       0.730186        0.502229        0.495904 
       0.736317        0.494363        0.486617 
       0.742472        0.484841        0.477526 
       0.748622        0.475541        0.468669 
        0.75476        0.466094        0.460053 
       0.760888         0.45756        0.451665 
       0.767043        0.451407        0.443455 
       0.773185        0.442047        0.435468 
       0.779291        0.434216        0.427728 
       0.785407        0.426867        0.420171 
       0.791564        0.419581        0.412753 
       0.797719        0.412596        0.405521 
       0.803834        0.405775         0.39851 
       0.809972        0.398356        0.391642 
       0.816124        0.391462        0.384922 
       0.822261        0.384451        0.378376 
       0.828378        0.378628        0.372002 
       0.834502        0.372712        0.365769 
       0.840667        0.365717        0.359639 
       0.846816        0.359892        0.353666 
       0.852925        0.354955        0.347866 
       0.859047        0.349172        0.342186 
       0.865192        0.342807        0.336614 
       0.871341        0.337262        0.331163 
       0.877463        0.332895        0.325859 
       0.883569        0.327064        0.320685 
       0.889708        0.322167        0.315598 
       0.895864        0.316859         0.31061 
       0.902008         0.31196         0.30574 
       0.908149        0.307035        0.300979 
       0.914301        0.301576        0.296312 
       0.920448        0.297432        0.291749 
       0.926574        0.292778        0.287298 
       0.932687        0.288134         0.28295 
       0.938823        0.284776        0.278677 
       0.944975        0.280465        0.274483 
       0.951105        0.276336        0.270391 
       0.957225        0.272875        0.266389 
       0.963368        0.268512        0.262455 
       0.969511        0.264168        0.258601 
       0.975621        0.260387        0.254846 
       0.981748        0.257426        0.251155 
       0.987916        0.253485        0.247515 
        0.99406        0.249688        0.243961 
        1.00019        0.246598        0.240484 
        1.00632        0.242543        0.237078 
        1.01246        0.238998        0.233734 
        1.01859        0.236181        0.230459 
        1.02471        0.232893        0.227252 
        1.03085        0.230248        0.224095 
        1.03698        0.226587        0.221004 
        1.04314        0.223612        0.217959 
        1.04929        0.220394        0.214979 
        1.05541        0.217882        0.212067 
        1.06154        0.214663        0.209202 
        1.06769        0.211611        0.206385 
        1.07382        0.209008         0.20363 
        1.07993        0.206065        0.200931 
        1.08607        0.204032        0.198271 
        1.09222         0.20094        0.195656 
        1.09836        0.198861        0.193091 
        1.10449        0.196301        0.190576 
        1.11063        0.193256        0.188103 
        1.11677         0.19076        0.185674 
         1.1229        0.188567        0.183294 
        1.12903        0.186079        0.180952 
        1.13518        0.183991         0.17865 
        1.14131        0.181535         0.17639 
        1.14745        0.178729         0.17417 
        1.15359        0.176957        0.171988 
        1.15973        0.174443        0.169842 
        1.16584         0.17282        0.167743 
        1.17197         0.17062        0.165677 
        1.17811        0.168861        0.163639 
        1.18424        0.167005        0.161641 
        1.19038        0.164651        0.159671 
        1.19652        0.162355        0.157735 
        1.20267        0.160937        0.155831 
        1.20881        0.158984        0.153959 
        1.21495        0.157327        0.152121 
        1.22108        0.155206        0.150313 
         1.2272        0.153668        0.148538 
        1.23334        0.151689        0.146789 
        1.23949        0.150007        0.145063 
        1.24562        0.148316         0.14337 
        1.25174        0.146711        0.141707 
        1.25789        0.145287        0.140065 
        1.26402        0.143159        0.138452 
        1.27014        0.141773        0.136868 
        1.27628        0.140282        0.135304 
        1.28244        0.138395        0.133762 
        1.28858        0.137055        0.132247 
        1.29471        0.135886        0.130758 
        1.30084        0.134088        0.129293 
        1.30697        0.132605        0.127849 
        1.31312        0.130861        0.126424 
        1.31925          0.1296        0.125026 
        1.32537        0.128378        0.123651 
        1.33151         0.12708        0.122291 
        1.33765        0.125745        0.120952 
        1.34378        0.124214        0.119637 
        1.34992         0.12291         0.11834 
        1.35606        0.121663        0.117059 
         1.3622        0.120469          0.1158 
        1.36833        0.119112        0.114562 
        1.37445        0.117609        0.113343 
        1.38059        0.116564        0.112139 
        1.38675        0.115711        0.110948 
        1.39288        0.114393         0.10978 
        1.39901        0.113148        0.108629 
        1.40515        0.112207        0.107493 
         1.4113        0.110769        0.106372 
        1.41742        0.109684        0.105273 
        1.42355        0.108801        0.104186 
         1.4297        0.107526        0.103112 
        1.43585         0.10653        0.102053 
        1.44198        0.105583        0.101014 
        1.44809        0.104398       0.0999904 
        1.45423         0.10347       0.0989776 
        1.46036        0.102412       0.0979806 
        1.46649        0.101631        0.096997 
        1.47263        0.100489       0.0960262 
        1.47877       0.0993368       0.0950692 
        1.48491       0.0985219       0.0941236 
        1.49104       0.0974131        0.093193 
        1.49718       0.0964462       0.0922742 
        1.50333       0.0958124       0.0913664 
        1.50947       0.0947042       0.0904727 
         1.5156       0.0938278       0.0895922 
        1.52172       0.0929696       0.0887234 
        1.52787       0.0920806       0.0878645 
          1.534       0.0911072       0.0870179 
        1.54013       0.0903068       0.0861834 
        1.54627       0.0896823       0.0853583 
        1.55241       0.0886319       0.0845439 
        1.55855       0.0877658       0.0837412 
        1.56467       0.0872897       0.0829513 
         1.5708       0.0863407       0.0821692 
        1.57695       0.0855128       0.0813961 
        1.58308       0.0846863       0.0806348 
        1.58922       0.0839962       0.0798827 
        1.59535       0.0832338       0.0791404 
         1.6015       0.0824161       0.0784066 
        1.60764       0.0817422       0.0776824 
        1.61376        0.080933       0.0769694 
        1.61989       0.0803212       0.0762647 
        1.62604        0.079659       0.0755673 
        1.63218       0.0789172       0.0748791 
        1.63831        0.078232       0.0742011 
        1.64444       0.0775438       0.0735311 
        1.65059       0.0768974       0.0728679 
        1.65673       0.0762594       0.0722136 
        1.66285       0.0757141       0.0715692 
        1.66898       0.0749756       0.0709324 
        1.67512       0.0742469       0.0703021 
        1.68127        0.073581       0.0696789 
         1.6874       0.0730862       0.0690647 
        1.69353       0.0722712       0.0684583 
        1.69967       0.0719237       0.0678577 
        1.70581       0.0710477       0.0672646 
        1.71193       0.0705316       0.0666808 
        1.71806       0.0698831       0.0661027 
        1.72421       0.0695321       0.0655303 
        1.73035        0.068771       0.0649654 
        1.73649       0.0683539       0.0644072 
        1.74262       0.0677365        0.063856 
        1.74876       0.0671411       0.0633109 
        1.75489        0.066687       0.0627733 
        1.76101       0.0660398       0.0622421 
        1.76715       0.0654979       0.0617163 
        1.77329       0.0648828       0.0611959 
        1.77943        0.064452       0.0606813 
        1.78557       0.0639899       0.0601734 
        1.79171       0.0634849       0.0596712 
        1.79785       0.0629728       0.0591746 
        1.80399       0.0624372       0.0586838 
        1.81012        0.061982       0.0581992 
        1.81625       0.0614564       0.0577203 
        1.82239       0.0609568       0.0572461 
        1.82853       0.0604791       0.0567775 
        1.83466       0.0600207       0.0563145 
        1.84078       0.0595475       0.0558572 
        1.84692       0.0590149       0.0554042 
        1.85306         0.05868       0.0549557 
         1.8592       0.0581246       0.0545129 
        1.86533       0.0577722       0.0540752 
        1.87147       0.0572588       0.0536418 
        1.87761       0.0569409        0.053213 
        1.88375       0.0564867       0.0527893 
        1.88988       0.0559937       0.0523707 
        1.89601       0.0555913       0.0519564 
        1.90215       0.0551429       0.0515463 
        1.90829       0.0546693       0.0511408 
        1.91442       0.0544179       0.0507397 
        1.92056       0.0539213       0.0503431 
         1.9267       0.0534862       0.0499505 
        1.93284       0.0531034       0.0495618 
        1.93897       0.0527322       0.0491779 
        1.94509       0.0524009        0.048799 
        1.95123       0.0519599        0.048423 
        1.95737       0.0515978       0.0480508 
        1.96349       0.0511725       0.0476835 
        1.96964       0.0508154       0.0473189 
        1.97578       0.0504386       0.0469579 
        1.98192       0.0501323       0.0466015 
        1.98805       0.0497588       0.0462487 
        1.99419       0.0493413       0.0458996 
        2.00033       0.0489817       0.0455539 
        2.00647       0.0487592       0.0452118 
         2.0126       0.0482776       0.0448739 
        2.01874       0.0480517       0.0445389 
        2.02488       0.0477048       0.0442069 
        2.03101       0.0473657        0.043879 
        2.03714       0.0469296       0.0435547 
        2.04328       0.0467351       0.0432334 
        2.04941       0.0462811       0.0429155 
        2.05554       0.0460675        0.042601 
        2.06167       0.0457831       0.0422893 
        2.06781       0.0453722       0.0419807 
        2.07396       0.0450924       0.0416747 
        2.08009       0.0447727       0.0413722 
        2.08622       0.0444872       0.0410731 
        2.09237       0.0441835       0.0407764 
        2.09851       0.0438769       0.0404826 
        2.10464       0.0436282       0.0401921 
        2.11077       0.0432843       0.0399048 
        2.11691       0.0429686       0.0396198 
        2.12305       0.0427076       0.0393374 
        2.12918       0.0424667       0.0390585 
        2.13531       0.0420885       0.0387823 
        2.14145       0.0417858       0.0385082 
         2.1476       0.0415545       0.0382363 
        2.15372        0.041353       0.0379684 
        2.15985       0.0409952       0.0377029 
        2.16599         0.04073       0.0374391 
        2.17213       0.0404914       0.0371781 
        2.17827       0.0401912       0.0369197 
         2.1844       0.0400067       0.0366639 
        2.19054       0.0397106       0.0364105 
        2.19666       0.0394331       0.0361598 
         2.2028       0.0391479       0.0359113 
        2.20893        0.038976        0.035665 
        2.21508       0.0387085       0.0354207 
        2.22122       0.0384054       0.0351786 
        2.22736       0.0382117       0.0349393 
        2.23349       0.0379425       0.0347022 
        2.23962       0.0377801       0.0344673 
        2.24577        0.037487       0.0342343 
         2.2519       0.0372551       0.0340038 
        2.25802       0.0370216       0.0337757 
        2.26417       0.0367831       0.0335492 
        2.27031       0.0365218       0.0333244 
        2.27644        0.036292       0.0331025 
        2.28257       0.0361124       0.0328825 
        2.28872       0.0358883       0.0326641 
        2.29486       0.0357093       0.0324478 
        2.30099       0.0354505       0.0322338 
        2.30712       0.0351532       0.0320217 
        2.31326        0.034974       0.0318111 
         2.3194       0.0348365       0.0316026 
        2.32553       0.0345866       0.0313962 
        2.33166       0.0344389       0.0311918 
         2.3378       0.0342106        0.030989 
        2.34394       0.0339575       0.0307878 
        2.35007       0.0337328       0.0305888 
        2.35619       0.0334821       0.0303917 
        2.36233       0.0333666       0.0301959 
        2.36848       0.0332312       0.0300014 
        2.37462       0.0329625       0.0298091 
        2.38075        0.032767       0.0296186 
        2.38689       0.0325738       0.0294296 
        2.39303        0.032416       0.0292423 
        2.39916       0.0321936       0.0290568 
        2.40529       0.0320395       0.0288729 
        2.41143       0.0318039       0.0286905 
        2.41757        0.031629       0.0285096 
         2.4237        0.031496       0.0283306 
        2.42983       0.0313266       0.0281532 
        2.43598        0.031161       0.0279767 
        2.44211       0.0309097       0.0278021 
        2.44823       0.0307692       0.0276294 
        2.45437       0.0305673       0.0274577 
        2.46052       0.0304098       0.0272872 
        2.46665       0.0301951       0.0271186 
        2.47279       0.0300464       0.0269514 
        2.47892       0.0298313       0.0267855 
        2.48507       0.0296784       0.0266208 
         2.4912       0.0295371       0.0264579 
