# k  (h/Mpc)    P(k)  (Mpc/h)^3    P_linear(k)  (Mpc/h)^3
     0.00783031         7128.91         7237.26 
       0.013688         8242.84         8213.97 
       0.019231          7756.7         7741.36 
      0.0249154         6598.35         6674.35 
      0.0312784         5367.27         5379.67 
      0.0375637         4353.03         4328.15 
      0.0433917         3628.22         3642.05 
      0.0492413         3204.42         3197.91 
      0.0555754          2864.9         2899.31 
      0.0619321         2707.05         2682.69 
       0.067871         2458.03         2480.12 
      0.0738098         2225.13         2243.66 
      0.0800417         1940.98         1964.77 
      0.0862327         1687.05         1688.76 
      0.0921407         1476.61         1459.13 
      0.0982031          1287.3         1277.71 
       0.104506         1184.01         1149.86 
       0.110769          1099.1         1071.52 
       0.116806         1039.66         1022.34 
       0.122832         999.326         979.341 
       0.129052          931.55         926.163 
       0.135211         867.701          858.86 
       0.141259         804.269         782.267 
       0.147318         733.628         704.169 
       0.153489         659.158         632.902 
       0.159709         608.756         575.892 
       0.165845         574.902         535.564 
       0.171974         541.215         508.256 
       0.178125         520.353         488.633 
       0.184229         501.446         471.219 
        0.19034         470.108          451.51 
       0.196428         455.156         427.721 
       0.202534         434.242         400.358 
       0.208729         404.289          371.46 
       0.214876         376.863         344.526 
       0.220989         358.667         321.576 
       0.227147         338.207         303.166 
        0.23329         323.428         289.074 
       0.239377         314.777         278.035 
       0.245482         295.232         268.265 
       0.251667         290.776         258.283 
       0.257832         279.887         247.443 
       0.263955         268.093          235.71 
       0.270079         255.668         223.523 
        0.27624         248.919         211.585 
       0.282372         238.412          200.71 
        0.28843         228.427         191.359 
       0.294538         217.896         183.348 
       0.300721         214.472         176.434 
        0.30691         204.557         170.253 
       0.313033         199.186         164.434 
       0.319153         190.624         158.582 
       0.325316         186.166         152.547 
        0.33145         178.863         146.441 
       0.337538         175.188         140.471 
       0.343633         168.548         134.774 
       0.349808         162.825         129.454 
       0.355968         159.438          124.65 
       0.362074         154.803         120.358 
       0.368217         150.155         116.405 
       0.374374         145.136         112.677 
       0.380519         142.312         109.084 
       0.386598         138.337         105.578 
       0.392688         135.753         102.103 
        0.39888         131.994         98.6363 
       0.405048          128.39         95.2944 
       0.411186         125.349          92.132 
       0.417313         122.211         89.1684 
       0.423458         119.296         86.3867 
       0.429607         116.358         83.7819 
       0.435692         112.443         81.3457 
       0.441815         111.328         78.9955 
       0.447964         109.182         76.7116 
       0.454126         104.267         74.4868 
       0.460267         103.007         72.3251 
       0.466387         101.213         70.2349 
        0.47254         98.9235         68.2114 
       0.478662         97.8739         66.2851 
       0.484765         94.7234         64.4517 
       0.490885         93.0096         62.6994 
       0.497035          91.748         61.0197 
       0.503198         89.0641         59.4063 
       0.509342         87.2833         57.8548 
       0.515458         85.8561         56.3593 
       0.521598         84.4107         54.9047 
       0.527764         83.0929         53.4897 
       0.533884         81.7677         52.1298 
           0.54         79.9662         50.8169 
       0.546137         79.1124          49.547 
       0.552299         77.7659         48.3208 
       0.558452         75.9296         47.1432 
       0.564573         74.5551         46.0135 
       0.570708         73.3658         44.9194 
       0.576825         72.3276         43.8635 
       0.582926         70.7139         42.8435 
       0.589034         69.4507         41.8538 
       0.595184         68.4808         40.8877 
       0.601379         67.4343         39.9447 
       0.607522         65.8692         39.0385 
       0.613639          65.566         38.1646 
       0.619772          64.113         37.3163 
       0.625918         63.2956         36.4936 
       0.632068         62.5334         35.6964 
       0.638161         61.6768         34.9308 
         0.6443         60.7809         34.1822 
       0.650464         59.9635         33.4525 
       0.656582         59.0701         32.7488 
       0.662703         57.9316         32.0649 
       0.668861         57.1645         31.3965 
       0.675024         56.4727         30.7468 
       0.681124         55.6673         30.1224 
       0.687237         54.5962         29.5145 
       0.693381         54.0378         28.9208 
       0.699536         53.2276         28.3427 
       0.705665         53.3332          27.783 
       0.711789         51.9018          27.239 
       0.717957         51.4084         26.7059 
        0.72409         50.6626         26.1899 
       0.730186         49.8419         25.6908 
       0.736317          49.642         25.2019 
       0.742472         48.9491         24.7241 
       0.748622          48.353         24.2592 
        0.75476         47.8038         23.8075 
       0.760888         47.0549          23.368 
       0.767043         46.5453          22.938 
       0.773185         45.9445         22.5198 
       0.779291         45.6101         22.1145 
       0.785407         45.1732         21.7186 
       0.791564         44.5949           21.33 
       0.797719         43.7526         20.9511 
       0.803834         43.5875         20.5839 
       0.809972         42.8148         20.2242 
       0.816124         42.4015         19.8723 
       0.822261          42.038         19.5298 
       0.828378         41.7666         19.1965 
       0.834502         41.2215         18.8707 
       0.840667         40.7833         18.5503 
       0.846816         40.1685         18.2384 
       0.852925         39.8582         17.9356 
       0.859047         39.3064         17.6391 
       0.865192         38.9951         17.3484 
       0.871341         38.8179         17.0641 
       0.877463         38.0533         16.7874 
       0.883569         37.7644         16.5176 
       0.889708         37.5013         16.2524 
       0.895864         37.1249         15.9924 
       0.902008         36.7634         15.7386 
       0.908149         36.4348         15.4905 
       0.914301         36.1818         15.2473 
       0.920448         35.7935         15.0096 
       0.926574         35.3707         14.7779 
       0.932687         35.1344         14.5515 
       0.938823         34.5942         14.3291 
       0.944975         34.4331         14.1109 
       0.951105          34.071          13.898 
       0.957225         33.6497         13.6899 
       0.963368         33.6553         13.4853 
       0.969511         33.2827          13.285 
       0.975621         33.0257         13.0898 
       0.981748         32.5841          12.898 
       0.987916         32.3441         12.7089 
        0.99406         32.1328         12.5244 
        1.00019         31.7626         12.3439 
        1.00632          31.561         12.1671 
        1.01246         31.3816         11.9935 
        1.01859         30.8914         11.8236 
        1.02471         30.8476         11.6572 
        1.03085         30.5686         11.4935 
        1.03698           30.18         11.3333 
        1.04314         29.9658         11.1754 
        1.04929         29.7256          11.021 
        1.05541         29.4159         10.8701 
        1.06154         29.3593         10.7216 
        1.06769         29.0639         10.5757 
        1.07382         28.8687          10.433 
        1.07993         28.6954         10.2933 
        1.08607         28.3726         10.1556 
        1.09222          28.234         10.0202 
        1.09836         27.9837         9.88752 
        1.10449         27.7626         9.75736 
        1.11063         27.4204         9.62941 
        1.11677         27.2972          9.5038 
         1.1229         27.1419         9.38065 
        1.12903         26.7869         9.25958 
        1.13518         26.7977         9.14056 
        1.14131         26.6112         9.02369 
        1.14745         26.2559         8.90894 
        1.15359         26.2353         8.79618 
        1.15973          25.906         8.68532 
        1.16584         25.7195         8.57687 
        1.17197         25.6393         8.47012 
        1.17811         25.3951         8.36487 
        1.18424         25.1748         8.26172 
        1.19038         25.0845         8.16001 
        1.19652         24.9831         8.06006 
        1.20267         24.7735         7.96179 
        1.20881         24.5508         7.86518 
        1.21495          24.384         7.77033 
        1.22108         24.2301         7.67707 
         1.2272         23.9766         7.58556 
        1.23334         23.9046         7.49533 
        1.23949         23.8104         7.40637 
        1.24562         23.5665          7.3191 
        1.25174         23.4871         7.23336 
        1.25789         23.2948         7.14875 
        1.26402          23.133         7.06564 
        1.27014         22.9025         6.98406 
        1.27628         22.8077         6.90353 
        1.28244         22.6876         6.82411 
        1.28858         22.5728         6.74605 
        1.29471         22.4484         6.66939 
        1.30084         22.3079           6.594 
        1.30697         22.1399         6.51966 
        1.31312         21.9458         6.44635 
        1.31925         21.8419         6.37441 
        1.32537         21.7337         6.30364 
        1.33151         21.5784          6.2337 
        1.33765         21.5104         6.16485 
        1.34378         21.3454         6.09719 
        1.34992         21.1503         6.03049 
        1.35606         21.0573         5.96464 
         1.3622         20.9511          5.8999 
        1.36833         20.7788         5.83627 
        1.37445         20.7732         5.77361 
        1.38059         20.5874         5.71168 
        1.38675         20.3597         5.65051 
        1.39288         20.3602         5.59048 
        1.39901         20.1872         5.53135 
        1.40515         20.0973         5.47294 
         1.4113         19.9891          5.4154 
        1.41742         19.8056         5.35891 
        1.42355          19.772         5.30312 
         1.4297         19.6521         5.24795 
        1.43585         19.5896          5.1936 
        1.44198         19.3982         5.14022 
        1.44809         19.3024          5.0877 
        1.45423         19.2103         5.03572 
        1.46036         19.1576         4.98455 
        1.46649         19.0135         4.93408 
        1.47263         18.8835         4.88428 
        1.47877         18.8292         4.83518 
        1.48491         18.7681         4.78668 
        1.49104         18.6329         4.73895 
        1.49718           18.47         4.69183 
        1.50333         18.4366         4.64529 
        1.50947         18.3467         4.59947 
         1.5156         18.2308         4.55433 
        1.52172         18.1133         4.50981 
        1.52787         18.0699         4.46579 
          1.534         17.9296         4.42241 
        1.54013         17.8005         4.37965 
        1.54627         17.7445         4.33738 
        1.55241         17.6175         4.29566 
        1.55855         17.5392         4.25455 
        1.56467         17.4301         4.21409 
         1.5708         17.4163         4.17404 
        1.57695         17.2439         4.13445 
        1.58308         17.2264         4.09547 
        1.58922         17.1271         4.05696 
        1.59535         17.0132         4.01896 
         1.6015         16.9312         3.98139 
        1.60764         16.8869         3.94432 
        1.61376         16.7181         3.90783 
        1.61989         16.6475         3.87177 
        1.62604         16.6316         3.83608 
        1.63218          16.529         3.80087 
        1.63831         16.4625         3.76617 
        1.64444         16.3488          3.7319 
        1.65059         16.2655         3.69798 
        1.65673         16.1665         3.66451 
        1.66285         16.1349         3.63155 
        1.66898         16.0645         3.59898 
        1.67512         15.9956         3.56676 
        1.68127         15.9001         3.53489 
         1.6874         15.8121         3.50349 
        1.69353         15.7431         3.47249 
        1.69967         15.6482         3.44179 
        1.70581         15.5753         3.41147 
        1.71193         15.5323         3.38164 
        1.71806         15.4292         3.35209 
        1.72421         15.3651         3.32285 
        1.73035         15.2675         3.29398 
        1.73649          15.252         3.26546 
        1.74262         15.1753         3.23731 
        1.74876         15.1268         3.20947 
        1.75489         15.0282         3.18201 
        1.76101         14.9476         3.15488 
        1.76715         14.8982         3.12803 
        1.77329          14.842         3.10146 
        1.77943         14.7452         3.07519 
        1.78557         14.7042         3.04926 
        1.79171         14.6343         3.02363 
        1.79785         14.5313         2.99828 
        1.80399          14.485         2.97323 
        1.81012         14.4632          2.9485 
        1.81625         14.3843         2.92406 
        1.82239         14.3446         2.89986 
        1.82853          14.226         2.87595 
        1.83466         14.1469         2.85233 
        1.84078          14.081           2.829 
        1.84692         14.0646         2.80589 
        1.85306         13.9787         2.78301 
         1.8592         13.9182         2.76043 
        1.86533         13.8682          2.7381 
        1.87147         13.8018           2.716 
        1.87761         13.7679         2.69413 
        1.88375         13.7085         2.67253 
        1.88988         13.6269         2.65119 
        1.89601         13.5548         2.63007 
        1.90215         13.5207         2.60916 
        1.90829          13.475         2.58849 
        1.91442         13.4112         2.56804 
        1.92056         13.3462         2.54783 
         1.9267         13.2801         2.52782 
        1.93284         13.2182         2.50801 
        1.93897         13.1797         2.48845 
        1.94509         13.1192         2.46915 
        1.95123         13.0691         2.44999 
        1.95737          13.024         2.43103 
        1.96349         12.9507         2.41231 
        1.96964         12.8976         2.39374 
        1.97578         12.8459         2.37536 
        1.98192         12.7877          2.3572 
        1.98805         12.7502         2.33924 
        1.99419         12.6881         2.32146 
        2.00033         12.5967         2.30385 
        2.00647         12.5612         2.28644 
         2.0126         12.5322         2.26923 
        2.01874         12.4579         2.25218 
        2.02488         12.4275         2.23528 
        2.03101         12.3802         2.21859 
        2.03714         12.3389         2.20208 
        2.04328         12.2577         2.18573 
        2.04941         12.2031         2.16955 
        2.05554          12.195         2.15355 
        2.06167         12.1357         2.13769 
        2.06781         12.0922         2.12198 
        2.07396         12.0534         2.10641 
        2.08009         12.0086         2.09102 
        2.08622          11.908         2.07581 
        2.09237         11.8928         2.06071 
        2.09851         11.8484         2.04577 
        2.10464         11.7961         2.03099 
        2.11077          11.734         2.01638 
        2.11691         11.7004         2.00188 
        2.12305         11.6809         1.98752 
        2.12918         11.6022         1.97334 
        2.13531         11.5599          1.9593 
        2.14145         11.5116         1.94535 
         2.1476         11.4943         1.93153 
        2.15372         11.4335         1.91791 
        2.15985         11.3621         1.90441 
        2.16599         11.3512           1.891 
        2.17213         11.2907         1.87774 
        2.17827         11.2596          1.8646 
         2.1844         11.2054          1.8516 
        2.19054         11.1697         1.83872 
        2.19666          11.159         1.82598 
         2.2028         11.1041         1.81335 
        2.20893         11.0454         1.80084 
        2.21508         10.9782         1.78842 
        2.22122         10.9422         1.77613 
        2.22736          10.926         1.76397 
        2.23349         10.8665         1.75193 
        2.23962         10.8185         1.73999 
        2.24577         10.7834         1.72815 
         2.2519         10.7622         1.71645 
        2.25802         10.7203         1.70486 
        2.26417         10.6932         1.69336 
        2.27031         10.6134         1.68194 
        2.27644         10.6049         1.67067 
        2.28257         10.5513          1.6595 
        2.28872         10.5188         1.64841 
        2.29486         10.4746         1.63743 
        2.30099         10.4414         1.62656 
        2.30712         10.4185         1.61579 
        2.31326         10.3606          1.6051 
         2.3194         10.3412         1.59452 
        2.32553         10.2883         1.58404 
        2.33166         10.2346         1.57367 
         2.3378         10.2034         1.56337 
        2.34394          10.181         1.55316 
        2.35007         10.1212         1.54306 
        2.35619         10.0658         1.53306 
        2.36233         10.0649         1.52313 
        2.36848          10.043         1.51326 
        2.37462         10.0034          1.5035 
        2.38075         9.94054         1.49383 
        2.38689         9.92951         1.48425 
        2.39303          9.8759         1.47475 
        2.39916          9.8526         1.46534 
        2.40529         9.80816         1.45601 
        2.41143         9.78584         1.44676 
        2.41757         9.74828         1.43758 
         2.4237         9.71842          1.4285 
        2.42983         9.67086          1.4195 
        2.43598         9.64757         1.41055 
        2.44211         9.61311          1.4017 
        2.44823         9.56772         1.39294 
        2.45437         9.55148         1.38423 
        2.46052          9.5015         1.37559 
        2.46665         9.46814         1.36704 
        2.47279         9.42049         1.35856 
        2.47892         9.40373         1.35015 
        2.48507         9.37644          1.3418 
         2.4912         9.35136         1.33354 
