# k  (h/Mpc)    P(k)  (Mpc/h)^3    P_linear(k)  (Mpc/h)^3
     0.00783031         17431.9         17612.3 
       0.013688         19482.4         20050.6 
       0.019231         18666.2         18977.3 
      0.0249154         16520.9           16452 
      0.0312784         13265.1         13357.3 
      0.0375637         10685.3         10825.3 
      0.0433917         9153.41         9159.16 
      0.0492413         8010.25         8066.43 
      0.0555754         7326.12         7314.38 
      0.0619321         6559.32         6753.86 
       0.067871         6146.29         6228.46 
      0.0738098         5610.92         5625.31 
      0.0800417         4951.93         4926.68 
      0.0862327         4268.36         4244.69 
      0.0921407         3760.01         3682.18 
      0.0982031         3374.29         3239.43 
       0.104506         3003.32         2926.31 
       0.110769         2820.15         2730.53 
       0.116806         2718.21         2601.96 
       0.122832         2565.87         2485.14 
       0.129052         2411.04         2341.86 
       0.135211         2297.51         2165.83 
       0.141259          2080.6         1970.86 
       0.147318         1888.27         1776.17 
       0.153489         1741.94         1601.26 
       0.159709         1652.22         1462.69 
       0.165845         1512.85         1364.73 
       0.171974         1479.68         1297.23 
       0.178125         1429.32         1246.57 
       0.184229         1325.39         1199.58 
        0.19034         1298.06         1146.08 
       0.196428         1249.29         1082.83 
       0.202534         1156.28         1011.98 
       0.208729         1125.97         938.925 
       0.214876         1063.25         872.146 
       0.220989         1000.11         816.009 
       0.227147         970.881         771.193 
        0.23329         931.204         736.565 
       0.239377         923.887          708.71 
       0.245482         875.685         683.235 
       0.251667         843.265         656.694 
       0.257832         827.244         627.944 
       0.263955         783.469         597.319 
       0.270079         754.582         566.092 
        0.27624         722.193         536.053 
       0.282372         708.378         509.058 
        0.28843         696.993         486.013 
       0.294538         661.782         466.233 
       0.300721          645.95         448.932 
        0.30691         630.912         433.169 
       0.313033          602.97         418.068 
       0.319153         594.718          402.79 
       0.325316         584.767         387.072 
        0.33145         569.568         371.346 
       0.337538         548.151          356.15 
       0.343633         533.899         341.806 
       0.349808          520.72         328.517 
       0.355968         510.902         316.529 
       0.362074         491.405          305.78 
       0.368217         488.907         295.783 
       0.374374         480.814         286.259 
       0.380519         461.082         277.014 
       0.386598         456.506         267.966 
       0.392688         444.423         259.034 
        0.39888         433.703         250.169 
       0.405048         423.717         241.682 
       0.411186         423.118         233.703 
       0.417313         417.338          226.24 
       0.423458         405.768         219.236 
       0.429607         393.348         212.659 
       0.435692         388.217         206.473 
       0.441815         380.767         200.477 
       0.447964         373.307         194.638 
       0.454126         369.063         188.944 
       0.460267         362.777          183.42 
       0.466387         354.782         178.099 
        0.47254         350.607         172.965 
       0.478662         343.255         168.087 
       0.484765         338.185         163.448 
       0.490885         335.055         159.015 
       0.497035         327.346         154.757 
       0.503198         326.841         150.657 
       0.509342         319.717         146.706 
       0.515458         313.432         142.896 
       0.521598         309.662          139.19 
       0.527764         304.564         135.588 
       0.533884         301.538          132.13 
           0.54         297.953         128.796 
       0.546137         291.647         125.576 
       0.552299         290.129         122.468 
       0.558452         285.137         119.481 
       0.564573         283.707         116.613 
       0.570708         278.359         113.833 
       0.576825         273.599         111.149 
       0.582926         272.272         108.555 
       0.589034          267.06         106.039 
       0.595184          265.37         103.583 
       0.601379         261.107         101.187 
       0.607522          255.34         98.8864 
       0.613639         254.694          96.668 
       0.619772         253.548         94.5155 
       0.625918         248.551         92.4278 
       0.632068         246.246         90.4043 
       0.638161         244.642         88.4603 
         0.6443         240.684         86.5592 
       0.650464         238.142         84.7057 
       0.656582          235.51         82.9184 
       0.662703         234.609         81.1817 
       0.668861         229.582         79.4848 
       0.675024         228.879         77.8356 
       0.681124         225.212         76.2509 
       0.687237         224.219         74.7082 
       0.693381         220.351         73.2016 
       0.699536         219.803         71.7345 
       0.705665         217.107         70.3142 
       0.711789         214.513         68.9335 
       0.717957         213.022         67.5804 
        0.72409         209.905         66.2711 
       0.730186         210.912         65.0043 
       0.736317         207.511         63.7639 
       0.742472         205.394         62.5516 
       0.748622         203.416         61.3721 
        0.75476          202.64         60.2258 
       0.760888         200.142         59.1109 
       0.767043         197.384         58.0199 
       0.773185          195.67          56.959 
       0.779291          194.16         55.9308 
       0.785407         192.885         54.9266 
       0.791564         191.388         53.9409 
       0.797719         188.192         52.9798 
       0.803834         188.965         52.0483 
       0.809972         186.407         51.1359 
       0.816124         183.638         50.2435 
       0.822261          182.56         49.3749 
       0.828378         181.771         48.5295 
       0.834502          179.68         47.7032 
       0.840667         179.615         46.8909 
       0.846816         176.215         46.0999 
       0.852925         176.154         45.3322 
       0.859047         174.209         44.5804 
       0.865192         173.667         43.8433 
       0.871341         171.828         43.1224 
       0.877463          170.25          42.421 
       0.883569         169.869         41.7371 
       0.889708         168.425         41.0648 
       0.895864         166.229         40.4056 
       0.902008         165.019         39.7623 
       0.908149         163.562         39.1335 
       0.914301         162.494         38.5172 
       0.920448         161.983         37.9149 
       0.926574          160.14         37.3275 
       0.932687         160.011         36.7539 
       0.938823         158.398         36.1904 
       0.944975         157.951         35.6374 
       0.951105         156.061          35.098 
       0.957225         154.915         34.5707 
       0.963368         154.651         34.0525 
       0.969511         152.638         33.5449 
       0.975621         150.709         33.0504 
       0.981748         150.682         32.5647 
       0.987916         149.793         32.0857 
        0.99406         148.597         31.6182 
        1.00019         147.829         31.1609 
        1.00632         146.696         30.7131 
        1.01246         145.695         30.2735 
        1.01859         144.339         29.8432 
        1.02471         143.372         29.4218 
        1.03085         142.541         29.0072 
        1.03698         141.898         28.6014 
        1.04314         141.259         28.2016 
        1.04929         140.347         27.8105 
        1.05541         139.828         27.4284 
        1.06154         138.335         27.0525 
        1.06769         137.562         26.6831 
        1.07382         136.468         26.3218 
        1.07993         135.689          25.968 
        1.08607         135.444         25.6193 
        1.09222         133.911         25.2767 
        1.09836         133.287         24.9407 
        1.10449         132.579         24.6112 
        1.11063         131.358         24.2873 
        1.11677           130.8         23.9694 
         1.1229         129.956         23.6577 
        1.12903         128.733         23.3513 
        1.13518         128.149           23.05 
        1.14131         127.817         22.7543 
        1.14745         126.597         22.4639 
        1.15359          125.87         22.1785 
        1.15973         125.277          21.898 
        1.16584         124.416         21.6236 
        1.17197         123.934         21.3535 
        1.17811         122.891         21.0872 
        1.18424         122.233         20.8263 
        1.19038         121.593          20.569 
        1.19652         120.625         20.3161 
        1.20267         119.866         20.0675 
        1.20881           119.1         19.8232 
        1.21495         118.992         19.5832 
        1.22108         117.904         19.3473 
         1.2272         117.533         19.1159 
        1.23334         116.562         18.8877 
        1.23949         116.069         18.6627 
        1.24562         115.196          18.442 
        1.25174         115.122         18.2252 
        1.25789         114.039         18.0112 
        1.26402         113.481          17.801 
        1.27014         112.722         17.5948 
        1.27628         112.333         17.3911 
        1.28244         111.592         17.1903 
        1.28858         110.976         16.9929 
        1.29471          110.09         16.7991 
        1.30084         109.524         16.6085 
        1.30697         108.792         16.4205 
        1.31312         108.433         16.2352 
        1.31925         107.421         16.0533 
        1.32537         107.058         15.8744 
        1.33151         106.615         15.6976 
        1.33765         105.966         15.5236 
        1.34378         105.668         15.3525 
        1.34992         104.828          15.184 
        1.35606         104.494         15.0175 
         1.3622         103.883         14.8539 
        1.36833         103.162         14.6931 
        1.37445         102.791         14.5347 
        1.38059         102.073         14.3782 
        1.38675         101.583         14.2237 
        1.39288          100.95          14.072 
        1.39901         100.315         13.9226 
        1.40515         99.9466          13.775 
         1.4113         99.3559         13.6296 
        1.41742         99.0946         13.4869 
        1.42355         98.4753          13.346 
         1.4297         97.8411         13.2066 
        1.43585           97.44         13.0693 
        1.44198         96.7252         12.9345 
        1.44809         96.3132         12.8018 
        1.45423         96.0424         12.6705 
        1.46036          95.106         12.5413 
        1.46649         94.6575         12.4138 
        1.47263         94.1271          12.288 
        1.47877          93.818          12.164 
        1.48491         93.2757         12.0415 
        1.49104         92.6667          11.921 
        1.49718         92.2357          11.802 
        1.50333         91.6407         11.6845 
        1.50947         91.5598         11.5688 
         1.5156         90.8212         11.4548 
        1.52172         90.1655         11.3424 
        1.52787         89.9969         11.2312 
          1.534         89.5121         11.1217 
        1.54013         88.9014         11.0138 
        1.54627         88.4644          10.907 
        1.55241         88.2151         10.8017 
        1.55855         87.5145         10.6979 
        1.56467         87.0968         10.5958 
         1.5708          86.371         10.4947 
        1.57695         86.3198         10.3948 
        1.58308         85.7226         10.2964 
        1.58922         85.3306         10.1992 
        1.59535         85.2497         10.1032 
         1.6015          84.475         10.0084 
        1.60764         84.0441         9.91488 
        1.61376         83.9036         9.82278 
        1.61989         83.3167         9.73177 
        1.62604         82.9233         9.64171 
        1.63218         82.3664         9.55285 
        1.63831         82.0281         9.46531 
        1.64444         81.4845         9.37883 
        1.65059         81.0974         9.29323 
        1.65673          80.999         9.20878 
        1.66285         80.5446         9.12563 
        1.66898         79.8266         9.04347 
        1.67512         79.3586         8.96216 
        1.68127         79.2279         8.88178 
         1.6874          78.829         8.80256 
        1.69353         78.2949         8.72435 
        1.69967         77.8875         8.64691 
        1.70581         77.6116         8.57044 
        1.71193         77.2158         8.49518 
        1.71806         76.7198         8.42067 
        1.72421           76.33          8.3469 
        1.73035         75.9588          8.2741 
        1.73649         75.6736         8.20219 
        1.74262         75.2084         8.13118 
        1.74876         74.7217         8.06097 
        1.75489         74.6489         7.99173 
        1.76101         74.3114         7.92332 
        1.76715         73.7744         7.85562 
        1.77329         73.3893         7.78862 
        1.77943         73.0589         7.72238 
        1.78557         72.8206           7.657 
        1.79171         72.3019         7.59237 
        1.79785          71.981         7.52847 
        1.80399         71.6849         7.46531 
        1.81012         71.1618         7.40296 
        1.81625         70.8844         7.34135 
        1.82239         70.4933         7.28035 
        1.82853         70.1786         7.22007 
        1.83466         69.8058         7.16052 
        1.84078         69.5249         7.10171 
        1.84692         69.2534         7.04347 
        1.85306         69.1163          6.9858 
         1.8592         68.6791         6.92887 
        1.86533         68.1949          6.8726 
        1.87147         67.8582          6.8169 
        1.87761         67.3413         6.76178 
        1.88375         67.2455         6.70734 
        1.88988         66.8284         6.65356 
        1.89601         66.6441         6.60033 
        1.90215         66.3363         6.54765 
        1.90829         65.8122         6.49556 
        1.91442         65.4363         6.44404 
        1.92056         65.2848         6.39312 
         1.9267         64.9448          6.3427 
        1.93284         64.8004         6.29278 
        1.93897         64.2816          6.2435 
        1.94509         64.0491         6.19486 
        1.95123         63.7043          6.1466 
        1.95737         63.4737         6.09883 
        1.96349          63.275         6.05169 
        1.96964         62.9311          6.0049 
        1.97578         62.4595         5.95859 
        1.98192         62.1192         5.91286 
        1.98805         61.8683         5.86761 
        1.99419         61.7965         5.82282 
        2.00033         61.2774         5.77848 
        2.00647         60.9142         5.73462 
         2.0126         60.8052         5.69128 
        2.01874         60.5662         5.64832 
        2.02488         60.2366         5.60577 
        2.03101         59.8114         5.56374 
        2.03714         59.6188         5.52217 
        2.04328          59.437         5.48098 
        2.04941         59.0693         5.44025 
        2.05554         58.7131         5.39995 
        2.06167         58.4303         5.36001 
        2.06781         58.2006         5.32047 
        2.07396         57.8052         5.28127 
        2.08009         57.7011         5.24253 
        2.08622         57.2698         5.20422 
        2.09237         57.1119         5.16621 
        2.09851         56.7362         5.12858 
        2.10464         56.4762         5.09139 
        2.11077         56.3001         5.05461 
        2.11691         56.0578         5.01811 
        2.12305          55.693         4.98196 
        2.12918         55.3976         4.94626 
        2.13531         55.2408         4.91091 
        2.14145         54.8923         4.87582 
         2.1476         54.8166         4.84103 
        2.15372         54.3537         4.80675 
        2.15985         54.1742         4.77277 
        2.16599         53.9724         4.73902 
        2.17213         53.6647         4.70563 
        2.17827         53.2653         4.67257 
         2.1844          53.142         4.63986 
        2.19054         52.9645         4.60745 
        2.19666          52.649          4.5754 
         2.2028         52.4408         4.54362 
        2.20893         52.0941         4.51212 
        2.21508         51.9401         4.48089 
        2.22122         51.5647         4.44994 
        2.22736         51.3359         4.41935 
        2.23349         51.1631         4.38905 
        2.23962         50.9724         4.35902 
        2.24577         50.7083         4.32924 
         2.2519         50.4202         4.29979 
        2.25802         50.1909         4.27065 
        2.26417         50.0327          4.2417 
        2.27031         49.8104         4.21299 
        2.27644         49.4143         4.18463 
        2.28257         49.3099         4.15653 
        2.28872         49.0156         4.12864 
        2.29486         48.8451         4.10101 
        2.30099         48.5484         4.07369 
        2.30712         48.3663          4.0466 
        2.31326         48.1134         4.01971 
         2.3194         47.9059         3.99308 
        2.32553         47.6674         3.96674 
        2.33166         47.4936         3.94065 
         2.3378         47.2207         3.91475 
        2.34394         47.0658         3.88908 
        2.35007         46.7899         3.86368 
        2.35619         46.6103         3.83853 
        2.36233         46.4405         3.81354 
        2.36848         46.1511         3.78873 
        2.37462         45.9405         3.76419 
        2.38075         45.6587         3.73989 
        2.38689         45.4835         3.71578 
        2.39303         45.3604         3.69189 
        2.39916         45.1157         3.66823 
        2.40529         44.9603         3.64478 
        2.41143         44.7607         3.62152 
        2.41757         44.4831         3.59845 
         2.4237         44.3558         3.57563 
        2.42983          44.121           3.553 
        2.43598         43.9591         3.53051 
        2.44211         43.6782         3.50825 
        2.44823         43.5502         3.48623 
        2.45437         43.2457         3.46434 
        2.46052         43.0997         3.44262 
        2.46665         42.8542         3.42112 
        2.47279         42.6669         3.39982 
        2.47892         42.4843         3.37868 
        2.48507         42.3203          3.3577 
         2.4912         42.1007         3.33693 
