# k  (h/Mpc)    Pcb(k)  (Mpc/h)^3    Pcb_linear(k)  (Mpc/h)^3
     0.00783031         594.312         599.575 
       0.013688         678.002         684.035 
       0.019231          646.07         648.116 
      0.0249154         562.902         562.234 
      0.0312784          457.38         456.679 
      0.0375637         370.453         370.217 
      0.0433917         314.386         313.296 
      0.0492413         276.204         275.956 
      0.0555754          251.23         250.256 
      0.0619321          230.09         231.098 
       0.067871         213.177         213.133 
      0.0738098         192.622         192.504 
      0.0800417         169.121         168.603 
      0.0862327         145.517         145.269 
      0.0921407         126.348         126.021 
      0.0982031         111.536         110.871 
       0.104506         100.213         100.157 
       0.110769         93.5691         93.4574 
       0.116806         89.4901         89.0581 
       0.122832         85.1219         85.0609 
       0.129052          80.466         80.1575 
       0.135211         74.6011         74.1331 
       0.141259         67.7428         67.4601 
       0.147318         60.9237         60.7969 
       0.153489         55.1478         54.8101 
       0.159709         50.5231         50.0675 
       0.165845         46.8288         46.7146 
       0.171974         44.9033         44.4043 
       0.178125         43.0645         42.6702 
       0.184229         41.3112          41.062 
        0.19034         39.6674         39.2307 
       0.196428         37.4595          37.066 
       0.202534         34.8022         34.6407 
       0.208729         32.5439         32.1402 
       0.214876          30.376         29.8543 
       0.220989         28.2672         27.9328 
       0.227147         26.9343         26.3987 
        0.23329         25.7472         25.2135 
       0.239377         24.8064           24.26 
       0.245482         23.9055          23.388 
       0.251667         22.8669         22.4795 
       0.257832         22.0468         21.4954 
       0.263955         20.8708          20.447 
       0.270079         19.8099         19.3782 
        0.27624         18.7316           18.35 
       0.282372         17.8269          17.426 
        0.28843         17.1616          16.637 
       0.294538         16.4492         15.9599 
       0.300721         15.7653         15.3677 
        0.30691         15.3262         14.8282 
       0.313033         14.7713         14.3112 
       0.319153         14.3489         13.7882 
       0.325316         13.6685         13.2502 
        0.33145         13.1127         12.7119 
       0.337538          12.622         12.1917 
       0.343633         12.1845         11.7008 
       0.349808         11.6903         11.2458 
       0.355968          11.268         10.8354 
       0.362074         10.9542         10.4675 
       0.368217         10.5839         10.1252 
       0.374374         10.3083         9.79926 
       0.380519         9.92599         9.48276 
       0.386598         9.58547         9.17304 
       0.392688         9.26096         8.86727 
        0.39888         8.99423         8.56383 
       0.405048         8.71871         8.27332 
       0.411186         8.43146         8.00015 
       0.417313         8.17322         7.74468 
       0.423458         7.89138         7.50497 
       0.429607         7.71932         7.27977 
       0.435692         7.52248         7.06803 
       0.441815         7.27227         6.86277 
       0.447964         7.04326          6.6629 
       0.454126         6.88121         6.46796 
       0.460267         6.72637         6.27891 
       0.466387         6.52021         6.09673 
        0.47254         6.36226           5.921 
       0.478662         6.17445           5.754 
       0.484765         6.01792         5.59521 
       0.490885         5.83847         5.44345 
       0.497035         5.67481         5.29771 
       0.503198         5.56235         5.15735 
       0.509342         5.39648          5.0221 
       0.515458          5.2841         4.89166 
       0.521598         5.15936         4.76482 
       0.527764         5.05258         4.64149 
       0.533884         4.89115         4.52312 
           0.54         4.79512         4.40901 
       0.546137         4.66009         4.29877 
       0.552299         4.55987         4.19237 
       0.558452         4.44976         4.09012 
       0.564573          4.3609         3.99195 
       0.570708         4.26391         3.89678 
       0.576825          4.1702         3.80489 
       0.582926         4.06835         3.71611 
       0.589034         3.99178         3.62997 
       0.595184         3.92002         3.54592 
       0.601379         3.81816          3.4639 
       0.607522         3.72919         3.38513 
       0.613639         3.64438         3.30919 
       0.619772         3.58341          3.2355 
       0.625918         3.50718         3.16404 
       0.632068         3.43905         3.09477 
       0.638161         3.36802         3.02822 
         0.6443         3.29498         2.96314 
       0.650464         3.22672         2.89969 
       0.656582         3.18055         2.83851 
       0.662703          3.1152         2.77905 
       0.668861         3.03623         2.72097 
       0.675024         2.98015         2.66451 
       0.681124         2.95885         2.61026 
       0.687237         2.88488         2.55745 
       0.693381          2.8123         2.50588 
       0.699536         2.78136         2.45566 
       0.705665         2.72812         2.40703 
       0.711789         2.66543         2.35977 
       0.717957         2.61706         2.31345 
        0.72409         2.57398         2.26863 
       0.730186         2.54437         2.22527 
       0.736317         2.48323         2.18281 
       0.742472         2.44996          2.1413 
       0.748622          2.4101         2.10093 
        0.75476         2.35227         2.06169 
       0.760888         2.32394         2.02352 
       0.767043         2.26275         1.98617 
       0.773185          2.2354         1.94986 
       0.779291          2.2143         1.91466 
       0.785407         2.16896         1.88028 
       0.791564         2.13121         1.84654 
       0.797719         2.09479         1.81364 
       0.803834         2.06337         1.78175 
       0.809972         2.02785         1.75052 
       0.816124          1.9981         1.71997 
       0.822261         1.96639         1.69023 
       0.828378         1.93426         1.66129 
       0.834502         1.90254         1.63301 
       0.840667          1.8792          1.6052 
       0.846816         1.84365         1.57812 
       0.852925         1.81437         1.55184 
       0.859047           1.787         1.52611 
       0.865192          1.7614         1.50087 
       0.871341         1.73744         1.47619 
       0.877463         1.70457         1.45218 
       0.883569         1.68298         1.42877 
       0.889708         1.66191         1.40576 
       0.895864         1.63715         1.38319 
       0.902008         1.60776         1.36117 
       0.908149         1.58703         1.33964 
       0.914301          1.5667         1.31855 
       0.920448         1.54762         1.29793 
       0.926574         1.53013         1.27782 
       0.932687          1.5055         1.25819 
       0.938823         1.47589         1.23889 
       0.944975         1.46317         1.21996 
       0.951105         1.43278          1.2015 
       0.957225         1.41964         1.18345 
       0.963368          1.4024         1.16571 
       0.969511          1.3853         1.14833 
       0.975621         1.36194          1.1314 
       0.981748         1.33745         1.11478 
       0.987916         1.32403         1.09838 
        0.99406         1.31073         1.08238 
        1.00019         1.29175         1.06672 
        1.00632         1.27907         1.05139 
        1.01246         1.26027         1.03634 
        1.01859         1.24511         1.02161 
        1.02471         1.22342         1.00719 
        1.03085         1.20802        0.992994 
        1.03698         1.19665        0.979103 
        1.04314         1.18074        0.965419 
        1.04929          1.1692        0.952029 
        1.05541         1.14882        0.938947 
        1.06154         1.13905         0.92608 
        1.06769         1.12649        0.913434 
        1.07382         1.11008        0.901067 
        1.07993         1.09586        0.888957 
        1.08607         1.08526         0.87702 
        1.09222         1.06918         0.86529 
        1.09836         1.06054        0.853788 
        1.10449         1.04223        0.842509 
        1.11063          1.0304        0.831421 
        1.11677         1.02097        0.820537 
         1.1229         1.00548        0.809867 
        1.12903        0.997797        0.799378 
        1.13518        0.983437        0.789065 
        1.14131        0.974304        0.778941 
        1.14745        0.964235        0.769001 
        1.15359        0.951445        0.759232 
        1.15973        0.941004        0.749629 
        1.16584        0.929486        0.740236 
        1.17197        0.917564         0.73099 
        1.17811          0.9073        0.721874 
        1.18424        0.897647         0.71294 
        1.19038        0.886647        0.704132 
        1.19652        0.879309        0.695477 
        1.20267        0.871581        0.686967 
        1.20881        0.858445        0.678601 
        1.21495        0.850511        0.670389 
        1.22108        0.842323        0.662313 
         1.2272        0.830159         0.65439 
        1.23334        0.823033        0.646579 
        1.23949        0.814933        0.638876 
        1.24562        0.806289        0.631321 
        1.25174        0.798878        0.623899 
        1.25789        0.787385        0.616574 
        1.26402        0.779779        0.609379 
        1.27014        0.769451        0.602317 
        1.27628        0.764719        0.595346 
        1.28244        0.756176        0.588472 
        1.28858        0.746969        0.581715 
        1.29471        0.739333         0.57508 
        1.30084        0.733204        0.568554 
        1.30697        0.727333         0.56212 
        1.31312        0.719231        0.555776 
        1.31925        0.711672         0.54955 
        1.32537        0.705471        0.543426 
        1.33151        0.697165        0.537373 
        1.33765        0.690554        0.531416 
        1.34378        0.683208         0.52556 
        1.34992        0.678401        0.519789 
        1.35606        0.669939        0.514092 
         1.3622        0.664676         0.50849 
        1.36833        0.658331        0.502986 
        1.37445        0.651514        0.497565 
        1.38059        0.645734        0.492208 
        1.38675        0.638862        0.486916 
        1.39288        0.632905        0.481724 
        1.39901        0.626979        0.476609 
        1.40515        0.620821        0.471557 
         1.4113        0.617297        0.466581 
        1.41742        0.609646        0.461695 
        1.42355        0.602396         0.45687 
         1.4297        0.598906          0.4521 
        1.43585        0.592424          0.4474 
        1.44198        0.587851        0.442784 
        1.44809        0.581751        0.438242 
        1.45423        0.576906        0.433747 
        1.46036        0.571669        0.429323 
        1.46649         0.56593         0.42496 
        1.47263        0.560942        0.420654 
        1.47877         0.55878        0.416409 
        1.48491        0.550004        0.412216 
        1.49104        0.547574         0.40809 
        1.49718        0.540933        0.404017 
        1.50333        0.537155        0.399993 
        1.50947        0.533213        0.396032 
         1.5156        0.528115        0.392131 
        1.52172        0.523683        0.388282 
        1.52787        0.517982        0.384477 
          1.534        0.515102        0.380728 
        1.54013        0.510327        0.377033 
        1.54627        0.506061        0.373379 
        1.55241        0.501057        0.369774 
        1.55855        0.497171        0.366221 
        1.56467        0.492703        0.362725 
         1.5708        0.488624        0.359264 
        1.57695        0.484208        0.355843 
        1.58308        0.479288        0.352474 
        1.58922        0.476583        0.349147 
        1.59535        0.471772        0.345863 
         1.6015        0.467979        0.342617 
        1.60764        0.464174        0.339415 
        1.61376        0.460464        0.336262 
        1.61989        0.456793        0.333147 
        1.62604        0.451914        0.330064 
        1.63218        0.449759        0.327021 
        1.63831         0.44526        0.324025 
        1.64444        0.442383        0.321064 
        1.65059        0.438299        0.318134 
        1.65673        0.434441        0.315243 
        1.66285        0.431564        0.312397 
        1.66898        0.428416        0.309584 
        1.67512        0.423665        0.306801 
        1.68127        0.420581        0.304049 
         1.6874         0.41843        0.301337 
        1.69353        0.414046         0.29866 
        1.69967        0.411464        0.296009 
        1.70581        0.408932        0.293391 
        1.71193        0.405403        0.290815 
        1.71806        0.402589        0.288264 
        1.72421        0.398894        0.285739 
        1.73035        0.394854        0.283247 
        1.73649        0.393968        0.280785 
        1.74262        0.389187        0.278354 
        1.74876        0.386926         0.27595 
        1.75489        0.384437         0.27358 
        1.76101        0.380654        0.271238 
        1.76715        0.378096        0.268921 
        1.77329         0.37542        0.266627 
        1.77943        0.372396         0.26436 
        1.78557        0.370759        0.262122 
        1.79171        0.367592        0.259909 
        1.79785        0.364628        0.257721 
        1.80399        0.360755        0.255559 
        1.81012        0.359377        0.253425 
        1.81625        0.357015        0.251316 
        1.82239        0.354655        0.249228 
        1.82853        0.351264        0.247164 
        1.83466        0.348614        0.245126 
        1.84078         0.34596        0.243113 
        1.84692        0.343933        0.241119 
        1.85306        0.341994        0.239145 
         1.8592        0.338991        0.237196 
        1.86533        0.336966         0.23527 
        1.87147        0.333591        0.233363 
        1.87761        0.331574        0.231476 
        1.88375        0.329398        0.229612 
        1.88988         0.32645        0.227771 
        1.89601        0.324041        0.225949 
        1.90215        0.322582        0.224145 
        1.90829        0.319643        0.222362 
        1.91442        0.318195        0.220599 
        1.92056        0.316277        0.218855 
         1.9267        0.313404        0.217129 
        1.93284        0.311067        0.215421 
        1.93897        0.309359        0.213734 
        1.94509        0.307595        0.212068 
        1.95123        0.304552        0.210417 
        1.95737        0.302722        0.208781 
        1.96349        0.300607        0.207167 
        1.96964         0.29882        0.205566 
        1.97578        0.296448         0.20398 
        1.98192        0.294994        0.202415 
        1.98805        0.293096        0.200866 
        1.99419        0.291385        0.199333 
        2.00033        0.289271        0.197815 
        2.00647        0.287624        0.196313 
         2.0126        0.285469         0.19483 
        2.01874        0.283668        0.193359 
        2.02488        0.281463        0.191902 
        2.03101        0.279741        0.190463 
        2.03714        0.278647        0.189041 
        2.04328        0.275927        0.187631 
        2.04941        0.274768        0.186236 
        2.05554        0.272817        0.184857 
        2.06167        0.271015        0.183489 
        2.06781        0.268468        0.182136 
        2.07396        0.267831        0.180794 
        2.08009        0.265686        0.179468 
        2.08622        0.264254        0.178156 
        2.09237        0.262621        0.176855 
        2.09851        0.260378        0.175567 
        2.10464        0.259117        0.174294 
        2.11077        0.256637        0.173035 
        2.11691        0.255627        0.171785 
        2.12305        0.254454        0.170548 
        2.12918        0.252385        0.169326 
        2.13531        0.250926        0.168115 
        2.14145        0.249237        0.166914 
         2.1476        0.247828        0.165723 
        2.15372        0.246623         0.16455 
        2.15985        0.244427        0.163386 
        2.16599        0.243479        0.162231 
        2.17213        0.242008        0.161088 
        2.17827        0.240059        0.159956 
         2.1844        0.239245        0.158837 
        2.19054        0.237706        0.157727 
        2.19666        0.236195         0.15663 
         2.2028        0.234288        0.155542 
        2.20893        0.233535        0.154464 
        2.21508        0.232032        0.153395 
        2.22122        0.230778        0.152335 
        2.22736        0.228636        0.151288 
        2.23349        0.227235        0.150251 
        2.23962        0.226284        0.149223 
        2.24577        0.225036        0.148203 
         2.2519        0.223796        0.147195 
        2.25802        0.222267        0.146197 
        2.26417         0.22108        0.145206 
        2.27031        0.219771        0.144224 
        2.27644          0.2192        0.143253 
        2.28257        0.217194        0.142291 
        2.28872        0.216254        0.141336 
        2.29486         0.21491         0.14039 
        2.30099         0.21353        0.139455 
        2.30712        0.212302        0.138528 
        2.31326        0.211028        0.137607 
         2.3194        0.210037        0.136696 
        2.32553        0.208792        0.135794 
        2.33166        0.207899        0.134901 
         2.3378        0.206542        0.134014 
        2.34394        0.205397        0.133135 
        2.35007        0.204035        0.132266 
        2.35619        0.202573        0.131405 
        2.36233        0.201892         0.13055 
        2.36848        0.200729          0.1297 
        2.37462        0.199877         0.12886 
        2.38075        0.198715        0.128028 
        2.38689        0.197637        0.127203 
        2.39303         0.19653        0.126385 
        2.39916        0.195251        0.125575 
        2.40529        0.194316        0.124772 
        2.41143        0.193013        0.123976 
        2.41757        0.192044        0.123186 
         2.4237          0.1911        0.122405 
        2.42983        0.190071         0.12163 
        2.43598        0.189165         0.12086 
        2.44211         0.18761        0.120098 
        2.44823        0.187143        0.119345 
        2.45437        0.186315        0.118595 
        2.46052        0.185103        0.117852 
        2.46665        0.184063        0.117116 
        2.47279        0.183037        0.116386 
        2.47892        0.182373        0.115663 
        2.48507        0.181246        0.114945 
         2.4912        0.180286        0.114234 
