# k  (h/Mpc)    Pcb(k)  (Mpc/h)^3    Pcb_linear(k)  (Mpc/h)^3
     0.00783031           12626         12804.4 
       0.013688         16721.6         16593.2 
       0.019231         17502.4         17507.6 
      0.0249154         16503.7         16881.9 
      0.0312784         15102.9         15329.8 
      0.0375637           13562         13652.2 
      0.0433917         11992.9         12313.6 
      0.0492413         11081.8         11271.3 
      0.0555754         9993.54         10423.9 
      0.0619321         9615.03         9731.06 
       0.067871         8732.76          9106.3 
      0.0738098         8084.51         8437.63 
      0.0800417         7265.28            7685 
      0.0862327         6642.77         6933.32 
      0.0921407         6113.01          6272.9 
      0.0982031         5531.09         5700.15 
       0.104506         5232.73         5235.84 
       0.110769         4875.13         4891.98 
       0.116806         4592.73         4635.73 
       0.122832         4382.83         4412.24 
       0.129052         4068.15         4179.79 
       0.135211         3849.43         3929.25 
       0.141259         3675.21          3664.9 
       0.147318         3463.87          3397.2 
       0.153489         3185.58         3142.07 
       0.159709         3027.82         2919.61 
       0.165845         2933.84         2741.11 
       0.171974         2776.31         2600.12 
       0.178125         2649.28         2485.36 
       0.184229         2545.46         2384.49 
        0.19034         2406.02         2284.73 
       0.196428         2360.22         2179.75 
       0.202534         2269.64            2068 
       0.208729         2170.65         1952.19 
       0.214876         2081.52         1841.36 
       0.220989         2017.81         1741.05 
       0.227147         1932.26         1653.41 
        0.23329         1862.62         1579.51 
       0.239377         1840.24         1517.04 
       0.245482         1729.56         1461.13 
       0.251667         1721.77         1407.27 
       0.257832         1656.39         1353.36 
       0.263955            1603         1298.51 
       0.270079         1552.08         1242.93 
        0.27624         1535.89         1188.01 
       0.282372         1471.47          1136.3 
        0.28843         1466.71          1089.5 
       0.294538          1397.2         1047.19 
       0.300721         1391.76         1008.96 
        0.30691         1337.55         974.197 
       0.313033         1312.57         941.964 
       0.319153         1294.45         910.752 
       0.325316         1251.17         879.645 
        0.33145         1224.41         848.878 
       0.337538         1206.29         818.836 
       0.343633         1179.52         789.792 
       0.349808         1142.57         761.921 
       0.355968         1135.66         736.026 
       0.362074         1124.36         712.241 
       0.368217          1090.7         690.019 
       0.374374         1051.09         669.067 
       0.380519         1052.89         649.071 
       0.386598         1026.45         629.903 
       0.392688         1022.29         611.124 
        0.39888         994.104         592.471 
       0.405048           982.2         574.437 
       0.411186          968.52         557.157 
       0.417313         948.935         540.712 
       0.423458         934.099         525.078 
       0.429607         920.971         510.254 
       0.435692         903.215         496.328 
       0.441815         898.053         482.928 
       0.447964           878.4          469.96 
       0.454126         869.751         457.375 
       0.460267         851.353         445.205 
       0.466387         841.136         433.423 
        0.47254         833.467         421.953 
       0.478662         827.124         410.954 
       0.484765         805.962          400.42 
       0.490885         800.622          390.28 
       0.497035         783.881         380.502 
       0.503198         779.117         371.093 
       0.509342         770.299         362.055 
       0.515458          766.87         353.353 
       0.521598         749.539         344.882 
       0.527764         733.925         336.633 
       0.533884         734.231         328.698 
           0.54         725.788         321.015 
       0.546137         720.448         313.551 
       0.552299         710.377         306.307 
       0.558452         706.185         299.324 
       0.564573         695.748         292.613 
       0.570708         689.036         286.107 
       0.576825         670.229         279.822 
       0.582926         673.787         273.742 
       0.589034         667.456         267.832 
       0.595184         660.479         262.055 
       0.601379         652.262         256.409 
       0.607522          643.46         250.974 
       0.613639         644.368          245.72 
       0.619772         628.396         240.606 
       0.625918         625.684         235.633 
       0.632068         618.008         230.803 
       0.638161         616.087         226.158 
         0.6443         604.186         221.611 
       0.650464         602.673         217.176 
       0.656582         599.866         212.893 
       0.662703         595.848         208.725 
       0.668861         585.322         204.643 
       0.675024         580.992         200.668 
       0.681124         577.766          196.84 
       0.687237         572.695         193.106 
       0.693381         566.106         189.454 
       0.699536         556.882         185.893 
       0.705665         556.757         182.441 
       0.711789         552.275         179.081 
       0.717957         547.165         175.784 
        0.72409         544.254         172.589 
       0.730186         536.779         169.493 
       0.736317         533.349         166.457 
       0.742472         531.202         163.485 
       0.748622         524.883         160.589 
        0.75476         517.609         157.771 
       0.760888         512.926         155.025 
       0.767043         513.035         152.334 
       0.773185         507.242         149.714 
       0.779291          502.39         147.172 
       0.785407         498.341         144.685 
       0.791564         492.883         142.242 
       0.797719         490.587         139.856 
       0.803834         486.562         137.542 
       0.809972         483.963         135.271 
       0.816124         483.054         133.048 
       0.822261         475.649         130.882 
       0.828378         473.015          128.77 
       0.834502         468.659         126.704 
       0.840667          464.35         124.671 
       0.846816         462.292         122.688 
       0.852925         457.727         120.762 
       0.859047         457.582         118.873 
       0.865192         452.039         117.019 
       0.871341         448.235         115.204 
       0.877463         446.921         113.436 
       0.883569         442.619         111.711 
       0.889708         439.885         110.012 
       0.895864          436.63         108.345 
       0.902008         433.871         106.717 
       0.908149         429.759         105.123 
       0.914301         426.327          103.56 
       0.920448          423.72          102.03 
       0.926574         417.602         100.537 
       0.932687         417.997         99.0777 
       0.938823         413.187         97.6421 
       0.944975         413.549          96.232 
       0.951105         407.817         94.8551 
       0.957225         405.172         93.5078 
       0.963368         401.185         92.1824 
       0.969511         399.756         90.8829 
       0.975621         396.619         89.6156 
       0.981748         395.234         88.3696 
       0.987916         392.406         87.1396 
        0.99406         385.798         85.9379 
        1.00019         385.197         84.7614 
        1.00632         383.057         83.6083 
        1.01246         379.964         82.4752 
        1.01859         380.106          81.365 
        1.02471         374.678         80.2769 
        1.03085         372.487         79.2051 
        1.03698         371.363         78.1554 
        1.04314         367.716         77.1204 
        1.04929         363.951         76.1067 
        1.05541          364.22         75.1155 
        1.06154         358.846         74.1397 
        1.06769         356.884         73.1799 
        1.07382          355.08         72.2404 
        1.07993         352.707         71.3197 
        1.08607         351.658         70.4115 
        1.09222         348.425         69.5183 
        1.09836         346.117         68.6418 
        1.10449           342.5         67.7816 
        1.11063         339.516         66.9353 
        1.11677         339.438         66.1039 
         1.1229         337.367         65.2883 
        1.12903         334.235         64.4858 
        1.13518         331.306         63.6963 
        1.14131         329.943         62.9206 
        1.14745         327.721         62.1583 
        1.15359         325.479         61.4087 
        1.15973         323.469         60.6712 
        1.16584         321.085         59.9493 
        1.17197         320.267         59.2382 
        1.17811         317.009         58.5365 
        1.18424         314.275         57.8484 
        1.19038         312.883         57.1694 
        1.19652         310.668         56.5017 
        1.20267         309.704         55.8447 
        1.20881         307.658         55.1984 
        1.21495         304.933         54.5634 
        1.22108         303.386         53.9386 
         1.2272          301.23         53.3252 
        1.23334         299.139         52.7199 
        1.23949         297.728         52.1227 
        1.24562         295.981         51.5364 
        1.25174         293.041         50.9602 
        1.25789         290.795          50.391 
        1.26402         289.318         49.8317 
        1.27014         287.263         49.2823 
        1.27628         285.754         48.7395 
        1.28244         285.055          48.204 
        1.28858         281.899         47.6773 
        1.29471         279.649         47.1597 
        1.30084         278.544         46.6503 
        1.30697         276.625         46.1477 
        1.31312         274.022         45.6518 
        1.31925          273.85         45.1649 
        1.32537         272.336         44.6856 
        1.33151         269.345         44.2116 
        1.33765         267.533         43.7449 
        1.34378         266.517         43.2858 
        1.34992         264.709         42.8331 
        1.35606         264.017         42.3859 
         1.3622         261.899         41.9459 
        1.36833          259.57         41.5133 
        1.37445         258.334         41.0871 
        1.38059         255.894         40.6656 
        1.38675         255.149         40.2491 
        1.39288         253.093           39.84 
        1.39901         252.394         39.4369 
        1.40515         250.302         39.0386 
         1.4113         248.909         38.6459 
        1.41742         247.212         38.2601 
        1.42355         245.219          37.879 
         1.4297         243.756         37.5019 
        1.43585         242.346         37.1302 
        1.44198         241.053         36.7649 
        1.44809         239.758         36.4053 
        1.45423          237.69         36.0492 
        1.46036         236.774         35.6986 
        1.46649         234.661         35.3525 
        1.47263         233.185         35.0107 
        1.47877         231.954         34.6737 
        1.48491          230.19         34.3406 
        1.49104          229.38         34.0125 
        1.49718          227.23         33.6886 
        1.50333          226.28         33.3684 
        1.50947         224.844          33.053 
         1.5156         222.743         32.7422 
        1.52172         221.972         32.4354 
        1.52787         220.389          32.132 
          1.534         219.455         31.8328 
        1.54013          217.45         31.5378 
        1.54627         216.734          31.246 
        1.55241         215.052         30.9578 
        1.55855         213.688         30.6738 
        1.56467         212.224         30.3941 
         1.5708         211.979         30.1171 
        1.57695         209.786         29.8432 
        1.58308         208.775         29.5734 
        1.58922         206.606         29.3067 
        1.59535          205.31         29.0435 
         1.6015         205.043         28.7831 
        1.60764          203.38         28.5261 
        1.61376          201.88         28.2729 
        1.61989         200.862         28.0226 
        1.62604         199.648         27.7749 
        1.63218         198.513         27.5303 
        1.63831         197.166         27.2892 
        1.64444         196.329         27.0509 
        1.65059         194.612         26.8149 
        1.65673         193.654         26.5821 
        1.66285         192.563         26.3526 
        1.66898         191.083         26.1258 
        1.67512         190.694         25.9013 
        1.68127         188.446         25.6792 
         1.6874         187.446         25.4602 
        1.69353         186.631          25.244 
        1.69967         185.109         25.0297 
        1.70581         184.213          24.818 
        1.71193         182.782         24.6096 
        1.71806         182.309         24.4032 
        1.72421         180.763         24.1987 
        1.73035         180.077         23.9968 
        1.73649         178.942         23.7973 
        1.74262         177.624         23.6002 
        1.74876         176.748         23.4052 
        1.75489         175.355         23.2128 
        1.76101         174.283         23.0227 
        1.76715         173.645         22.8345 
        1.77329         172.711         22.6481 
        1.77943         171.637         22.4637 
        1.78557         170.507         22.2817 
        1.79171         169.397         22.1017 
        1.79785         168.109         21.9237 
        1.80399         167.282         21.7476 
        1.81012         166.233         21.5738 
        1.81625         165.533         21.4019 
        1.82239         164.247         21.2317 
        1.82853          163.71         21.0634 
        1.83466         162.408         20.8971 
        1.84078         161.746         20.7327 
        1.84692         160.064         20.5699 
        1.85306         159.799         20.4087 
         1.8592         158.514         20.2494 
        1.86533         157.599          20.092 
        1.87147         156.489          19.936 
        1.87761         156.044         19.7817 
        1.88375         154.232         19.6291 
        1.88988         153.496         19.4784 
        1.89601         152.949         19.3291 
        1.90215         151.785         19.1814 
        1.90829         151.121         19.0352 
        1.91442         150.131         18.8905 
        1.92056         149.411         18.7476 
         1.9267         148.451         18.6059 
        1.93284         147.553         18.4656 
        1.93897          146.66         18.3271 
        1.94509         145.976         18.1903 
        1.95123         145.167         18.0545 
        1.95737         144.511           17.92 
        1.96349         143.499         17.7873 
        1.96964         142.362         17.6555 
        1.97578         141.531          17.525 
        1.98192         140.832         17.3961 
        1.98805         139.793         17.2685 
        1.99419         139.131         17.1421 
        2.00033         138.349          17.017 
        2.00647         137.743         16.8932 
         2.0126         136.393         16.7708 
        2.01874         136.062         16.6494 
        2.02488          135.38         16.5291 
        2.03101         134.127         16.4103 
        2.03714         133.506         16.2927 
        2.04328         132.706         16.1762 
        2.04941         131.997         16.0609 
        2.05554         131.148         15.9468 
        2.06167         130.782         15.8337 
        2.06781         129.943         15.7217 
        2.07396         128.836         15.6106 
        2.08009         128.371         15.5008 
        2.08622         127.464         15.3921 
        2.09237          126.66         15.2843 
        2.09851         126.031         15.1775 
        2.10464         125.554         15.0719 
        2.11077         124.764         14.9675 
        2.11691         124.085         14.8638 
        2.12305         122.927         14.7611 
        2.12918         122.435         14.6596 
        2.13531         121.883          14.559 
        2.14145          120.93         14.4592 
         2.1476         120.181         14.3602 
        2.15372         119.803         14.2627 
        2.15985         119.394         14.1659 
        2.16599         118.264         14.0698 
        2.17213         117.643         13.9747 
        2.17827         117.105         13.8804 
         2.1844          116.33         13.7872 
        2.19054         115.772         13.6947 
        2.19666         115.063         13.6033 
         2.2028         114.339         13.5126 
        2.20893          113.82         13.4227 
        2.21508         113.059         13.3335 
        2.22122         112.485         13.2451 
        2.22736         111.866         13.1577 
        2.23349         111.223         13.0711 
        2.23962         110.528         12.9852 
        2.24577         110.092         12.9001 
         2.2519         109.511         12.8158 
        2.25802         108.598         12.7324 
        2.26417          108.09         12.6495 
        2.27031         107.313         12.5673 
        2.27644          106.85         12.4861 
        2.28257         106.358         12.4056 
        2.28872         105.823         12.3256 
        2.29486          105.12         12.2464 
        2.30099         104.644          12.168 
        2.30712         104.006         12.0903 
        2.31326         103.317         12.0132 
         2.3194         102.764         11.9367 
        2.32553         102.239         11.8611 
        2.33166         101.846         11.7862 
         2.3378         101.257         11.7118 
        2.34394         100.797          11.638 
        2.35007         100.122         11.5649 
        2.35619         99.4764         11.4926 
        2.36233         99.0113         11.4208 
        2.36848          98.375         11.3494 
        2.37462         98.0123         11.2787 
        2.38075         97.4796         11.2088 
        2.38689         96.8093         11.1393 
        2.39303          96.133         11.0705 
        2.39916         95.7653         11.0024 
        2.40529         95.3813         10.9348 
        2.41143         94.8541         10.8677 
        2.41757         94.2599         10.8012 
         2.4237         93.6204         10.7353 
        2.42983         93.0823           10.67 
        2.43598         92.5947         10.6051 
        2.44211         92.2753         10.5409 
        2.44823         91.8253         10.4773 
        2.45437         91.1307          10.414 
        2.46052         90.5885         10.3513 
        2.46665         90.1483         10.2892 
        2.47279         89.6896         10.2276 
        2.47892         89.2906         10.1664 
        2.48507         88.6914         10.1057 
         2.4912         88.3308         10.0456 
