# k  (h/Mpc)    P(k)  (Mpc/h)^3    P_linear(k)  (Mpc/h)^3
     0.00783031         1454.58         1465.88 
       0.013688         1823.81         1845.89 
       0.019231         1902.83         1913.25 
      0.0249154          1818.2         1817.76 
      0.0312784         1623.56         1626.64 
      0.0375637         1424.38         1429.93 
      0.0433917         1277.67         1276.37 
      0.0492413         1155.78         1158.52 
      0.0555754         1066.06         1064.31 
      0.0619321         979.111         989.051 
       0.067871         919.446         922.624 
      0.0738098         850.802         852.292 
      0.0800417         774.071         773.306 
      0.0862327         693.343         694.274 
      0.0921407         623.867         624.661 
      0.0982031         566.286         564.214 
       0.104506         513.495         515.325 
       0.110769         478.392         479.477 
       0.116806         455.776          453.31 
       0.122832         430.338          431.05 
       0.129052         409.135         408.221 
       0.135211         386.409          383.55 
       0.141259         358.393         357.221 
       0.147318          329.55         330.222 
       0.153489         305.546         304.217 
       0.159709         284.688         281.399 
       0.165845          263.14         263.103 
       0.171974          252.91          248.81 
       0.178125         241.379          237.44 
       0.184229         229.521         227.713 
        0.19034         221.976         218.238 
       0.196428         211.953         208.236 
       0.202534         198.736         197.438 
       0.208729         189.895          186.06 
       0.214876         180.339         175.017 
       0.220989         167.735         164.938 
       0.227147         161.798         156.125 
        0.23329         154.816         148.762 
       0.239377          149.28         142.655 
       0.245482         142.962         137.314 
       0.251667         137.006         132.255 
       0.257832         133.749         127.205 
       0.263955          127.03         122.016 
       0.270079         121.805         116.681 
        0.27624         115.862         111.331 
       0.282372         111.299         106.246 
        0.28843         108.554         101.628 
       0.294538         103.827         97.4733 
       0.300721         99.3013          93.765 
        0.30691            97.1         90.4505 
       0.313033          93.462         87.4232 
       0.319153         91.6303         84.5124 
       0.325316         87.4669         81.6052 
        0.33145         84.4967         78.7039 
       0.337538         81.8247         75.8398 
       0.343633         79.2916         73.0449 
       0.349808         76.4723         70.3493 
       0.355968         73.9278         67.8471 
       0.362074         72.3209         65.5624 
       0.368217         70.1313         63.4506 
       0.374374         68.6394         61.4804 
       0.380519         65.7986         59.6151 
       0.386598         63.9064          57.832 
       0.392688         62.0099         56.0796 
        0.39888         60.7162         54.3294 
       0.405048         59.1506         52.6255 
       0.411186         57.4921          50.985 
       0.417313         55.8415         49.4213 
       0.423458         54.1749         47.9379 
       0.429607         53.2065         46.5378 
       0.435692         52.2041         45.2317 
       0.441815          50.263         43.9824 
       0.447964          48.757         42.7778 
       0.454126         47.9003         41.6099 
       0.460267         47.3449         40.4789 
       0.466387         45.9529         39.3801 
        0.47254         45.2016         38.3069 
       0.478662         43.7799         37.2759 
       0.484765         42.8368         36.2885 
       0.490885         41.6115         35.3395 
       0.497035          40.874         34.4271 
       0.503198         39.9649         33.5528 
       0.509342         38.8901         32.7156 
       0.515458         38.3741         31.9109 
       0.521598         37.4642         31.1279 
       0.527764         36.9358         30.3651 
       0.533884         36.0083         29.6305 
           0.54         35.2982         28.9183 
       0.546137         34.2333         28.2259 
       0.552299          33.661          27.554 
       0.558452         32.9569         26.9074 
       0.564573         32.5917         26.2873 
       0.570708         31.7458         25.6872 
       0.576825         31.2799         25.1084 
       0.582926         30.7058         24.5489 
       0.589034         30.1079         24.0055 
       0.595184         29.7081         23.4744 
       0.601379         28.9009         22.9554 
       0.607522         28.4464         22.4556 
       0.613639         27.9308         21.9724 
       0.619772         27.4771         21.5023 
       0.625918         26.9071         21.0454 
       0.632068         26.6619         20.6023 
       0.638161         26.1056         20.1766 
         0.6443         25.6718         19.7605 
       0.650464          25.035         19.3547 
       0.656582         24.8722         18.9633 
       0.662703         24.5635         18.5822 
       0.668861         23.8993         18.2092 
       0.675024         23.5838         17.8461 
       0.681124         23.4556         17.4964 
       0.687237         22.9669         17.1556 
       0.693381         22.4522         16.8225 
       0.699536         22.3456         16.4979 
       0.705665         21.9223         16.1834 
       0.711789         21.5107         15.8776 
       0.717957         21.0752         15.5776 
        0.72409         20.8917         15.2871 
       0.730186         20.7659         15.0057 
       0.736317         20.3277         14.7298 
       0.742472         20.0703         14.4599 
       0.748622          19.748          14.197 
        0.75476         19.2513         13.9412 
       0.760888         19.1653         13.6921 
       0.767043         18.8291         13.4483 
       0.773185          18.616         13.2109 
       0.779291         18.4661         12.9806 
       0.785407         18.1227         12.7556 
       0.791564         17.9659         12.5346 
       0.797719         17.5879         12.3189 
       0.803834         17.4917         12.1097 
       0.809972         17.1582         11.9046 
       0.816124         16.9631         11.7038 
       0.822261          16.771         11.5083 
       0.828378         16.5637         11.3178 
       0.834502         16.3926         11.1315 
       0.840667         16.2178         10.9482 
       0.846816         15.8673         10.7695 
       0.852925         15.7861         10.5961 
       0.859047          15.588          10.426 
       0.865192         15.3684         10.2592 
       0.871341         15.1593          10.096 
       0.877463         14.9951         9.93703 
       0.883569         14.8908         9.78194 
       0.889708         14.6427         9.62938 
       0.895864         14.4639         9.47971 
       0.902008         14.2853         9.33355 
       0.908149         14.0967         9.19057 
       0.914301         14.0145         9.05038 
       0.920448          13.806         8.91325 
       0.926574         13.7213         8.77945 
       0.932687          13.509          8.6487 
       0.938823         13.3344         8.52016 
       0.944975         13.2293         8.39394 
       0.951105         13.0576         8.27075 
       0.957225         12.9808         8.15025 
       0.963368         12.7941         8.03175 
       0.969511         12.6573         7.91561 
       0.975621         12.5267          7.8024 
       0.981748          12.351         7.69112 
       0.987916         12.2554         7.58132 
        0.99406         12.1516         7.47408 
        1.00019         12.0396         7.36913 
        1.00632         11.9275          7.2663 
        1.01246         11.7917         7.16529 
        1.01859         11.6533         7.06637 
        1.02471         11.5064         6.96945 
        1.03085         11.4677         6.87402 
        1.03698         11.3476         6.78058 
        1.04314         11.2161         6.68848 
        1.04929         11.0612         6.59832 
        1.05541         11.0027         6.51019 
        1.06154         10.9027         6.42346 
        1.06769         10.8394         6.33818 
        1.07382         10.6535         6.25474 
        1.07993         10.5575         6.17299 
        1.08607         10.5081         6.09238 
        1.09222         10.3681         6.01312 
        1.09836         10.3419         5.93538 
        1.10449         10.1556         5.85911 
        1.11063         10.1282          5.7841 
        1.11677         10.0481         5.71043 
         1.1229         9.95373         5.63818 
        1.12903         9.87773         5.56712 
        1.13518         9.72833         5.49723 
        1.14131          9.6645         5.42858 
        1.14745         9.53875         5.36115 
        1.15359         9.47059         5.29485 
        1.15973         9.38442         5.22966 
        1.16584         9.31505         5.16585 
        1.17197         9.22924         5.10302 
        1.17811         9.14535         5.04105 
        1.18424         9.07936         4.98028 
        1.19038         9.01789         4.92035 
        1.19652         8.94709         4.86143 
        1.20267          8.8714         4.80347 
        1.20881          8.7756         4.74647 
        1.21495         8.70687         4.69048 
        1.22108         8.65465         4.63541 
         1.2272         8.56654         4.58136 
        1.23334         8.54494         4.52804 
        1.23949         8.44077         4.47545 
        1.24562         8.37728         4.42384 
        1.25174          8.3261         4.37312 
        1.25789         8.20949         4.32304 
        1.26402         8.18364         4.27384 
        1.27014         8.13305         4.22553 
        1.27628         8.03035         4.17782 
        1.28244         8.01199         4.13076 
        1.28858         7.95476         4.08449 
        1.29471         7.84317         4.03903 
        1.30084         7.78455          3.9943 
        1.30697         7.76881         3.95019 
        1.31312         7.68695         3.90668 
        1.31925         7.63369         3.86396 
        1.32537         7.58661         3.82193 
        1.33151         7.52141         3.78037 
        1.33765         7.46026         3.73945 
        1.34378         7.44633         3.69923 
        1.34992          7.3679         3.65957 
        1.35606         7.31644          3.6204 
         1.3622           7.258         3.58188 
        1.36833         7.20663         3.54401 
        1.37445         7.14989         3.50671 
        1.38059         7.10436         3.46984 
        1.38675         7.05014          3.4334 
        1.39288         7.00079         3.39764 
        1.39901          6.9412          3.3624 
        1.40515         6.90361         3.32758 
         1.4113         6.84772         3.29327 
        1.41742         6.81267         3.25958 
        1.42355         6.75277         3.22629 
         1.4297         6.72111         3.19337 
        1.43585         6.67983         3.16092 
        1.44198         6.62707         3.12905 
        1.44809         6.59404         3.09767 
        1.45423         6.53826         3.06662 
        1.46036         6.50347         3.03604 
        1.46649         6.45321         3.00587 
        1.47263         6.42342         2.97609 
        1.47877          6.3765         2.94672 
        1.48491         6.34355          2.9177 
        1.49104         6.28915         2.88914 
        1.49718         6.26524         2.86093 
        1.50333         6.21756         2.83306 
        1.50947         6.15861         2.80562 
         1.5156          6.1478         2.77858 
        1.52172         6.10929         2.75189 
        1.52787         6.06835         2.72551 
          1.534          6.0283          2.6995 
        1.54013         5.99655         2.67386 
        1.54627         5.95469          2.6485 
        1.55241          5.9063         2.62347 
        1.55855         5.89272          2.5988 
        1.56467         5.84931         2.57451 
         1.5708         5.81445         2.55047 
        1.57695          5.7615          2.5267 
        1.58308         5.72606         2.50328 
        1.58922         5.70891         2.48015 
        1.59535         5.67328         2.45732 
         1.6015         5.62719         2.43474 
        1.60764         5.60707         2.41246 
        1.61376         5.57644         2.39052 
        1.61989         5.52327         2.36883 
        1.62604         5.50162         2.34736 
        1.63218         5.47571         2.32618 
        1.63831         5.45291          2.3053 
        1.64444         5.40644         2.28467 
        1.65059         5.38305         2.26425 
        1.65673         5.35404          2.2441 
        1.66285         5.32455         2.22424 
        1.66898         5.28892         2.20463 
        1.67512         5.25513         2.18521 
        1.68127         5.22353         2.16601 
         1.6874         5.20754         2.14708 
        1.69353         5.16162         2.12839 
        1.69967         5.14451         2.10987 
        1.70581         5.10785         2.09159 
        1.71193         5.08673         2.07359 
        1.71806         5.06077         2.05576 
        1.72421          5.0289         2.03811 
        1.73035         5.00129         2.02069 
        1.73649         4.97406         2.00347 
        1.74262         4.94778         1.98647 
        1.74876         4.93265         1.96965 
        1.75489         4.89901         1.95306 
        1.76101          4.8649         1.93667 
        1.76715         4.85602         1.92044 
        1.77329         4.82751         1.90438 
        1.77943         4.78987          1.8885 
        1.78557         4.77672         1.87282 
        1.79171         4.75503         1.85731 
        1.79785         4.72752         1.84198 
        1.80399         4.68769         1.82683 
        1.81012          4.6748         1.81186 
        1.81625          4.6491         1.79707 
        1.82239         4.62943         1.78242 
        1.82853          4.6021         1.76795 
        1.83466          4.5666         1.75364 
        1.84078         4.54766         1.73951 
        1.84692         4.52918         1.72552 
        1.85306         4.50566         1.71166 
         1.8592          4.4923         1.69797 
        1.86533         4.46756         1.68444 
        1.87147         4.44392         1.67104 
        1.87761         4.43036         1.65779 
        1.88375         4.40144         1.64469 
        1.88988         4.38003         1.63175 
        1.89601         4.35402         1.61894 
        1.90215         4.32503         1.60625 
        1.90829         4.32303         1.59371 
        1.91442         4.28885          1.5813 
        1.92056         4.28201         1.56904 
         1.9267         4.25218         1.55689 
        1.93284         4.24525         1.54486 
        1.93897         4.20832         1.53299 
        1.94509         4.18923         1.52126 
        1.95123         4.17393         1.50963 
        1.95737         4.15791         1.49811 
        1.96349         4.12681         1.48674 
        1.96964         4.11139         1.47545 
        1.97578         4.09736         1.46428 
        1.98192         4.07068         1.45324 
        1.98805          4.0607         1.44232 
        1.99419         4.04213         1.43151 
        2.00033         4.00822          1.4208 
        2.00647         4.00594         1.41021 
         2.0126         3.98403         1.39974 
        2.01874         3.97293         1.38936 
        2.02488         3.94835         1.37908 
        2.03101         3.92297         1.36892 
        2.03714         3.91479         1.35887 
        2.04328         3.89605         1.34891 
        2.04941         3.87685         1.33906 
        2.05554         3.86587         1.32932 
        2.06167         3.84068         1.31966 
        2.06781         3.82896         1.31009 
        2.07396         3.80723         1.30061 
        2.08009         3.79915         1.29123 
        2.08622         3.78125         1.28196 
        2.09237         3.77337         1.27276 
        2.09851         3.74132         1.26365 
        2.10464           3.731         1.25465 
        2.11077         3.72341         1.24574 
        2.11691         3.70126          1.2369 
        2.12305         3.68132         1.22814 
        2.12918         3.66975         1.21949 
        2.13531         3.65042         1.21092 
        2.14145         3.64211         1.20242 
         2.1476         3.61648         1.19398 
        2.15372         3.60594         1.18567 
        2.15985         3.59308         1.17743 
        2.16599         3.57997         1.16925 
        2.17213         3.56655         1.16115 
        2.17827         3.54325         1.15313 
         2.1844         3.52776         1.14519 
        2.19054         3.51844         1.13732 
        2.19666         3.50529         1.12954 
         2.2028         3.47907         1.12183 
        2.20893         3.47792         1.11418 
        2.21508         3.46549          1.1066 
        2.22122         3.43945         1.09908 
        2.22736         3.43177         1.09165 
        2.23349         3.41498         1.08429 
        2.23962         3.40805         1.07699 
        2.24577         3.38474         1.06976 
         2.2519         3.37551          1.0626 
        2.25802         3.36013         1.05551 
        2.26417         3.34746         1.04848 
        2.27031         3.33299          1.0415 
        2.27644         3.32222          1.0346 
        2.28257         3.30834         1.02777 
        2.28872         3.29692         1.02098 
        2.29486         3.27868         1.01426 
        2.30099          3.2667         1.00761 
        2.30712         3.25786         1.00102 
        2.31326         3.24447        0.994474 
         2.3194         3.23092        0.987993 
        2.32553         3.22124        0.981579 
        2.33166         3.21255        0.975225 
         2.3378         3.19811        0.968919 
        2.34394         3.18179        0.962667 
        2.35007         3.16504        0.956478 
        2.35619         3.15964        0.950351 
        2.36233         3.14588        0.944263 
        2.36848         3.13719        0.938216 
        2.37462         3.12583        0.932235 
        2.38075         3.11597        0.926311 
        2.38689         3.10295        0.920434 
        2.39303         3.09142        0.914609 
        2.39916         3.07681         0.90884 
        2.40529         3.06541        0.903122 
        2.41143         3.05986        0.897448 
        2.41757         3.05072        0.891821 
         2.4237         3.03287        0.886252 
        2.42983         3.02934        0.880731 
        2.43598         3.01743        0.875242 
        2.44211         2.99925        0.869809 
        2.44823         2.99032        0.864435 
        2.45437         2.97722        0.859091 
        2.46052         2.96916        0.853787 
        2.46665         2.96038        0.848538 
        2.47279         2.94086        0.843334 
        2.47892         2.93733         0.83817 
        2.48507         2.92644        0.833045 
         2.4912         2.92051        0.827973 
