# k  (h/Mpc)    P(k)  (Mpc/h)^3    P_linear(k)  (Mpc/h)^3
     0.00783031         15275.8           15385 
       0.013688         18994.7         19553.9 
       0.019231         19833.4         20191.9 
      0.0249154         18917.5         18935.2 
      0.0312784         16331.8         16563.4 
      0.0375637         13871.5         14184.2 
      0.0433917         12260.8         12386.9 
      0.0492413         10872.4         11080.5 
      0.0555754         10007.5         10131.4 
      0.0619321         9042.25         9463.45 
       0.067871         8631.55          8908.9 
      0.0738098         8109.45         8297.24 
      0.0800417         7396.48         7550.72 
      0.0862327         6593.23         6743.56 
      0.0921407         5920.18         5992.78 
      0.0982031         5364.28         5321.11 
       0.104506         4772.42         4778.35 
       0.110769         4431.97         4400.67 
       0.116806         4257.95         4157.96 
       0.122832         4031.46         3984.87 
       0.129052         3837.48         3823.97 
       0.135211         3733.28         3640.31 
       0.141259         3458.55         3418.91 
       0.147318         3196.44         3163.65 
       0.153489         2993.83         2893.84 
       0.159709         2856.04         2641.54 
       0.165845          2604.2         2433.84 
       0.171974         2531.85         2275.95 
       0.178125         2453.45         2162.88 
       0.184229         2271.07         2082.08 
        0.19034         2246.97         2015.01 
       0.196428         2187.56         1945.95 
       0.202534         2059.79         1864.26 
       0.208729         2016.63         1766.43 
       0.214876         1924.28          1659.7 
       0.220989          1826.3         1553.22 
       0.227147         1773.71         1454.99 
        0.23329         1702.78         1372.28 
       0.239377         1693.65         1307.24 
       0.245482         1616.14         1256.73 
       0.251667         1559.03         1215.51 
       0.257832         1535.94         1178.25 
       0.263955         1468.99         1139.97 
       0.270079         1432.33         1097.43 
        0.27624          1373.3         1050.15 
       0.282372         1357.36         1000.67 
        0.28843         1332.76         952.413 
       0.294538         1273.22         907.421 
       0.300721         1249.96         867.533 
        0.30691         1219.48         833.921 
       0.313033         1174.48         805.937 
       0.319153         1163.28          781.53 
       0.325316         1148.49          758.45 
        0.33145         1124.02          735.37 
       0.337538         1088.27         711.332 
       0.343633         1064.07         686.202 
       0.349808         1045.04         660.212 
       0.355968         1024.66         634.852 
       0.362074         994.182         611.222 
       0.368217         991.771          589.61 
       0.374374         976.825         570.334 
       0.380519         943.295         553.124 
       0.386598         938.913         537.588 
       0.392688         915.547         522.802 
        0.39888         897.382         507.977 
       0.405048         880.217         493.146 
       0.411186         878.146         478.198 
       0.417313         873.732         463.329 
       0.423458          847.57         448.793 
       0.429607         825.511         434.904 
       0.435692          818.96         422.043 
       0.441815         803.401         410.083 
       0.447964         794.611         398.924 
       0.454126         784.386         388.432 
       0.460267         775.001         378.457 
       0.466387         761.989         368.777 
        0.47254          750.07         359.153 
       0.478662         739.961         349.697 
       0.484765         732.474         340.429 
       0.490885         724.866         331.357 
       0.497035         711.661         322.564 
       0.503198         711.001         314.177 
       0.509342         697.939         306.265 
       0.515458         684.355         298.782 
       0.521598         683.166         291.609 
       0.527764         667.529         284.692 
       0.533884         661.287         278.044 
           0.54         656.533         271.558 
       0.546137         647.309         265.168 
       0.552299         643.798         258.892 
       0.558452         636.028         252.799 
       0.564573         632.104         246.937 
       0.570708         625.365         241.271 
       0.576825          613.02          235.83 
       0.582926         611.721         230.607 
       0.589034         603.328         225.576 
       0.595184         597.496         220.689 
       0.601379         588.767         215.919 
       0.607522         579.979         211.315 
       0.613639         579.436         206.835 
       0.619772         575.592         202.451 
       0.625918         566.262         198.174 
       0.632068         563.789         194.017 
       0.638161         557.161         190.028 
         0.6443         551.033         186.136 
       0.650464         547.005          182.35 
       0.656582         542.911         178.703 
       0.662703         537.089         175.159 
       0.668861         530.774         171.692 
       0.675024         528.272         168.316 
       0.681124         518.549         165.064 
       0.687237         518.812         161.891 
       0.693381         510.597         158.785 
       0.699536         511.129         155.755 
       0.705665         503.906         152.816 
       0.711789         502.836         149.955 
       0.717957         496.254         147.149 
        0.72409          492.15         144.432 
       0.730186         491.946         141.801 
       0.736317         484.764         139.225 
       0.742472         479.781         136.705 
       0.748622         478.329         134.251 
        0.75476         472.923         131.864 
       0.760888         470.636          129.54 
       0.767043         467.854         127.262 
       0.773185         464.215         125.045 
       0.779291         459.452         122.892 
       0.785407         456.241         120.788 
       0.791564         453.972         118.719 
       0.797719         447.029         116.701 
       0.803834         448.616         114.742 
       0.809972         441.753         112.822 
       0.816124         438.642         110.943 
       0.822261         436.099         109.112 
       0.828378         434.195         107.328 
       0.834502         427.401         105.583 
       0.840667         427.146         103.866 
       0.846816         422.139         102.193 
       0.852925          422.48         100.567 
       0.859047         418.119         98.9743 
       0.865192         415.874          97.411 
       0.871341         410.926         95.8807 
       0.877463         409.971         94.3907 
       0.883569         406.154         92.9365 
       0.889708         402.164         91.5059 
       0.895864         398.244          90.102 
       0.902008         397.615         88.7309 
       0.908149         393.963         87.3894 
       0.914301         392.726         86.0738 
       0.920448         388.449         84.7867 
       0.926574         386.492         83.5308 
       0.932687         385.623         82.3031 
       0.938823         381.053          81.096 
       0.944975         380.137         79.9106 
       0.951105         377.073         78.7533 
       0.957225           372.2         77.6212 
       0.963368         373.061         76.5077 
       0.969511          367.36         75.4162 
       0.975621         365.855          74.352 
       0.981748         364.529         73.3059 
       0.987916         362.303         72.2734 
        0.99406         358.922         71.2649 
        1.00019         355.457         70.2778 
        1.00632         355.191         69.3105 
        1.01246          352.17         68.3601 
        1.01859         349.038         67.4292 
        1.02471         347.271          66.517 
        1.03085         345.955         65.6187 
        1.03698         343.986          64.739 
        1.04314         342.073         63.8718 
        1.04929         340.332         63.0226 
        1.05541         336.499         62.1925 
        1.06154          334.85         61.3754 
        1.06769         332.094         60.5718 
        1.07382         329.911         59.7854 
        1.07993         329.001         59.0149 
        1.08607          327.15         58.2549 
        1.09222         324.315         57.5077 
        1.09836         322.967         56.7745 
        1.10449         320.731         56.0552 
        1.11063         319.085         55.3476 
        1.11677         315.615         54.6525 
         1.1229         315.232         53.9707 
        1.12903         312.438         53.3001 
        1.13518         310.603         52.6404 
        1.14131          309.33         51.9923 
        1.14745         306.285         51.3556 
        1.15359         304.066         50.7296 
        1.15973         302.779         50.1138 
        1.16584         301.146          49.511 
        1.17197         299.404         48.9174 
        1.17811         296.455         48.3318 
        1.18424         295.486         47.7576 
        1.19038         294.004         47.1911 
        1.19652         290.954         46.6341 
        1.20267         290.317         46.0861 
        1.20881         288.591         45.5471 
        1.21495         286.811         45.0176 
        1.22108         285.204         44.4967 
         1.2272         281.716         43.9854 
        1.23334         280.975         43.4809 
        1.23949         279.366         42.9832 
        1.24562         278.157         42.4948 
        1.25174          276.51         42.0147 
        1.25789         273.978         41.5406 
        1.26402         273.416         41.0748 
        1.27014         272.104         40.6172 
        1.27628         269.929         40.1654 
        1.28244         267.822         39.7195 
        1.28858         266.987         39.2811 
        1.29471         265.347         38.8504 
        1.30084         264.714         38.4265 
        1.30697          261.75         38.0083 
        1.31312         260.418         37.5959 
        1.31925         259.201         37.1908 
        1.32537         258.214         36.7922 
        1.33151         255.917         36.3981 
        1.33765         254.085           36.01 
        1.34378         253.331         35.6283 
        1.34992         250.861          35.252 
        1.35606         249.927         34.8803 
         1.3622         248.086         34.5147 
        1.36833         247.592         34.1553 
        1.37445         246.519         33.8011 
        1.38059         243.596          33.451 
        1.38675         242.401          33.105 
        1.39288         241.674         32.7653 
        1.39901         239.385         32.4306 
        1.40515          238.54         32.0998 
         1.4113          236.92         31.7738 
        1.41742         235.182         31.4536 
        1.42355         234.662         31.1372 
         1.4297         233.037         30.8243 
        1.43585         231.672         30.5158 
        1.44198          230.17         30.2128 
        1.44809         229.234         29.9144 
        1.45423         227.891          29.619 
        1.46036         226.848         29.3282 
        1.46649         225.307         29.0412 
        1.47263         223.964         28.7578 
        1.47877         222.652         28.4783 
        1.48491          221.05         28.2022 
        1.49104         219.212         27.9303 
        1.49718         218.833         27.6618 
        1.50333         216.955         27.3964 
        1.50947         216.001          27.135 
         1.5156         214.835         26.8775 
        1.52172         213.592         26.6233 
        1.52787         212.242          26.372 
          1.534         211.836         26.1242 
        1.54013         210.002         25.8798 
        1.54627          209.14         25.6382 
        1.55241          208.08         25.3996 
        1.55855         206.766         25.1644 
        1.56467          205.72         24.9329 
         1.5708         204.078         24.7036 
        1.57695           203.4         24.4769 
        1.58308         202.203         24.2536 
        1.58922         200.735         24.0329 
        1.59535         199.355         23.8151 
         1.6015         198.762         23.5996 
        1.60764         197.169          23.387 
        1.61376         195.928         23.1776 
        1.61989         194.862         22.9706 
        1.62604         194.053         22.7656 
        1.63218         192.736         22.5634 
        1.63831         192.167          22.364 
        1.64444         190.516          22.167 
        1.65059         189.655         21.9719 
        1.65673         188.545         21.7794 
        1.66285         187.533         21.5898 
        1.66898          186.61         21.4023 
        1.67512         185.435         21.2168 
        1.68127         184.558         21.0332 
         1.6874         183.355         20.8523 
        1.69353         182.707         20.6736 
        1.69967         181.152         20.4966 
        1.70581         180.738         20.3218 
        1.71193         179.398         20.1496 
        1.71806         178.149         19.9791 
        1.72421         177.301         19.8103 
        1.73035         176.227         19.6436 
        1.73649         175.026         19.4788 
        1.74262         174.398         19.3161 
        1.74876         173.557         19.1552 
        1.75489         172.969         18.9964 
        1.76101         171.638         18.8395 
        1.76715         170.584         18.6841 
        1.77329         169.354         18.5303 
        1.77943         168.464         18.3782 
        1.78557         167.562          18.228 
        1.79171         166.955         18.0795 
        1.79785         165.704         17.9326 
        1.80399         164.976         17.7874 
        1.81012         164.373          17.644 
        1.81625         162.765         17.5023 
        1.82239         162.469         17.3619 
        1.82853         161.379         17.2231 
        1.83466         160.001          17.086 
        1.84078         159.694         16.9505 
        1.84692          158.87         16.8163 
        1.85306         157.682         16.6833 
         1.8592         157.165         16.5521 
        1.86533         155.743         16.4223 
        1.87147         154.943         16.2938 
        1.87761         154.338         16.1666 
        1.88375         153.122         16.0409 
        1.88988         152.638         15.9167 
        1.89601         152.038         15.7937 
        1.90215         151.279          15.672 
        1.90829         149.835         15.5515 
        1.91442         149.241         15.4324 
        1.92056         148.577         15.3146 
         1.9267         147.645          15.198 
        1.93284          146.47         15.0824 
        1.93897         146.199         14.9684 
        1.94509         145.158         14.8557 
        1.95123         144.459         14.7439 
        1.95737         143.945         14.6332 
        1.96349         142.807         14.5239 
        1.96964         141.984         14.4155 
        1.97578         141.275         14.3081 
        1.98192         140.749          14.202 
        1.98805         139.883          14.097 
        1.99419         138.765          13.993 
        2.00033         138.257           13.89 
        2.00647         137.559         13.7881 
         2.0126         136.671         13.6874 
        2.01874         135.955         13.5876 
        2.02488         135.274         13.4887 
        2.03101         134.832         13.3909 
        2.03714         133.956         13.2942 
        2.04328         133.183         13.1984 
        2.04941         132.716         13.1036 
        2.05554         131.988         13.0098 
        2.06167         131.084         12.9167 
        2.06781         130.479         12.8246 
        2.07396         129.654         12.7333 
        2.08009         129.051          12.643 
        2.08622         128.348         12.5537 
        2.09237         127.379         12.4651 
        2.09851         127.059         12.3773 
        2.10464         126.351         12.2905 
        2.11077         125.677         12.2047 
        2.11691         125.019         12.1195 
        2.12305         124.295         12.0351 
        2.12918         123.731         11.9517 
        2.13531         122.795         11.8691 
        2.14145         122.498         11.7871 
         2.1476         121.685         11.7057 
        2.15372         120.906         11.6256 
        2.15985         120.309         11.5461 
        2.16599         119.617         11.4672 
        2.17213         119.028          11.389 
        2.17827         118.475         11.3117 
         2.1844         117.839         11.2351 
        2.19054         117.256         11.1592 
        2.19666         116.378         11.0841 
         2.2028         115.959         11.0096 
        2.20893         115.493         10.9358 
        2.21508         114.584         10.8626 
        2.22122         113.902           10.79 
        2.22736         113.835         10.7183 
        2.23349         113.167         10.6472 
        2.23962         112.347         10.5767 
        2.24577         111.668         10.5068 
         2.2519         111.043         10.4377 
        2.25802         110.715         10.3692 
        2.26417         109.962         10.3012 
        2.27031          109.32         10.2338 
        2.27644         108.866         10.1671 
        2.28257         108.489         10.1011 
        2.28872         107.786         10.0355 
        2.29486         107.288         9.97052 
        2.30099         106.535         9.90624 
        2.30712         106.179         9.84251 
        2.31326         105.518         9.77922 
         2.3194         105.104         9.71654 
        2.32553         104.546         9.65451 
        2.33166         104.116         9.59305 
         2.3378         103.287         9.53204 
        2.34394         102.807         9.47155 
        2.35007         102.249         9.41167 
        2.35619         101.663         9.35238 
        2.36233         101.267         9.29347 
        2.36848         100.603         9.23494 
        2.37462         100.455         9.17704 
        2.38075         99.7042          9.1197 
        2.38689         99.2326          9.0628 
        2.39303         98.8242         9.00639 
        2.39916         98.1991         8.95053 
        2.40529         97.8645         8.89515 
        2.41143         97.1315          8.8402 
        2.41757         96.4285         8.78569 
         2.4237         96.1551         8.73174 
        2.42983         95.5585         8.67825 
        2.43598         95.1351         8.62507 
        2.44211         94.7887         8.57242 
        2.44823         94.2383         8.52033 
        2.45437          93.915         8.46854 
        2.46052         93.2437         8.41713 
        2.46665         92.6863         8.36624 
        2.47279         92.3482         8.31579 
        2.47892         91.9716         8.26573 
        2.48507         91.5618         8.21603 
         2.4912         90.8482         8.16683 
