# k  (h/Mpc)    P(k)  (Mpc/h)^3    P_linear(k)  (Mpc/h)^3
     0.00783031         9396.32          9447.3 
       0.013688         11953.7         12227.7 
       0.019231         12745.5         12917.1 
      0.0249154         12438.5         12446.2 
      0.0312784         11093.6         11215.8 
      0.0375637         9642.43         9816.77 
      0.0433917         8581.56         8648.79 
      0.0492413         7597.19         7717.13 
      0.0555754         6926.48         6985.02 
      0.0619321         6235.75         6469.03 
       0.067871         5952.76         6094.68 
      0.0738098         5639.31         5744.78 
      0.0800417         5254.69         5347.61 
      0.0862327         4791.24         4904.75 
      0.0921407          4366.6          4454.2 
      0.0982031         3975.05         3999.81 
       0.104506         3522.06         3576.33 
       0.110769         3212.36         3232.69 
       0.116806         3028.85         2981.79 
       0.122832         2821.92         2800.81 
       0.129052         2686.46         2665.73 
       0.135211         2616.37         2557.68 
       0.141259         2466.04         2453.28 
       0.147318         2312.47         2334.97 
       0.153489         2196.04         2195.16 
       0.159709          2096.9         2039.78 
       0.165845         1906.62         1883.92 
       0.171974         1839.15          1738.7 
       0.178125         1749.39         1613.36 
       0.184229         1609.11          1513.7 
        0.19034         1574.14         1437.63 
       0.196428         1526.13         1380.22 
       0.202534         1438.24         1333.47 
       0.208729         1418.72         1289.11 
       0.214876         1367.72         1241.91 
       0.220989         1292.58         1188.73 
       0.227147         1262.16         1129.14 
        0.23329         1211.88         1066.57 
       0.239377         1191.16         1005.59 
       0.245482         1128.16         949.317 
       0.251667         1083.02          899.97 
       0.257832         1067.46         859.281 
       0.263955          1014.9         826.461 
       0.270079         985.868         799.137 
        0.27624           946.6         774.579 
       0.282372         932.265         750.663 
        0.28843         924.188         725.849 
       0.294538         878.856         699.033 
       0.300721         856.247         670.374 
        0.30691         840.353         641.231 
       0.313033         804.534         613.296 
       0.319153         792.281         587.442 
       0.325316         780.385         564.218 
        0.33145         764.083          544.06 
       0.337538         737.534         526.621 
       0.343633         718.208         511.019 
       0.349808         702.404         496.261 
       0.355968         689.783         481.851 
       0.362074         668.261         467.345 
       0.368217         665.406         452.414 
       0.374374         653.863         437.189 
       0.380519         629.062         422.116 
       0.386598         623.315         407.714 
       0.392688         609.984         394.128 
        0.39888          594.09         381.421 
       0.405048         584.401         369.867 
       0.411186         582.001         359.358 
       0.417313         576.681         349.615 
       0.423458         559.384         340.307 
       0.429607         544.666         331.235 
       0.435692         537.408         322.353 
       0.441815          528.59         313.423 
       0.447964         518.846         304.532 
       0.454126         512.544         295.795 
       0.460267         504.645         287.366 
       0.466387         497.035         279.353 
        0.47254         489.381         271.764 
       0.478662         479.703         264.659 
       0.484765         474.966         257.981 
       0.490885         469.879         251.633 
       0.497035         461.045         245.508 
       0.503198          460.55         239.542 
       0.509342         449.842         233.716 
       0.515458         442.668         228.029 
       0.521598         436.584         222.426 
       0.527764         429.518         216.927 
       0.533884         427.736         211.635 
           0.54         421.858         206.547 
       0.546137         413.645         201.656 
       0.552299         412.913         196.952 
       0.558452         406.479         192.452 
       0.564573         402.315         188.154 
       0.570708         397.692         183.996 
       0.576825         390.565         179.972 
       0.582926         387.983         176.053 
       0.589034         382.522         172.219 
       0.595184          379.84         168.454 
       0.601379         373.741         164.762 
       0.607522         367.348         161.205 
       0.613639          365.85         157.769 
       0.619772         364.214         154.434 
       0.625918         358.374         151.203 
       0.632068         354.146         148.083 
       0.638161         351.202         145.092 
         0.6443           348.1         142.168 
       0.650464         343.305         139.313 
       0.656582         340.322         136.549 
       0.662703         337.969         133.853 
       0.668861         332.566         131.208 
       0.675024         330.809         128.631 
       0.681124         327.168         126.148 
       0.687237         324.476         123.727 
       0.693381         320.903          121.36 
       0.699536         317.995         119.053 
       0.705665         314.981         116.819 
       0.711789         313.101         114.648 
       0.717957         309.015         112.521 
        0.72409         305.935         110.461 
       0.730186         307.635         108.467 
       0.736317         301.907         106.511 
       0.742472         298.709         104.595 
       0.748622         295.465         102.726 
        0.75476         295.399         100.905 
       0.760888         291.964         99.1307 
       0.767043         288.965          97.392 
       0.773185         287.489         95.6993 
       0.779291         282.987         94.0579 
       0.785407         282.276         92.4544 
       0.791564         279.349         90.8797 
       0.797719          275.23         89.3438 
       0.803834         277.363          87.854 
       0.809972         273.689         86.3933 
       0.816124         270.176         84.9628 
       0.822261         267.662         83.5684 
       0.828378         267.659         82.2093 
       0.834502         263.509         80.8791 
       0.840667         263.524         79.5698 
       0.846816         259.227         78.2932 
       0.852925         258.743         77.0529 
       0.859047         256.136         75.8371 
       0.865192         255.895          74.644 
       0.871341          252.35         73.4762 
       0.877463         250.141         72.3391 
       0.883569         249.643         71.2293 
       0.889708         247.271         70.1375 
       0.895864         245.377          69.066 
       0.902008         243.264         68.0194 
       0.908149           241.3         66.9954 
       0.914301         240.061         65.9909 
       0.920448         239.009         65.0081 
       0.926574         236.888         64.0489 
       0.932687         235.542         63.1112 
       0.938823         233.644         62.1891 
       0.944975         232.401         61.2834 
       0.951105         230.129         60.3991 
       0.957225         228.612         59.5339 
       0.963368         227.857         58.6829 
       0.969511         224.316         57.8487 
       0.975621          223.36         57.0353 
       0.981748         222.109         56.2356 
       0.987916         221.102         55.4464 
        0.99406         219.227         54.6754 
        1.00019         217.889         53.9208 
        1.00632         217.049         53.1812 
        1.01246         215.415         52.4545 
        1.01859          213.31         51.7427 
        1.02471         211.687         51.0452 
        1.03085         210.866         50.3582 
        1.03698         209.318         49.6854 
        1.04314          208.95         49.0221 
        1.04929         207.545         48.3727 
        1.05541         205.859         47.7377 
        1.06154         204.297         47.1126 
        1.06769         202.739          46.498 
        1.07382         202.427         45.8964 
        1.07993         200.213         45.3068 
        1.08607          198.91         44.7253 
        1.09222         197.861         44.1536 
        1.09836         196.985         43.5925 
        1.10449         195.075         43.0419 
        1.11063         194.024         42.5003 
        1.11677          193.15         41.9683 
         1.1229         191.629         41.4464 
        1.12903         190.849         40.9329 
        1.13518         189.432         40.4278 
        1.14131         188.491         39.9315 
        1.14745         186.893          39.444 
        1.15359         185.184         38.9645 
        1.15973         184.867         38.4928 
        1.16584         183.991         38.0312 
        1.17197         182.722         37.5765 
        1.17811         181.038         37.1278 
        1.18424         180.349         36.6879 
        1.19038         179.142         36.2539 
        1.19652         177.717          35.827 
        1.20267         176.913         35.4072 
        1.20881         175.591         34.9941 
        1.21495         175.289         34.5884 
        1.22108         173.915         34.1892 
         1.2272         172.536         33.7973 
        1.23334         171.933         33.4107 
        1.23949         171.344         33.0292 
        1.24562          170.02         32.6548 
        1.25174         168.794         32.2868 
        1.25789         167.702         31.9235 
        1.26402         167.452         31.5664 
        1.27014         166.404         31.2156 
        1.27628         164.449         30.8692 
        1.28244         164.075         30.5274 
        1.28858         162.967         30.1913 
        1.29471         162.046         29.8611 
        1.30084         161.023         29.5361 
        1.30697         160.089         29.2155 
        1.31312         159.136         28.8992 
        1.31925         157.884         28.5887 
        1.32537         157.597          28.283 
        1.33151         156.624         27.9808 
        1.33765         155.153         27.6831 
        1.34378         155.044         27.3904 
        1.34992         154.202         27.1018 
        1.35606          153.08         26.8167 
         1.3622         152.567         26.5363 
        1.36833         150.873         26.2606 
        1.37445         150.846         25.9889 
        1.38059         149.622         25.7203 
        1.38675         148.858         25.4548 
        1.39288         147.807         25.1942 
        1.39901         146.963         24.9373 
        1.40515         146.375         24.6835 
         1.4113         145.576         24.4333 
        1.41742         144.389         24.1876 
        1.42355         144.274         23.9448 
         1.4297          142.93         23.7046 
        1.43585         142.191         23.4678 
        1.44198         140.961         23.2352 
        1.44809           140.2         23.0062 
        1.45423         139.969         22.7795 
        1.46036          138.82         22.5562 
        1.46649          137.94         22.3359 
        1.47263         137.592         22.1183 
        1.47877         136.375         21.9038 
        1.48491         135.791         21.6917 
        1.49104         134.283          21.483 
        1.49718         134.367         21.2769 
        1.50333         133.692         21.0731 
        1.50947         132.817         20.8725 
         1.5156         132.014         20.6747 
        1.52172         131.304         20.4796 
        1.52787         130.595         20.2866 
          1.534          129.96         20.0963 
        1.54013         129.265         19.9087 
        1.54627         128.317         19.7232 
        1.55241          127.86           19.54 
        1.55855         127.131         19.3594 
        1.56467         126.151         19.1815 
         1.5708         125.386         19.0055 
        1.57695         125.023         18.8314 
        1.58308         124.174         18.6598 
        1.58922         124.036         18.4903 
        1.59535         123.354          18.323 
         1.6015         122.069         18.1576 
        1.60764         121.364         17.9942 
        1.61376         120.849         17.8334 
        1.61989         120.338         17.6743 
        1.62604         119.511         17.5169 
        1.63218         119.117         17.3615 
        1.63831          118.23         17.2084 
        1.64444         117.458          17.057 
        1.65059         116.748         16.9071 
        1.65673         116.511         16.7592 
        1.66285         115.884         16.6135 
        1.66898         114.923         16.4695 
        1.67512         114.588         16.3269 
        1.68127         113.888         16.1859 
         1.6874         113.014         16.0468 
        1.69353         112.394         15.9095 
        1.69967         112.047         15.7735 
        1.70581         111.606         15.6391 
        1.71193         110.791         15.5068 
        1.71806         110.115         15.3758 
        1.72421         109.559          15.246 
        1.73035         109.125         15.1179 
        1.73649         108.358         14.9913 
        1.74262          107.92         14.8662 
        1.74876         107.148         14.7425 
        1.75489         106.746         14.6205 
        1.76101         106.062         14.4998 
        1.76715          105.29         14.3804 
        1.77329         104.987         14.2622 
        1.77943          104.21         14.1453 
        1.78557         103.889         14.0299 
        1.79171          103.43         13.9157 
        1.79785         102.517         13.8028 
        1.80399         102.292         13.6912 
        1.81012         101.483         13.5809 
        1.81625         101.062          13.472 
        1.82239          100.63          13.364 
        1.82853         100.035         13.2573 
        1.83466         99.2429         13.1519 
        1.84078         98.9172         13.0477 
        1.84692         98.6492         12.9446 
        1.85306         97.9708         12.8424 
         1.8592          97.595         12.7414 
        1.86533         96.9378         12.6416 
        1.87147         96.4082         12.5428 
        1.87761         95.7734          12.445 
        1.88375         95.2582         12.3483 
        1.88988         94.5591         12.2528 
        1.89601         94.4645         12.1583 
        1.90215         93.7479         12.0647 
        1.90829         93.1824         11.9721 
        1.91442         92.8525         11.8805 
        1.92056         92.4061         11.7899 
         1.9267         91.7809         11.7002 
        1.93284         91.4224         11.6113 
        1.93897         91.0113         11.5236 
        1.94509         90.3299         11.4369 
        1.95123         89.9311          11.351 
        1.95737         89.5274         11.2658 
        1.96349         89.0713         11.1818 
        1.96964         88.6777         11.0983 
        1.97578         87.9833         11.0157 
        1.98192         87.4913         10.9341 
        1.98805         87.0605         10.8533 
        1.99419         86.6806         10.7734 
        2.00033         86.0207         10.6942 
        2.00647         85.8497         10.6158 
         2.0126         85.3564         10.5383 
        2.01874         85.0907         10.4615 
        2.02488         84.4666         10.3854 
        2.03101         84.0846         10.3102 
        2.03714         83.6888         10.2359 
        2.04328         83.2031         10.1621 
        2.04941         82.7134         10.0892 
        2.05554         82.3818          10.017 
        2.06167         81.7384         9.94547 
        2.06781         81.3115          9.8746 
        2.07396         81.0904         9.80433 
        2.08009         80.5344         9.73486 
        2.08622         80.2509         9.66615 
        2.09237         79.8593         9.59797 
        2.09851         79.1539         9.53043 
        2.10464         79.0387         9.46366 
        2.11077         78.6127         9.39762 
        2.11691         78.2853         9.33206 
        2.12305         77.7448         9.26712 
        2.12918         77.3327         9.20296 
        2.13531           77.01          9.1394 
        2.14145         76.4116          9.0763 
         2.1476         76.2007         9.01372 
        2.15372         75.8141         8.95205 
        2.15985         75.3122          8.8909 
        2.16599         74.9788         8.83014 
        2.17213         74.6417         8.77002 
        2.17827         74.0949         8.71048 
         2.1844         73.7745         8.65154 
        2.19054          73.535         8.59313 
        2.19666         73.0903         8.53535 
         2.2028         72.6422         8.47804 
        2.20893         72.2716         8.42124 
        2.21508         71.8788         8.36489 
        2.22122          71.471         8.30905 
        2.22736         71.1897         8.25383 
        2.23349         70.8296         8.19913 
        2.23962         70.6045         8.14489 
        2.24577         70.0483         8.09111 
         2.2519         69.7398         8.03788 
        2.25802         69.3482         7.98522 
        2.26417         68.9528         7.93288 
        2.27031         68.6326         7.88097 
        2.27644         68.3876         7.82967 
        2.28257         68.0241         7.77884 
        2.28872         67.6959         7.72836 
        2.29486         67.4199         7.67834 
        2.30099         66.8645         7.62887 
        2.30712         66.7519         7.57981 
        2.31326         66.3986          7.5311 
         2.3194           65.93         7.48285 
        2.32553         65.6531         7.43511 
        2.33166         65.2387          7.3878 
         2.3378         64.9833         7.34085 
        2.34394         64.6631         7.29428 
        2.35007         64.3559         7.24819 
        2.35619         63.9921         7.20255 
        2.36233         63.6959          7.1572 
        2.36848         63.3542         7.11215 
        2.37462         63.0029         7.06758 
        2.38075         62.7218         7.02344 
        2.38689         62.3952         6.97964 
        2.39303         62.0679         6.93622 
        2.39916         61.8403         6.89322 
        2.40529         61.5052         6.85059 
        2.41143         61.1955         6.80828 
        2.41757         60.7971         6.76632 
         2.4237         60.7089         6.72479 
        2.42983         60.2376         6.68361 
        2.43598         60.0129         6.64266 
        2.44211         59.5688         6.60213 
        2.44823         59.3678         6.56203 
        2.45437         59.0819         6.52215 
        2.46052          58.708         6.48258 
        2.46665         58.3878          6.4434 
        2.47279         58.1541         6.40456 
        2.47892          57.958         6.36601 
        2.48507         57.5668         6.32774 
         2.4912         57.3475         6.28987 
