# k  (h/Mpc)    P(k)  (Mpc/h)^3    P_linear(k)  (Mpc/h)^3
     0.00783031         10459.6         10623.6 
       0.013688         14126.6         14051.8 
       0.019231         15067.4         15091.2 
      0.0249154         14441.9           14764 
      0.0312784         13341.7         13539.7 
      0.0375637         12000.2         12083.8 
      0.0433917         10588.9         10858.4 
      0.0492413         9724.71         9879.05 
      0.0555754         8749.03         9097.58 
      0.0619321          8422.4         8512.55 
       0.067871         7728.08         8038.81 
      0.0738098         7244.73         7552.23 
      0.0800417         6605.09         6985.12 
      0.0862327         6091.94         6372.57 
      0.0921407         5609.38         5783.73 
      0.0982031         5050.29         5226.52 
       0.104506         4720.08         4739.83 
       0.110769         4352.99         4366.63 
       0.116806         4071.16         4101.86 
       0.122832          3888.9          3904.1 
       0.129052          3638.6         3734.42 
       0.135211         3480.96         3568.18 
       0.141259         3353.07         3386.43 
       0.147318         3181.67         3181.28 
       0.153489         2934.56         2957.81 
       0.159709         2778.87         2735.46 
       0.165845         2669.33         2536.53 
       0.171974         2505.81         2369.78 
       0.178125         2380.74         2237.72 
       0.184229         2286.45         2136.98 
        0.19034         2160.21         2056.52 
       0.196428         2130.54         1985.02 
       0.202534         2061.58         1911.87 
       0.208729         1977.32         1830.03 
       0.214876         1894.28         1740.35 
       0.220989         1838.43         1646.44 
       0.227147         1751.94         1553.14 
        0.23329         1684.24         1467.36 
       0.239377         1659.18         1393.55 
       0.245482         1556.59         1331.93 
       0.251667         1549.07         1280.73 
       0.257832         1492.71         1237.49 
       0.263955         1447.16         1198.22 
       0.270079         1402.64         1159.02 
        0.27624         1390.45         1117.44 
       0.282372         1331.51         1073.54 
        0.28843         1322.49         1028.68 
       0.294538         1259.55         983.927 
       0.300721         1255.21         941.185 
        0.30691         1203.98         902.552 
       0.313033         1182.13         869.008 
       0.319153         1161.98         839.796 
       0.325316          1124.4         813.683 
        0.33145         1099.77         789.606 
       0.337538         1085.81         766.308 
       0.343633         1059.09         742.767 
       0.349808         1026.31         718.336 
       0.355968         1020.87         693.672 
       0.362074         1008.62         669.472 
       0.368217         979.814         646.115 
       0.374374         943.214         624.243 
       0.380519         942.546          604.24 
       0.386598         920.872         586.246 
       0.392688         917.812          569.67 
        0.39888         891.628         553.894 
       0.405048         880.205          538.78 
       0.411186         867.389          523.95 
       0.417313         850.374         509.233 
       0.423458         837.951         494.527 
       0.429607         824.456         480.028 
       0.435692         808.256         466.132 
       0.441815         804.245         452.779 
       0.447964         786.814         440.119 
       0.454126         775.687         428.253 
       0.460267         761.479         417.145 
       0.466387         752.984         406.637 
        0.47254         743.178         396.496 
       0.478662          739.57         386.699 
       0.484765         720.451         377.109 
       0.490885         715.123         367.644 
       0.497035         700.839         358.333 
       0.503198         695.239         349.257 
       0.509342         688.063          340.51 
       0.515458         684.153         332.152 
       0.521598         669.617         324.151 
       0.527764         655.265         316.489 
       0.533884         655.626         309.198 
           0.54         647.331         302.175 
       0.546137         644.278         295.347 
       0.552299         633.909         288.679 
       0.558452         630.752         282.182 
       0.564573         620.908         275.859 
       0.570708         614.453         269.678 
       0.576825         598.867         263.697 
       0.582926          600.67          257.93 
       0.589034          595.28         252.359 
       0.595184         589.274         246.943 
       0.601379         582.508         241.672 
       0.607522          574.45         236.615 
       0.613639         574.886         231.735 
       0.619772         559.774         226.982 
       0.625918         558.438         222.346 
       0.632068         551.354         217.821 
       0.638161         549.472         213.445 
         0.6443         538.692         209.149 
       0.650464         536.918         204.955 
       0.656582         535.389         200.914 
       0.662703         531.249         196.993 
       0.668861         521.819         193.167 
       0.675024          518.24         189.447 
       0.681124         515.423         185.866 
       0.687237         510.695          182.37 
       0.693381         504.656         178.944 
       0.699536         497.738         175.597 
       0.705665         496.695         172.349 
       0.711789         492.393         169.186 
       0.717957         488.064         166.082 
        0.72409         484.691         163.074 
       0.730186         479.273         160.162 
       0.736317         475.674         157.306 
       0.742472         474.023         154.511 
       0.748622         468.507         151.788 
        0.75476          462.99         149.137 
       0.760888         458.137         146.554 
       0.767043         458.835         144.022 
       0.773185         452.737         141.556 
       0.779291         447.954         139.162 
       0.785407          445.16         136.821 
       0.791564         440.386         134.519 
       0.797719         438.083         132.273 
       0.803834         434.713         130.093 
       0.809972         432.215         127.955 
       0.816124         432.134         125.861 
       0.822261         425.037          123.82 
       0.828378         423.129         121.831 
       0.834502         419.732         119.885 
       0.840667         415.057         117.969 
       0.846816         413.593           116.1 
       0.852925         409.531         114.285 
       0.859047         409.223         112.504 
       0.865192         404.862         110.756 
       0.871341         401.573         109.044 
       0.877463          399.38         107.377 
       0.883569         396.441         105.749 
       0.889708         393.612         104.147 
       0.895864         389.623         102.575 
       0.902008         388.163         101.039 
       0.908149         385.564         99.5351 
       0.914301         381.332         98.0601 
       0.920448         378.662         96.6168 
       0.926574         374.712         95.2079 
       0.932687         375.211         93.8304 
       0.938823         370.391         92.4755 
       0.944975         370.258         91.1445 
       0.951105         366.096         89.8448 
       0.957225         363.448         88.5729 
       0.963368         359.623         87.3215 
       0.969511         357.921         86.0945 
       0.975621         355.138         84.8979 
       0.981748         355.025         83.7212 
       0.987916         351.806         82.5596 
        0.99406         346.446         81.4246 
        1.00019         346.565         80.3134 
        1.00632         344.223         79.2242 
        1.01246          341.24         78.1537 
        1.01859         341.548         77.1049 
        1.02471         336.848         76.0768 
        1.03085         334.222         75.0641 
        1.03698         333.418         74.0722 
        1.04314         330.338         73.0941 
        1.04929         327.564         72.1361 
        1.05541         327.108         71.1993 
        1.06154         322.821         70.2771 
        1.06769         321.502         69.3699 
        1.07382         319.808         68.4818 
        1.07993         317.558         67.6115 
        1.08607         316.686         66.7528 
        1.09222         313.922         65.9084 
        1.09836         311.449         65.0796 
        1.10449         308.412         64.2662 
        1.11063         306.104          63.466 
        1.11677         305.688         62.6797 
         1.1229         303.807         61.9083 
        1.12903          301.11         61.1493 
        1.13518         298.963         60.4026 
        1.14131         297.305         59.6688 
        1.14745          296.24         58.9477 
        1.15359         293.539         58.2385 
        1.15973         292.425         57.5408 
        1.16584         289.652         56.8578 
        1.17197         289.175          56.185 
        1.17811         286.458          55.521 
        1.18424         284.399         54.8699 
        1.19038          283.15         54.2273 
        1.19652         280.974         53.5954 
        1.20267         280.272         52.9737 
        1.20881         278.132          52.362 
        1.21495         275.798          51.761 
        1.22108         274.638         51.1696 
         1.2272         272.706         50.5889 
        1.23334         270.861          50.016 
        1.23949         269.645         49.4506 
        1.24562         268.035         48.8957 
        1.25174         265.123         48.3501 
        1.25789         263.553         47.8112 
        1.26402         262.539         47.2816 
        1.27014         260.614         46.7613 
        1.27628         259.239         46.2474 
        1.28244         258.531         45.7402 
        1.28858         255.946         45.2414 
        1.29471         253.663         44.7512 
        1.30084         252.755         44.2688 
        1.30697         251.031         43.7928 
        1.31312         249.076         43.3232 
        1.31925         249.041          42.862 
        1.32537          247.41          42.408 
        1.33151         244.996         41.9591 
        1.33765         243.392         41.5169 
        1.34378          242.49          41.082 
        1.34992         241.005         40.6531 
        1.35606         240.522         40.2295 
         1.3622           238.6         39.8127 
        1.36833         236.378         39.4028 
        1.37445             235          38.999 
        1.38059         233.197         38.5996 
        1.38675          232.42         38.2049 
        1.39288         230.409         37.8173 
        1.39901         230.153         37.4353 
        1.40515         228.232         37.0578 
         1.4113         226.567         36.6857 
        1.41742         225.677         36.3201 
        1.42355         223.401         35.9589 
         1.4297         222.444         35.6015 
        1.43585         220.892         35.2491 
        1.44198         219.709         34.9029 
        1.44809         218.877          34.562 
        1.45423         216.837         34.2245 
        1.46036          216.29          33.892 
        1.46649         214.437         33.5639 
        1.47263         212.907           33.24 
        1.47877         212.033         32.9204 
        1.48491         210.483         32.6046 
        1.49104         209.664         32.2936 
        1.49718         207.521         31.9865 
        1.50333         206.745         31.6829 
        1.50947          205.69         31.3839 
         1.5156          203.93         31.0892 
        1.52172         202.965         30.7983 
        1.52787         201.532         30.5106 
          1.534         200.965         30.2269 
        1.54013          199.07         29.9471 
        1.54627          198.54         29.6704 
        1.55241         196.751         29.3972 
        1.55855         195.679         29.1278 
        1.56467         194.465         28.8626 
         1.5708         193.969         28.5999 
        1.57695         191.916         28.3402 
        1.58308          191.51         28.0842 
        1.58922         189.786         27.8313 
        1.59535         188.533         27.5816 
         1.6015         188.104         27.3346 
        1.60764          186.56         27.0908 
        1.61376         184.996         26.8507 
        1.61989         184.282         26.6133 
        1.62604         183.405         26.3782 
        1.63218         182.231         26.1462 
        1.63831         181.191         25.9175 
        1.64444         180.215         25.6915 
        1.65059         178.794         25.4676 
        1.65673         177.928         25.2467 
        1.66285          177.06          25.029 
        1.66898         175.957         24.8138 
        1.67512         175.349         24.6007 
        1.68127         173.456           24.39 
         1.6874         172.329         24.1822 
        1.69353         171.851          23.977 
        1.69967         170.594         23.7737 
        1.70581         169.606         23.5728 
        1.71193         168.414          23.375 
        1.71806         167.896         23.1791 
        1.72421         166.665         22.9851 
        1.73035          165.89         22.7935 
        1.73649          165.11         22.6042 
        1.74262         163.722         22.4171 
        1.74876         163.158         22.2321 
        1.75489         161.682         22.0496 
        1.76101         160.896         21.8691 
        1.76715         160.264         21.6905 
        1.77329         159.522         21.5136 
        1.77943         158.228         21.3386 
        1.78557         157.355         21.1659 
        1.79171         156.408         20.9951 
        1.79785          155.43         20.8261 
        1.80399         154.628          20.659 
        1.81012          153.66          20.494 
        1.81625          152.92         20.3308 
        1.82239         152.016         20.1692 
        1.82853         151.366         20.0095 
        1.83466          150.37         19.8516 
        1.84078         149.601         19.6956 
        1.84692         148.341         19.5411 
        1.85306         147.925          19.388 
         1.8592         146.625         19.2368 
        1.86533         145.785         19.0874 
        1.87147         144.975         18.9393 
        1.87761         144.592         18.7928 
        1.88375          142.92          18.648 
        1.88988         142.415         18.5048 
        1.89601         141.434         18.3632 
        1.90215         140.722         18.2228 
        1.90829         140.163         18.0841 
        1.91442         139.464         17.9467 
        1.92056         138.524          17.811 
         1.9267         137.816         17.6765 
        1.93284         137.217         17.5433 
        1.93897         136.112         17.4117 
        1.94509         135.715         17.2818 
        1.95123         134.869         17.1529 
        1.95737          134.15         17.0252 
        1.96349         133.322         16.8991 
        1.96964         132.212          16.774 
        1.97578         131.531         16.6501 
        1.98192         130.919         16.5277 
        1.98805         129.877         16.4065 
        1.99419         129.441         16.2865 
        2.00033         128.682         16.1677 
        2.00647         128.144         16.0501 
         2.0126         127.142         15.9338 
        2.01874         126.518         15.8186 
        2.02488         126.105         15.7044 
        2.03101         124.863         15.5915 
        2.03714          124.18         15.4799 
        2.04328         123.701         15.3692 
        2.04941         122.872         15.2597 
        2.05554         122.113         15.1514 
        2.06167         121.812         15.0439 
        2.06781         121.259         14.9375 
        2.07396         120.165          14.832 
        2.08009         119.453         14.7277 
        2.08622         119.064         14.6245 
        2.09237         118.074         14.5221 
        2.09851         117.608         14.4207 
        2.10464         116.887         14.3204 
        2.11077         116.363         14.2212 
        2.11691          115.75         14.1227 
        2.12305         114.752         14.0251 
        2.12918         114.267         13.9287 
        2.13531         113.659         13.8332 
        2.14145         112.917         13.7384 
         2.1476         112.387         13.6444 
        2.15372          111.83         13.5517 
        2.15985         111.322         13.4598 
        2.16599         110.678         13.3685 
        2.17213         109.778         13.2781 
        2.17827          109.58         13.1886 
         2.1844         108.742         13.1001 
        2.19054         108.247         13.0122 
        2.19666         107.708         12.9254 
         2.2028         107.086         12.8392 
        2.20893         106.319         12.7538 
        2.21508         105.648         12.6691 
        2.22122         105.251         12.5851 
        2.22736         104.627         12.5021 
        2.23349         104.229         12.4198 
        2.23962         103.505         12.3382 
        2.24577         103.087         12.2573 
         2.2519          102.58         12.1773 
        2.25802         101.611          12.098 
        2.26417         101.343         12.0193 
        2.27031         100.694         11.9412 
        2.27644         100.179          11.864 
        2.28257         99.7126         11.7875 
        2.28872         99.0286         11.7116 
        2.29486         98.6489         11.6363 
        2.30099         98.1011         11.5619 
        2.30712         97.4167          11.488 
        2.31326          97.023         11.4147 
         2.3194         96.3906         11.3421 
        2.32553         95.9079         11.2702 
        2.33166         95.4171          11.199 
         2.3378         94.9102         11.1283 
        2.34394         94.5425         11.0582 
        2.35007         93.8681         10.9888 
        2.35619         93.3228         10.9201 
        2.36233         92.9013         10.8518 
        2.36848         92.2962          10.784 
        2.37462         91.8413         10.7169 
        2.38075         91.4689         10.6504 
        2.38689         90.7334         10.5844 
        2.39303         90.2513          10.519 
        2.39916         89.8215         10.4543 
        2.40529         89.5978         10.3901 
        2.41143         89.0814         10.3263 
        2.41757         88.4061         10.2631 
         2.4237         88.0709         10.2005 
        2.42983          87.572         10.1385 
        2.43598         87.0873         10.0768 
        2.44211         86.6962         10.0157 
        2.44823         86.2055         9.95532 
        2.45437          85.689         9.89523 
        2.46052          85.122         9.83559 
        2.46665          84.717         9.77654 
        2.47279         84.3033         9.71801 
        2.47892         83.9198         9.65991 
        2.48507         83.4252         9.60224 
         2.4912         83.0267         9.54515 
