# k  (h/Mpc)    P(k)  (Mpc/h)^3    P_linear(k)  (Mpc/h)^3
     0.00783031         6910.81         7003.23 
       0.013688         8850.02         8813.63 
       0.019231         9098.59         9092.68 
      0.0249154         8431.67         8556.37 
      0.0312784         7475.49         7527.86 
      0.0375637         6477.36         6473.95 
      0.0433917         5591.79         5655.67 
      0.0492413          5022.2         5041.29 
      0.0555754         4490.81         4579.88 
      0.0619321         4267.72         4252.91 
       0.067871         3924.93         3994.33 
      0.0738098         3657.42         3726.23 
      0.0800417         3317.84          3408.9 
      0.0862327         3011.97         3064.91 
      0.0921407         2721.79         2737.55 
      0.0982031          2411.4         2434.29 
       0.104506         2212.13         2177.89 
       0.110769         2022.92         1989.87 
       0.116806         1882.98         1863.61 
       0.122832         1801.24         1774.14 
       0.129052         1694.36         1698.58 
       0.135211         1618.72         1621.52 
       0.141259            1549         1532.72 
       0.147318         1457.21         1429.28 
       0.153489         1335.06         1315.63 
       0.159709         1244.58         1203.63 
       0.165845         1173.29         1105.74 
       0.171974         1090.32         1026.51 
       0.178125         1033.42         966.588 
       0.184229         991.477         923.179 
        0.19034         932.775         889.726 
       0.196428         918.922         859.687 
       0.202534         892.543         827.389 
       0.208729         849.174         789.423 
       0.214876         803.195         746.675 
       0.220989         773.999         701.643 
       0.227147         727.956          657.35 
        0.23329         694.115         617.523 
       0.239377         674.478         584.341 
       0.245482         629.688         557.663 
       0.251667         622.775         536.269 
       0.257832         601.985         518.558 
       0.263955         582.864         502.259 
       0.270079         562.986           485.4 
        0.27624         555.286         466.902 
       0.282372         532.068         446.906 
        0.28843          515.83         426.395 
       0.294538         491.194         406.076 
       0.300721         486.002         387.023 
        0.30691         463.019         370.206 
       0.313033         452.764         355.996 
       0.319153         437.014         343.905 
       0.325316         425.428         333.202 
        0.33145         412.861         323.262 
       0.337538         407.508         313.461 
       0.343633         394.262         303.312 
       0.349808         381.753         292.645 
       0.355968         376.587         281.789 
       0.362074         367.598          271.21 
       0.368217         357.573         261.099 
       0.374374         344.604         251.793 
       0.380519         339.837         243.436 
       0.386598         331.483         236.006 
       0.392688         328.158         229.234 
        0.39888         319.244         222.757 
       0.405048         312.417         216.487 
       0.411186         305.828         210.281 
       0.417313         300.092          204.03 
       0.423458         294.311         197.773 
       0.429607         287.719          191.62 
       0.435692         279.931         185.746 
       0.441815         277.897         180.159 
       0.447964         272.678         174.937 
       0.454126         262.254         170.066 
       0.460267          259.23         165.531 
       0.466387         256.108         161.257 
        0.47254         250.718         157.111 
       0.478662         249.172         153.066 
       0.484765         241.864         149.098 
       0.490885         238.576         145.178 
       0.497035         235.109         141.309 
       0.503198         229.438         137.545 
       0.509342         226.888         133.946 
       0.515458         223.878         130.536 
       0.521598         220.398          127.28 
       0.527764          216.96         124.166 
       0.533884         213.973         121.215 
           0.54         210.832         118.377 
       0.546137         209.569          115.61 
       0.552299         205.622         112.891 
       0.558452         202.668         110.236 
       0.564573         199.288         107.659 
       0.570708         196.004         105.149 
       0.576825         193.558         102.724 
       0.582926         190.743         100.388 
       0.589034         188.222         98.1332 
       0.595184         186.285         95.9518 
       0.601379         184.402         93.8385 
       0.607522         180.404         91.8139 
       0.613639         179.755          89.857 
       0.619772          175.79         87.9445 
       0.625918         174.227         86.0743 
       0.632068         172.203         84.2509 
       0.638161         170.969         82.4935 
         0.6443         168.456         80.7734 
       0.650464         166.705         79.0981 
       0.656582         164.968         77.4847 
       0.662703          162.67         75.9183 
       0.668861         160.446          74.389 
       0.675024         158.674         72.9034 
       0.681124         157.716         71.4756 
       0.687237         154.964         70.0845 
       0.693381         152.976         68.7241 
       0.699536         151.802         67.3967 
       0.705665         151.963         66.1084 
       0.711789         148.381         64.8531 
       0.717957         147.885         63.6205 
        0.72409         145.852         62.4263 
       0.730186         143.547         61.2701 
       0.736317          142.92         60.1378 
       0.742472         141.891         59.0315 
       0.748622         140.676         57.9554 
        0.75476         139.376         56.9096 
       0.760888         137.406         55.8919 
       0.767043         136.538         54.8954 
       0.773185         135.101         53.9253 
       0.779291         133.384         52.9838 
       0.785407         132.623          52.063 
       0.791564         131.296         51.1579 
       0.797719         129.497         50.2746 
       0.803834         128.933         49.4177 
       0.809972         127.227         48.5777 
       0.816124          126.97         47.7556 
       0.822261         125.553         46.9549 
       0.828378           124.4         46.1754 
       0.834502         123.841         45.4131 
       0.840667         122.226         44.6634 
       0.846816         121.102          43.933 
       0.852925         120.143         43.2236 
       0.859047         118.747         42.5286 
       0.865192         118.254         41.8467 
       0.871341         117.107         41.1794 
       0.877463          115.95         40.5296 
       0.883569         115.119         39.8956 
       0.889708         114.382          39.272 
       0.895864         113.353         38.6602 
       0.902008         112.511         38.0627 
       0.908149         111.894         37.4783 
       0.914301         110.681         36.9053 
       0.920448         110.002         36.3448 
       0.926574          109.25          35.798 
       0.932687         108.773         35.2637 
       0.938823         107.165         34.7385 
       0.944975         106.437         34.2227 
       0.951105         105.766         33.7194 
       0.957225         104.496         33.2271 
       0.963368          104.04          32.743 
       0.969511         103.626         32.2686 
       0.975621         103.137         31.8061 
       0.981748         102.214         31.3516 
       0.987916         101.242         30.9032 
        0.99406         100.682         30.4652 
        1.00019         99.7969         30.0366 
        1.00632         99.2941         29.6167 
        1.01246         98.4429         29.2043 
        1.01859          97.214         28.8004 
        1.02471         97.4793         28.4046 
        1.03085         96.4329          28.015 
        1.03698         95.7355         27.6335 
        1.04314         94.8501         27.2576 
        1.04929         94.3595         26.8895 
        1.05541         93.6505         26.5297 
        1.06154         93.2458         26.1757 
        1.06769         92.7473         25.8276 
        1.07382          92.334          25.487 
        1.07993         91.6954         25.1534 
        1.08607         90.9098         24.8243 
        1.09222          90.445         24.5009 
        1.09836         89.7734         24.1836 
        1.10449         89.2436         23.8723 
        1.11063         88.6635         23.5662 
        1.11677         88.1612         23.2656 
         1.1229         87.3744         22.9708 
        1.12903         86.5185         22.6808 
        1.13518         86.7757         22.3956 
        1.14131         86.0683         22.1155 
        1.14745         85.1511         21.8404 
        1.15359         84.8448         21.5699 
        1.15973         84.3908         21.3039 
        1.16584         83.7747         21.0436 
        1.17197         83.2695         20.7873 
        1.17811         82.8061         20.5345 
        1.18424         82.1287         20.2867 
        1.19038         81.7148         20.0422 
        1.19652         81.3826         19.8019 
        1.20267         80.6997         19.5655 
        1.20881         80.2936          19.333 
        1.21495         79.6877         19.1047 
        1.22108         79.2597         18.8801 
         1.2272         78.6541         18.6597 
        1.23334         78.3439         18.4423 
        1.23949         77.9142         18.2278 
        1.24562         77.5896         18.0174 
        1.25174          77.108         17.8106 
        1.25789         76.7081         17.6064 
        1.26402         76.2593         17.4058 
        1.27014         75.5326         17.2088 
        1.27628         75.3921         17.0143 
        1.28244         74.7041         16.8225 
        1.28858         74.3868         16.6338 
        1.29471          74.112         16.4485 
        1.30084         73.6154         16.2661 
        1.30697         73.1297         16.0863 
        1.31312         72.7409         15.9089 
        1.31925         72.5264         15.7348 
        1.32537         72.1286         15.5635 
        1.33151         71.4434          15.394 
        1.33765         71.1505         15.2273 
        1.34378         70.7226         15.0633 
        1.34992         70.3914         14.9016 
        1.35606         70.0169          14.742 
         1.3622         69.4391          14.585 
        1.36833         69.3093         14.4306 
        1.37445         68.9056         14.2786 
        1.38059         68.3682         14.1283 
        1.38675         68.0401         13.9798 
        1.39288           67.64         13.8341 
        1.39901         67.5062         13.6905 
        1.40515         67.1056         13.5486 
         1.4113         66.7064         13.4088 
        1.41742         66.4503         13.2714 
        1.42355         65.9496         13.1358 
         1.4297         65.6397         13.0017 
        1.43585         65.2347         12.8694 
        1.44198         65.0114         12.7396 
        1.44809         64.6348         12.6117 
        1.45423         64.3613         12.4852 
        1.46036         64.0388         12.3606 
        1.46649         63.6519         12.2377 
        1.47263         63.2883         12.1164 
        1.47877         63.1174         11.9967 
        1.48491         62.8183         11.8785 
        1.49104         62.3493         11.7621 
        1.49718         61.9146         11.6472 
        1.50333         61.7165         11.5337 
        1.50947         61.3604         11.4219 
         1.5156         61.0977         11.3117 
        1.52172         60.8435          11.203 
        1.52787         60.6625         11.0955 
          1.534         60.2839         10.9896 
        1.54013         59.9149         10.8851 
        1.54627         59.7019         10.7819 
        1.55241         59.2991         10.6799 
        1.55855         58.9367         10.5794 
        1.56467         58.5267         10.4805 
         1.5708         58.4964         10.3825 
        1.57695         58.2044         10.2857 
        1.58308         57.8641         10.1903 
        1.58922         57.7724         10.0961 
        1.59535         57.4792         10.0031 
         1.6015         56.9574         9.91116 
        1.60764         56.8453          9.8204 
        1.61376         56.4966         9.73104 
        1.61989         56.1083         9.64271 
        1.62604         56.0118         9.55528 
        1.63218         55.8176           9.469 
        1.63831          55.472         9.38398 
        1.64444         55.2044         9.29997 
        1.65059         54.7617         9.21679 
        1.65673         54.6063         9.13472 
        1.66285          54.354         9.05388 
        1.66898         54.0577         8.97399 
        1.67512         53.7652         8.89492 
        1.68127         53.4567         8.81672 
         1.6874         53.3534         8.73964 
        1.69353         52.9939         8.66353 
        1.69967         52.7734         8.58814 
        1.70581         52.6871         8.51369 
        1.71193         52.3504          8.4404 
        1.71806         51.9235         8.36781 
        1.72421         51.8197         8.29594 
        1.73035          51.496         8.22499 
        1.73649         51.1465         8.15489 
        1.74262         51.0837         8.08565 
        1.74876          50.902         8.01718 
        1.75489         50.5432         7.94964 
        1.76101         50.3833         7.88289 
        1.76715         50.0732         7.81682 
        1.77329         49.8405         7.75143 
        1.77943         49.6709         7.68676 
        1.78557         49.4807         7.62292 
        1.79171         49.1423         7.55979 
        1.79785         48.9418         7.49737 
        1.80399         48.7423         7.43566 
        1.81012         48.5807         7.37474 
        1.81625         48.1318         7.31452 
        1.82239         48.0071         7.25488 
        1.82853         47.6483         7.19594 
        1.83466          47.593         7.13771 
        1.84078          47.186         7.08019 
        1.84692         47.0475         7.02321 
        1.85306         46.8488         6.96678 
         1.8592         46.6059         6.91107 
        1.86533         46.4016         6.85599 
        1.87147         46.2291         6.80145 
        1.87761         46.0601         6.74748 
        1.88375         45.8155         6.69416 
        1.88988         45.7638         6.64148 
        1.89601          45.379         6.58933 
        1.90215         45.2069          6.5377 
        1.90829         45.0924         6.48664 
        1.91442         44.8264         6.43613 
        1.92056         44.6203         6.38621 
         1.9267         44.2911         6.33676 
        1.93284         44.1161          6.2878 
        1.93897          43.994         6.23946 
        1.94509         43.7078         6.19172 
        1.95123         43.6092         6.14437 
        1.95737         43.3503         6.09748 
        1.96349         43.1452         6.05119 
        1.96964         42.9808         6.00526 
        1.97578         42.7819         5.95978 
        1.98192         42.5795         5.91486 
        1.98805         42.4195          5.8704 
        1.99419         42.1109         5.82639 
        2.00033         41.9533         5.78282 
        2.00647         41.8063          5.7397 
         2.0126         41.5971         5.69709 
        2.01874         41.4336         5.65485 
        2.02488         41.3111           5.613 
        2.03101         41.0227         5.57165 
        2.03714         40.8476         5.53076 
        2.04328         40.6309         5.49023 
        2.04941         40.4506         5.45014 
        2.05554         40.2261         5.41048 
        2.06167         40.1613         5.37116 
        2.06781         39.9359         5.33222 
        2.07396         39.7237         5.29362 
        2.08009         39.5862         5.25546 
        2.08622         39.3675         5.21772 
        2.09237         39.1898         5.18028 
        2.09851         38.9686          5.1432 
        2.10464         38.8685         5.10654 
        2.11077         38.6892         5.07029 
        2.11691         38.5177         5.03431 
        2.12305         38.2794         4.99867 
        2.12918         38.2142         4.96346 
        2.13531         37.9788         4.92859 
        2.14145         37.8839         4.89398 
         2.1476         37.6274         4.85965 
        2.15372           37.43         4.82583 
        2.15985         37.3377          4.7923 
        2.16599         37.2593         4.75898 
        2.17213          37.149         4.72602 
        2.17827         36.8014         4.69338 
         2.1844         36.6473         4.66108 
        2.19054          36.475         4.62907 
        2.19666         36.3445          4.5974 
         2.2028         36.2065         4.56601 
        2.20893          36.081         4.53489 
        2.21508         35.8897         4.50402 
        2.22122         35.6825         4.47344 
        2.22736         35.5588          4.4432 
        2.23349         35.4323         4.41324 
        2.23962         35.2124         4.38355 
        2.24577         35.0435          4.3541 
         2.2519         34.8985         4.32497 
        2.25802         34.8086         4.29615 
        2.26417         34.6331         4.26751 
        2.27031         34.5322          4.2391 
        2.27644         34.2831         4.21104 
        2.28257          34.179         4.18323 
        2.28872         33.9964         4.15562 
        2.29486         33.9123         4.12826 
        2.30099          33.777         4.10121 
        2.30712         33.6024         4.07438 
        2.31326          33.492         4.04775 
         2.3194         33.3345         4.02138 
        2.32553         33.1426         3.99528 
        2.33166         32.9974         3.96943 
         2.3378         32.8888         3.94376 
        2.34394           32.67         3.91832 
        2.35007         32.5548         3.89314 
        2.35619         32.5144         3.86821 
        2.36233         32.3735         3.84343 
        2.36848         32.1287         3.81883 
        2.37462         32.0658         3.79449 
        2.38075         31.8833         3.77038 
        2.38689         31.8077         3.74647 
        2.39303         31.6379         3.72276 
        2.39916         31.4498         3.69929 
        2.40529         31.2628         3.67602 
        2.41143         31.2071         3.65293 
        2.41757         31.0825         3.63003 
         2.4237         30.9318         3.60737 
        2.42983         30.8311         3.58491 
        2.43598         30.6571         3.56257 
        2.44211          30.546         3.54047 
        2.44823         30.3873          3.5186 
        2.45437         30.3161         3.49685 
        2.46052         30.1424         3.47527 
        2.46665         30.0444         3.45391 
        2.47279         29.9272         3.43274 
        2.47892          29.734         3.41173 
        2.48507         29.6282         3.39087 
         2.4912         29.5215         3.37023 
