# k  (h/Mpc)    Pcb(k)  (Mpc/h)^3    Pcb_linear(k)  (Mpc/h)^3
     0.00783031         8811.59         8922.76 
       0.013688         9922.63         9871.13 
       0.019231         9075.47         9046.97 
      0.0249154         7442.08          7525.2 
      0.0312784         5775.47         5781.11 
      0.0375637         4465.54         4428.25 
      0.0433917         3586.24         3590.42 
      0.0492413         3104.48         3087.85 
      0.0555754         2763.73          2793.8 
      0.0619321         2646.61         2615.85 
       0.067871         2429.19          2450.8 
      0.0738098         2215.73         2232.98 
      0.0800417         1924.56         1946.07 
      0.0862327         1644.89         1641.51 
      0.0921407         1404.61         1379.07 
      0.0982031          1188.8          1170.3 
       0.104506         1071.19         1027.67 
       0.110769         987.084         949.985 
       0.116806         940.147         913.805 
       0.122832         916.601          891.07 
       0.129052          867.61         859.358 
       0.135211         817.567         807.143 
       0.141259          759.07         736.013 
       0.147318         686.342         654.976 
       0.153489         605.874          575.94 
       0.159709         549.074         510.813 
       0.165845         510.162         465.562 
       0.171974         477.227         438.057 
       0.178125         460.464         423.028 
       0.184229         447.135         413.594 
        0.19034         424.168         402.953 
       0.196428         414.191         386.771 
       0.202534         396.701         363.892 
       0.208729         368.104         335.991 
       0.214876         340.538         307.472 
       0.220989         319.783         281.983 
       0.227147         299.539         261.548 
        0.23329         284.367         246.958 
       0.239377         276.625         237.272 
       0.245482         259.648         230.445 
       0.251667         257.511         224.278 
       0.257832         249.237         217.122 
       0.263955           239.4         208.143 
       0.270079           227.9         197.404 
        0.27624         221.358         185.744 
       0.282372         211.433         174.423 
        0.28843         201.305         164.497 
       0.294538         191.258         156.267 
       0.300721         187.791         149.761 
        0.30691         179.085         144.675 
       0.313033         174.739         140.394 
       0.319153         167.494          136.24 
       0.325316         163.848         131.715 
        0.33145         157.334         126.718 
       0.337538         154.012         121.371 
       0.343633         147.828         115.928 
       0.349808         142.512         110.665 
       0.355968         139.254         105.918 
       0.362074         135.128         101.854 
       0.368217         130.932         98.3474 
       0.374374         126.427         95.2893 
       0.380519         124.096         92.4828 
       0.386598          120.71         89.7574 
       0.392688         118.396         86.9787 
        0.39888          115.13         84.0488 
       0.405048         111.802         81.0804 
       0.411186         109.083          78.172 
       0.417313         106.252          75.397 
       0.423458         103.619         72.8227 
       0.429607         101.074         70.4857 
       0.435692         97.5186         68.3787 
       0.441815         96.5151         66.4234 
       0.447964         94.5792         64.5687 
       0.454126         90.3821         62.7559 
       0.460267         89.2292         60.9604 
       0.466387         87.6442         59.1836 
        0.47254         85.5694         57.4172 
       0.478662         84.7273          55.701 
       0.484765         81.8197         54.0608 
       0.490885         80.3153           52.51 
       0.497035         79.2228         51.0468 
       0.503198         76.8767         49.6654 
       0.509342         75.3407          48.361 
       0.515458         74.0406         47.1189 
       0.521598         72.6803         45.9103 
       0.527764         71.5949         44.7199 
       0.533884         70.4799         43.5606 
           0.54         68.8128         42.4308 
       0.546137         68.0755         41.3325 
       0.552299         66.8621         40.2697 
       0.558452          65.246         39.2506 
       0.564573         64.0773         38.2795 
       0.570708         62.9917         37.3496 
       0.576825         62.1386         36.4612 
       0.582926         60.6554         35.6069 
       0.589034         59.6087         34.7769 
       0.595184         58.7286         33.9616 
       0.601379         57.7066         33.1613 
       0.607522          56.447           32.39 
       0.613639         56.1119         31.6455 
       0.619772          54.893         30.9238 
       0.625918         54.1176         30.2248 
       0.632068         53.4334         29.5487 
       0.638161         52.7305         28.9005 
         0.6443         51.9568         28.2683 
       0.650464         51.2612         27.6535 
       0.656582         50.4233         27.0618 
       0.662703         49.4493         26.4873 
       0.668861         48.7392         25.9258 
       0.675024         48.1862         25.3793 
       0.681124         47.4797         24.8531 
       0.687237         46.5243         24.3402 
       0.693381         46.0239         23.8391 
       0.699536           45.36         23.3513 
       0.705665         45.3494         22.8797 
       0.711789         44.2216         22.4221 
       0.717957         43.7386         21.9745 
        0.72409         43.0509          21.542 
       0.730186         42.3813          21.124 
       0.736317         42.1968         20.7149 
       0.742472         41.6135         20.3151 
       0.748622         41.0281         19.9259 
        0.75476         40.5903         19.5475 
       0.760888         39.9445         19.1794 
       0.767043         39.4881         18.8192 
       0.773185         38.9792          18.469 
       0.779291         38.6507         18.1297 
       0.785407         38.2631         17.7985 
       0.791564         37.8371         17.4735 
       0.797719         37.0656          17.157 
       0.803834         36.9092         16.8503 
       0.809972         36.2386         16.5501 
       0.816124         35.9078         16.2566 
       0.822261         35.5738         15.9711 
       0.828378         35.3542         15.6933 
       0.834502         34.8616         15.4218 
       0.840667          34.482         15.1551 
       0.846816         33.9364         14.8954 
       0.852925         33.6822         14.6434 
       0.859047         33.2075         14.3967 
       0.865192         32.9323          14.155 
       0.871341         32.7636         13.9186 
       0.877463         32.1231         13.6886 
       0.883569          31.871         13.4645 
       0.889708         31.6051         13.2442 
       0.895864         31.2826         13.0283 
       0.902008         30.9832         12.8176 
       0.908149         30.6912         12.6117 
       0.914301         30.4691         12.4101 
       0.920448         30.1757          12.213 
       0.926574         29.7684         12.0209 
       0.932687         29.5812         11.8333 
       0.938823         29.1507         11.6491 
       0.944975         28.9561         11.4684 
       0.951105         28.6684         11.2921 
       0.957225         28.3029         11.1199 
       0.963368         28.3057         10.9507 
       0.969511         27.9585          10.785 
       0.975621         27.7841         10.6236 
       0.981748         27.3774         10.4651 
       0.987916         27.1525         10.3089 
        0.99406         26.9722         10.1564 
        1.00019         26.6833         10.0074 
        1.00632         26.4843         9.86141 
        1.01246         26.3482         9.71816 
        1.01859         25.9412         9.57799 
        1.02471         25.8591         9.44076 
        1.03085         25.6319         9.30574 
        1.03698         25.2989         9.17365 
        1.04314         25.1463         9.04357 
        1.04929          24.908         8.91631 
        1.05541         24.6611         8.79201 
        1.06154         24.5958         8.66978 
        1.06769         24.3396         8.54968 
        1.07382         24.1894         8.43225 
        1.07993         24.0227         8.31729 
        1.08607         23.7714         8.20399 
        1.09222         23.6154         8.09269 
        1.09836         23.4003         7.98358 
        1.10449         23.2352          7.8766 
        1.11063         22.9386         7.77147 
        1.11677         22.8322         7.66829 
         1.1229         22.6707         7.56716 
        1.12903         22.3999         7.46777 
        1.13518         22.4188         7.37007 
        1.14131          22.226         7.27418 
        1.14745         21.9308         7.18005 
        1.15359         21.8937         7.08756 
        1.15973         21.6233         6.99666 
        1.16584         21.4812         6.90776 
        1.17197         21.3762         6.82028 
        1.17811         21.1956         6.73405 
        1.18424          21.012         6.64955 
        1.19038         20.9202         6.56626 
        1.19652         20.8455         6.48443 
        1.20267         20.6615         6.40399 
        1.20881         20.4775         6.32493 
        1.21495         20.3374         6.24733 
        1.22108         20.2019         6.17105 
         1.2272         20.0067         6.09621 
        1.23334         19.9372         6.02245 
        1.23949          19.848         5.94972 
        1.24562         19.6268          5.8784 
        1.25174         19.5631         5.80836 
        1.25789          19.401         5.73923 
        1.26402         19.2443         5.67136 
        1.27014         19.0749         5.60475 
        1.27628           18.98         5.53901 
        1.28244         18.8991         5.47419 
        1.28858         18.7782          5.4105 
        1.29471         18.6695         5.34796 
        1.30084         18.5399         5.28647 
        1.30697         18.4423         5.22585 
        1.31312         18.2839         5.16608 
        1.31925         18.1586         5.10744 
        1.32537         18.0523         5.04977 
        1.33151         17.9463         4.99278 
        1.33765         17.8685          4.9367 
        1.34378         17.7198         4.88158 
        1.34992         17.5856         4.82727 
        1.35606         17.5082         4.77366 
         1.3622         17.4325         4.72097 
        1.36833         17.2653         4.66919 
        1.37445         17.2389         4.61821 
        1.38059         17.0822         4.56783 
        1.38675         16.8946         4.51809 
        1.39288         16.8875         4.46928 
        1.39901         16.7624         4.42121 
        1.40515         16.6774         4.37374 
         1.4113         16.5744         4.32699 
        1.41742         16.4569         4.28109 
        1.42355         16.4198         4.23578 
         1.4297         16.3132         4.19098 
        1.43585         16.2451         4.14685 
        1.44198         16.0992         4.10352 
        1.44809         16.0054         4.06089 
        1.45423         15.9212          4.0187 
        1.46036         15.8852         3.97719 
        1.46649         15.7636         3.93626 
        1.47263         15.6522         3.89586 
        1.47877         15.6087         3.85605 
        1.48491         15.5783         3.81673 
        1.49104         15.4263         3.77804 
        1.49718         15.3101         3.73986 
        1.50333          15.279         3.70214 
        1.50947         15.1846         3.66502 
         1.5156         15.1183         3.62846 
        1.52172         15.0312          3.5924 
        1.52787         14.9399         3.55675 
          1.534         14.8467         3.52163 
        1.54013          14.754         3.48702 
        1.54627         14.7034         3.45281 
        1.55241         14.5759         3.41905 
        1.55855         14.5262         3.38579 
        1.56467          14.434         3.35306 
         1.5708         14.4153         3.32067 
        1.57695         14.2928         3.28865 
        1.58308         14.2378         3.25713 
        1.58922         14.1752           3.226 
        1.59535         14.0819         3.19529 
         1.6015         14.0122         3.16494 
        1.60764         13.9779         3.13499 
        1.61376         13.8209         3.10551 
        1.61989         13.7847         3.07638 
        1.62604         13.7618         3.04757 
        1.63218         13.6798         3.01913 
        1.63831         13.6141         2.99113 
        1.64444         13.5243         2.96347 
        1.65059         13.4556         2.93609 
        1.65673         13.3639         2.90909 
        1.66285         13.3596          2.8825 
        1.66898         13.2915         2.85623 
        1.67512         13.2202         2.83024 
        1.68127         13.1547         2.80455 
         1.6874         13.0764         2.77923 
        1.69353         13.0151         2.75424 
        1.69967         12.9492          2.7295 
        1.70581         12.8795         2.70507 
        1.71193          12.845         2.68103 
        1.71806         12.7583         2.65723 
        1.72421         12.7044         2.63367 
        1.73035         12.6192         2.61043 
        1.73649          12.619         2.58747 
        1.74262         12.5468          2.5648 
        1.74876         12.5073         2.54239 
        1.75489         12.4197         2.52029 
        1.76101          12.354         2.49846 
        1.76715         12.3077         2.47685 
        1.77329         12.2718         2.45548 
        1.77943         12.1929         2.43435 
        1.78557         12.1574         2.41349 
        1.79171         12.0838         2.39288 
        1.79785         12.0077          2.3725 
        1.80399         11.9839         2.35236 
        1.81012         11.9446         2.33248 
        1.81625         11.8914         2.31284 
        1.82239           11.83         2.29339 
        1.82853         11.7517         2.27418 
        1.83466         11.6988          2.2552 
        1.84078         11.6399         2.23646 
        1.84692         11.6264         2.21791 
        1.85306         11.5542         2.19954 
         1.8592         11.5018          2.1814 
        1.86533         11.4595         2.16348 
        1.87147         11.4129         2.14574 
        1.87761         11.3742         2.12819 
        1.88375         11.3239         2.11086 
        1.88988         11.2533         2.09373 
        1.89601         11.2055         2.07679 
        1.90215          11.175         2.06002 
        1.90829         11.1199         2.04344 
        1.91442         11.0716         2.02705 
        1.92056         11.0272         2.01084 
         1.9267         10.9651          1.9948 
        1.93284         10.9166         1.97892 
        1.93897         10.8874         1.96325 
        1.94509         10.8391         1.94778 
        1.95123         10.8054         1.93243 
        1.95737         10.7543         1.91724 
        1.96349         10.7025         1.90225 
        1.96964         10.6556         1.88737 
        1.97578         10.6073         1.87265 
        1.98192         10.5637         1.85812 
        1.98805         10.5344         1.84373 
        1.99419         10.4845          1.8295 
        2.00033         10.3989         1.81541 
        2.00647         10.3738         1.80147 
         2.0126         10.3574          1.7877 
        2.01874         10.2992         1.77406 
        2.02488         10.2635         1.76054 
        2.03101         10.2216         1.74719 
        2.03714         10.1921         1.73399 
        2.04328         10.1221         1.72091 
        2.04941          10.088         1.70797 
        2.05554         10.0655         1.69518 
        2.06167         10.0228          1.6825 
        2.06781         9.98239         1.66995 
        2.07396         9.95151          1.6575 
        2.08009         9.92054         1.64521 
        2.08622         9.83744         1.63305 
        2.09237         9.83081         1.62099 
        2.09851         9.78457         1.60905 
        2.10464         9.73215         1.59725 
        2.11077         9.70522         1.58558 
        2.11691         9.66428           1.574 
        2.12305         9.65423         1.56254 
        2.12918         9.58292         1.55122 
        2.13531         9.54775            1.54 
        2.14145         9.51515         1.52888 
         2.1476         9.49541         1.51785 
        2.15372         9.44414         1.50698 
        2.15985         9.39678         1.49621 
        2.16599         9.37941         1.48551 
        2.17213          9.3258         1.47493 
        2.17827         9.29623         1.46445 
         2.1844         9.25454         1.45409 
        2.19054         9.24661         1.44382 
        2.19666         9.21954         1.43366 
         2.2028         9.16547         1.42359 
        2.20893         9.12626         1.41361 
        2.21508         9.07652         1.40372 
        2.22122         9.03482         1.39392 
        2.22736         9.02922         1.38423 
        2.23349         8.98533         1.37464 
        2.23962         8.95217         1.36513 
        2.24577         8.92016          1.3557 
         2.2519         8.88531         1.34637 
        2.25802         8.86368         1.33715 
        2.26417          8.8334         1.32799 
        2.27031         8.76899          1.3189 
        2.27644         8.76551         1.30993 
        2.28257         8.72557         1.30104 
        2.28872          8.6983         1.29221 
        2.29486         8.66418         1.28347 
        2.30099         8.64047         1.27482 
        2.30712         8.60686         1.26625 
        2.31326         8.56499         1.25775 
         2.3194         8.54146         1.24933 
        2.32553         8.51386           1.241 
        2.33166         8.46577         1.23275 
         2.3378          8.4386         1.22456 
        2.34394          8.4182         1.21644 
        2.35007         8.37456         1.20841 
        2.35619         8.33472         1.20046 
        2.36233         8.32168         1.19256 
        2.36848         8.30804         1.18472 
        2.37462         8.27084         1.17696 
        2.38075         8.22241         1.16928 
        2.38689         8.21488         1.16166 
        2.39303         8.17251         1.15411 
        2.39916         8.14943         1.14664 
        2.40529         8.12481         1.13923 
        2.41143         8.09465         1.13188 
        2.41757          8.0639         1.12459 
         2.4237         8.04457         1.11738 
        2.42983         8.00441         1.11024 
        2.43598         7.98505         1.10313 
        2.44211         7.95588          1.0961 
        2.44823         7.92192         1.08915 
        2.45437         7.90747         1.08224 
        2.46052         7.86463         1.07538 
        2.46665         7.84188         1.06859 
        2.47279         7.80061         1.06187 
        2.47892         7.78139          1.0552 
        2.48507         7.75515         1.04857 
         2.4912         7.74301         1.04202 
