# k  (h/Mpc)    Pcb(k)  (Mpc/h)^3    Pcb_linear(k)  (Mpc/h)^3
     0.00783031         1896.06         1916.37 
       0.013688          2119.2         2121.24 
       0.019231         1946.06         1944.56 
      0.0249154         1610.09         1617.67 
      0.0312784         1244.96         1242.84 
      0.0375637         957.608         952.045 
      0.0433917         773.198         771.941 
      0.0492413         666.701         663.901 
      0.0555754         598.253          600.69 
      0.0619321         566.081         562.435 
       0.067871         524.959         526.952 
      0.0738098         478.486         480.121 
      0.0800417         416.343         418.435 
      0.0862327         353.536         352.952 
      0.0921407         298.441         296.524 
      0.0982031         252.741         251.634 
       0.104506         224.528         220.969 
       0.110769         207.168         204.265 
       0.116806         197.866         196.486 
       0.122832         193.438         191.598 
       0.129052         185.005         184.779 
       0.135211         173.932         173.552 
       0.141259         159.812         158.258 
       0.147318         143.253         140.833 
       0.153489         125.942         123.839 
       0.159709         112.394         109.836 
       0.165845         103.448         100.106 
       0.171974         96.4621         94.1916 
       0.178125         93.4434         90.9603 
       0.184229         91.2469         88.9317 
        0.19034         87.8509         86.6438 
       0.196428         85.0083         83.1642 
       0.202534         80.8401         78.2448 
       0.208729         74.5116         72.2455 
       0.214876         68.2277         66.1133 
       0.220989         63.2502         60.6327 
       0.227147         58.5575         56.2387 
        0.23329         55.3823         53.1015 
       0.239377         53.4992         51.0188 
       0.245482         51.2758         49.5508 
       0.251667         50.4701         48.2249 
       0.257832         48.7932         46.6861 
       0.263955         46.8698         44.7555 
       0.270079         44.5379         42.4464 
        0.27624         42.4375         39.9392 
       0.282372         40.1402          37.505 
        0.28843         37.7861         35.3706 
       0.294538         35.9763         33.6009 
       0.300721         34.8457         32.2021 
        0.30691         33.3875         31.1085 
       0.313033         32.4264          30.188 
       0.319153           31.13         29.2947 
       0.325316         30.5785         28.3218 
        0.33145         29.3525         27.2472 
       0.337538         28.2877         26.0976 
       0.343633         26.9978         24.9271 
       0.349808         26.0042         23.7955 
       0.355968         25.0195         22.7747 
       0.362074         24.0877         21.9009 
       0.368217         23.2981          21.147 
       0.374374         22.5452         20.4894 
       0.380519         21.9875         19.8859 
       0.386598         21.4101         19.2999 
       0.392688         20.8884         18.7024 
        0.39888         20.1731         18.0725 
       0.405048          19.555         17.4342 
       0.411186         18.9591         16.8088 
       0.417313         18.2863         16.2121 
       0.423458          17.733         15.6586 
       0.429607         17.2013         15.1561 
       0.435692         16.6532          14.703 
       0.441815         16.2633         14.2826 
       0.447964         15.9427         13.8838 
       0.454126         15.3581          13.494 
       0.460267         15.0463         13.1079 
       0.466387         14.5528         12.7259 
        0.47254          14.249          12.346 
       0.478662         13.9511          11.977 
       0.484765         13.4614         11.6243 
       0.490885          13.129         11.2909 
       0.497035         12.9424         10.9763 
       0.503198         12.5525         10.6792 
       0.509342         12.2269         10.3987 
       0.515458          11.941         10.1317 
       0.521598         11.6896         9.87179 
       0.527764         11.3813         9.61583 
       0.533884         11.1935         9.36655 
           0.54         10.8986         9.12362 
       0.546137         10.6863         8.88745 
       0.552299         10.4669         8.65892 
       0.558452         10.1416          8.4398 
       0.564573         9.96949           8.231 
       0.570708         9.76205         8.03104 
       0.576825         9.50917         7.84002 
       0.582926         9.31518         7.65633 
       0.589034         9.06834         7.47784 
       0.595184         8.92434         7.30254 
       0.601379         8.71277         7.13047 
       0.607522         8.56774         6.96462 
       0.613639         8.43795         6.80453 
       0.619772         8.19623         6.64934 
       0.625918         8.12254         6.49905 
       0.632068         7.98276         6.35366 
       0.638161         7.77759         6.21429 
         0.6443         7.61529         6.07834 
       0.650464         7.45081         5.94615 
       0.656582          7.3821         5.81893 
       0.662703         7.23471          5.6954 
       0.668861         7.09318         5.57466 
       0.675024         6.94642         5.45714 
       0.681124         6.82043         5.34401 
       0.687237         6.70732         5.23372 
       0.693381           6.607         5.12597 
       0.699536          6.4201         5.02108 
       0.705665         6.35136         4.91967 
       0.711789         6.22788         4.82128 
       0.717957         6.11677         4.72504 
        0.72409         6.00738         4.63205 
       0.730186          5.9187         4.54217 
       0.736317         5.84918          4.4542 
       0.742472         5.74944         4.36822 
       0.748622         5.64965         4.28454 
        0.75476         5.53921         4.20318 
       0.760888         5.45035         4.12403 
       0.767043         5.37538         4.04658 
       0.773185         5.26608         3.97128 
       0.779291          5.2175         3.89831 
       0.785407         5.13165         3.82709 
       0.791564         5.05236         3.75723 
       0.797719         4.95189         3.68915 
       0.803834         4.91859         3.62322 
       0.809972         4.85078         3.55867 
       0.816124         4.75096         3.49556 
       0.822261         4.66315         3.43416 
       0.828378         4.60416         3.37443 
       0.834502          4.5664         3.31606 
       0.840667         4.47212          3.2587 
       0.846816         4.39186         3.20286 
       0.852925         4.35288         3.14868 
       0.859047         4.28887         3.09564 
       0.865192         4.24476         3.04365 
       0.871341         4.19259         2.99282 
       0.877463         4.12358         2.94338 
       0.883569         4.05133         2.89518 
       0.889708         3.98721         2.84781 
       0.895864         3.93243         2.80138 
       0.902008         3.89106         2.75609 
       0.908149         3.84998         2.71182 
       0.914301         3.78843         2.66846 
       0.920448         3.73334         2.62608 
       0.926574         3.68014         2.58477 
       0.932687         3.63385         2.54444 
       0.938823         3.58855         2.50483 
       0.944975         3.54321         2.46597 
       0.951105          3.4994         2.42807 
       0.957225         3.48068         2.39104 
       0.963368         3.43008         2.35465 
       0.969511         3.37855         2.31903 
       0.975621         3.33293         2.28433 
       0.981748         3.29547         2.25025 
       0.987916         3.25999         2.21665 
        0.99406         3.20054         2.18387 
        1.00019         3.16301         2.15182 
        1.00632         3.13965         2.12044 
        1.01246         3.09994         2.08964 
        1.01859         3.05507          2.0595 
        1.02471         3.02405         2.02999 
        1.03085         2.98556         2.00096 
        1.03698         2.94473         1.97255 
        1.04314         2.91902         1.94458 
        1.04929         2.88439         1.91722 
        1.05541         2.84873         1.89049 
        1.06154         2.81855         1.86421 
        1.06769         2.80255         1.83838 
        1.07382         2.75308         1.81313 
        1.07993         2.71905         1.78842 
        1.08607         2.70446         1.76405 
        1.09222         2.66658         1.74012 
        1.09836         2.63813         1.71666 
        1.10449         2.61369         1.69366 
        1.11063           2.576         1.67105 
        1.11677         2.55663         1.64887 
         1.1229         2.53139         1.62712 
        1.12903         2.49791         1.60575 
        1.13518         2.47138         1.58474 
        1.14131         2.44072         1.56412 
        1.14745         2.40716         1.54388 
        1.15359         2.39237         1.52399 
        1.15973          2.3596         1.50445 
        1.16584         2.33948         1.48533 
        1.17197         2.31481         1.46652 
        1.17811         2.30091         1.44798 
        1.18424          2.2726         1.42981 
        1.19038         2.25574          1.4119 
        1.19652          2.2285         1.39431 
        1.20267         2.20631         1.37701 
        1.20881         2.18861         1.36001 
        1.21495         2.16459         1.34333 
        1.22108         2.14349         1.32692 
         1.2272          2.1268         1.31083 
        1.23334         2.09927         1.29497 
        1.23949          2.0757         1.27933 
        1.24562         2.06271           1.264 
        1.25174         2.03899         1.24894 
        1.25789         2.02278         1.23407 
        1.26402         2.00248         1.21948 
        1.27014          1.9838         1.20516 
        1.27628          1.9688         1.19102 
        1.28244         1.94348         1.17708 
        1.28858         1.93274         1.16339 
        1.29471         1.90744         1.14994 
        1.30084          1.8874         1.13672 
        1.30697         1.88325         1.12368 
        1.31312         1.85083         1.11083 
        1.31925         1.83802         1.09822 
        1.32537         1.81998         1.08582 
        1.33151         1.81191         1.07357 
        1.33765         1.78673         1.06151 
        1.34378         1.77691         1.04966 
        1.34992         1.76316         1.03798 
        1.35606          1.7363         1.02645 
         1.3622         1.73017         1.01512 
        1.36833         1.71146         1.00399 
        1.37445          1.6957        0.993025 
        1.38059         1.68978        0.982194 
        1.38675         1.67562        0.971497 
        1.39288         1.65894        0.961002 
        1.39901         1.63909        0.950667 
        1.40515         1.62665         0.94046 
         1.4113         1.61569        0.930407 
        1.41742         1.60111        0.920538 
        1.42355         1.58933        0.910794 
         1.4297         1.57419        0.901162 
        1.43585         1.56374        0.891672 
        1.44198         1.55309        0.882355 
        1.44809         1.53678        0.873188 
        1.45423         1.52419        0.864118 
        1.46036         1.50909        0.855193 
        1.46649         1.49994         0.84639 
        1.47263         1.48551        0.837704 
        1.47877         1.47324        0.829143 
        1.48491         1.46192        0.820689 
        1.49104         1.45135         0.81237 
        1.49718         1.44103        0.804159 
        1.50333         1.42867        0.796049 
        1.50947          1.4173        0.788067 
         1.5156         1.40597        0.780206 
        1.52172         1.39481        0.772452 
        1.52787         1.38339        0.764788 
          1.534         1.37147        0.757236 
        1.54013         1.36154        0.749793 
        1.54627         1.35171        0.742437 
        1.55241         1.33942        0.735178 
        1.55855         1.33103        0.728026 
        1.56467         1.32289        0.720988 
         1.5708         1.30978        0.714023 
        1.57695         1.30159         0.70714 
        1.58308         1.28962        0.700362 
        1.58922         1.28257        0.693669 
        1.59535           1.273        0.687065 
         1.6015         1.26194        0.680538 
        1.60764         1.25465        0.674098 
        1.61376         1.24651        0.667759 
        1.61989         1.23509        0.661497 
        1.62604         1.22541          0.6553 
        1.63218         1.22158        0.649187 
        1.63831         1.20817        0.643165 
        1.64444         1.20058        0.637217 
        1.65059         1.19211        0.631331 
        1.65673         1.18287        0.625524 
        1.66285         1.17461        0.619807 
        1.66898         1.16915        0.614159 
        1.67512         1.15679         0.60857 
        1.68127         1.14886        0.603046 
         1.6874         1.14574        0.597602 
        1.69353         1.13121        0.592229 
        1.69967         1.12366        0.586908 
        1.70581          1.1203        0.581656 
        1.71193         1.10929        0.576487 
        1.71806         1.10495        0.571369 
        1.72421         1.09618        0.566304 
        1.73035          1.0885        0.561306 
        1.73649         1.08132        0.556368 
        1.74262         1.07363        0.551494 
        1.74876         1.06758        0.546675 
        1.75489         1.05664        0.541923 
        1.76101         1.05048        0.537229 
        1.76715         1.04605        0.532584 
        1.77329         1.03928        0.527988 
        1.77943         1.02933        0.523444 
        1.78557         1.02235        0.518959 
        1.79171         1.01981        0.514527 
        1.79785         1.00946        0.510144 
        1.80399         1.00445        0.505814 
        1.81012        0.998093         0.50154 
        1.81625        0.992191        0.497316 
        1.82239         0.98477        0.493135 
        1.82853        0.975556        0.489004 
        1.83466        0.971237        0.484924 
        1.84078        0.966326        0.480894 
        1.84692        0.960724        0.476904 
        1.85306        0.953296        0.472954 
         1.8592        0.946448        0.469054 
        1.86533        0.941016        0.465201 
        1.87147        0.935655        0.461386 
        1.87761        0.929428        0.457613 
        1.88375        0.923216        0.453886 
        1.88988        0.919589        0.450204 
        1.89601        0.912262        0.446561 
        1.90215        0.903712        0.442955 
        1.90829        0.898251         0.43939 
        1.91442        0.896042        0.435865 
        1.92056        0.889047        0.432381 
         1.9267        0.883147        0.428931 
        1.93284        0.881118        0.425517 
        1.93897        0.873288        0.422146 
        1.94509        0.868474        0.418819 
        1.95123         0.86185         0.41552 
        1.95737        0.856792        0.412253 
        1.96349        0.852591         0.40903 
        1.96964        0.848207        0.405831 
        1.97578        0.840917        0.402666 
        1.98192        0.837005         0.39954 
        1.98805        0.832507        0.396448 
        1.99419        0.829404        0.393387 
        2.00033        0.824845        0.390358 
        2.00647        0.817334        0.387361 
         2.0126        0.814105          0.3844 
        2.01874        0.807659        0.381466 
        2.02488        0.804746        0.378559 
        2.03101        0.797783        0.375688 
        2.03714        0.793879         0.37285 
        2.04328        0.790625        0.370037 
        2.04941        0.784053        0.367256 
        2.05554        0.780192        0.364505 
        2.06167        0.775382        0.361779 
        2.06781        0.772538        0.359079 
        2.07396        0.767797        0.356404 
        2.08009        0.763051         0.35376 
        2.08622        0.759057        0.351145 
        2.09237        0.753865        0.348552 
        2.09851        0.750088        0.345985 
        2.10464        0.747791        0.343448 
        2.11077        0.742159        0.340939 
        2.11691        0.737842        0.338449 
        2.12305        0.734295        0.335984 
        2.12918        0.730192         0.33355 
        2.13531        0.725231        0.331139 
        2.14145        0.722351        0.328746 
         2.1476        0.716359        0.326374 
        2.15372        0.714172        0.324038 
        2.15985        0.709119        0.321722 
        2.16599        0.705707        0.319421 
        2.17213        0.700066        0.317146 
        2.17827        0.698887        0.314893 
         2.1844        0.695253        0.312664 
        2.19054        0.692184        0.310456 
        2.19666        0.687559        0.308272 
         2.2028        0.684016        0.306107 
        2.20893        0.681416        0.303962 
        2.21508        0.676887        0.301835 
        2.22122        0.671224        0.299727 
        2.22736        0.669373        0.297644 
        2.23349        0.667158        0.295581 
        2.23962        0.661675        0.293536 
        2.24577        0.659685        0.291509 
         2.2519        0.655327        0.289504 
        2.25802        0.651862        0.287521 
        2.26417        0.648684         0.28555 
        2.27031        0.645992        0.283597 
        2.27644         0.64182        0.281667 
        2.28257        0.638079        0.279755 
        2.28872        0.635695        0.277857 
        2.29486        0.631639        0.275977 
        2.30099        0.628176        0.274119 
        2.30712        0.625241        0.272276 
        2.31326        0.623118        0.270448 
         2.3194        0.620937        0.268637 
        2.32553        0.617754        0.266845 
        2.33166         0.61321        0.265071 
         2.3378        0.609862         0.26331 
        2.34394        0.605966        0.261565 
        2.35007        0.604053        0.259838 
        2.35619        0.601808        0.258128 
        2.36233        0.597003         0.25643 
        2.36848        0.594788        0.254744 
        2.37462        0.592366        0.253076 
        2.38075        0.589734        0.251424 
        2.38689        0.586781        0.249786 
        2.39303        0.582621        0.248163 
        2.39916        0.580971        0.246556 
        2.40529        0.577913        0.244963 
        2.41143        0.574997        0.243383 
        2.41757        0.572781        0.241816 
         2.4237        0.570783        0.240265 
        2.42983        0.566734        0.238729 
        2.43598        0.564825        0.237201 
        2.44211        0.562612         0.23569 
        2.44823        0.559266        0.234195 
        2.45437        0.556465        0.232708 
        2.46052        0.554993        0.231234 
        2.46665        0.551306        0.229775 
        2.47279        0.548641        0.228328 
        2.47892        0.545226        0.226894 
        2.48507        0.544234         0.22547 
         2.4912        0.540519        0.224061 
