# k  (h/Mpc)    Pcb(k)  (Mpc/h)^3    Pcb_linear(k)  (Mpc/h)^3
     0.00783031         16446.6         16693.1 
       0.013688         18990.9         18807.3 
       0.019231         17621.6         17548.2 
      0.0249154         14733.7         14990.4 
      0.0312784         11975.5         12040.7 
      0.0375637         9829.06         9762.84 
      0.0433917         8270.97         8343.78 
      0.0492413         7443.49         7446.66 
      0.0555754         6659.28         6809.08 
      0.0619321         6314.19          6259.6 
       0.067871         5592.49         5685.05 
      0.0738098         4967.13         5029.61 
      0.0800417         4255.41         4323.08 
      0.0862327         3708.05         3698.71 
      0.0921407         3318.43         3235.98 
      0.0982031         2959.93         2908.55 
       0.104506         2816.54          2695.3 
       0.110769         2644.44         2555.39 
       0.116806         2502.72         2433.58 
       0.122832         2362.99         2288.07 
       0.129052         2142.57         2102.44 
       0.135211         1965.41         1898.11 
       0.141259         1826.47         1703.85 
       0.147318         1684.96         1538.33 
       0.153489         1537.52         1410.75 
       0.159709         1459.83         1321.73 
       0.165845         1409.02         1260.74 
       0.171974         1342.16         1210.76 
       0.178125         1279.49         1158.06 
       0.184229         1215.98         1096.17 
        0.19034         1128.46         1025.14 
       0.196428         1088.38         951.214 
       0.202534         1036.45         881.402 
       0.208729         975.857         820.849 
       0.214876         928.465         773.139 
       0.220989         894.826         736.463 
       0.227147         858.377         706.566 
        0.23329         824.025         679.356 
       0.239377          805.27         651.615 
       0.245482         748.983         621.557 
       0.251667          739.76         589.292 
       0.257832         706.816         557.108 
       0.263955         679.954         527.176 
       0.270079         651.621         500.645 
        0.27624         641.938         477.852 
       0.282372         616.733         458.492 
        0.28843         603.414         441.535 
       0.294538         571.876         425.442 
       0.300721         567.713         409.265 
        0.30691         541.853          392.83 
       0.313033         529.704         376.462 
       0.319153          513.93         360.489 
       0.325316          498.37         345.294 
        0.33145         483.075         331.427 
       0.337538         474.202         318.979 
       0.343633         459.753         307.669 
       0.349808         442.594         297.078 
       0.355968         438.469         287.024 
       0.362074         431.361         277.341 
       0.368217         418.415         267.752 
       0.374374         399.753          258.34 
       0.380519          397.76         249.255 
       0.386598         386.607         240.683 
       0.392688         383.128         232.611 
        0.39888         372.155         224.936 
       0.405048         363.813         217.773 
       0.411186         357.629         211.044 
       0.417313         350.244          204.62 
       0.423458         342.387         198.394 
       0.429607         337.124         192.356 
       0.435692          327.97         186.565 
       0.441815         324.449         180.934 
       0.447964         317.376         175.513 
       0.454126         309.554         170.335 
       0.460267         303.749          165.42 
       0.466387         299.876         160.751 
        0.47254         293.907         156.265 
       0.478662         292.871          151.98 
       0.484765         282.012         147.856 
       0.490885         279.071         143.856 
       0.497035         273.852         139.971 
       0.503198         269.375         136.215 
       0.509342         267.332         132.606 
       0.515458         263.545         129.148 
       0.521598          256.79          125.81 
       0.527764         253.464          122.59 
       0.533884          250.69         119.513 
           0.54         246.904         116.547 
       0.546137         245.374         113.669 
       0.552299         240.147         110.873 
       0.558452         238.754         108.173 
       0.564573         235.287         105.576 
       0.570708         230.094         103.058 
       0.576825          226.29         100.631 
       0.582926         223.869         98.2897 
       0.589034         221.573         96.0226 
       0.595184         219.505         93.8149 
       0.601379         215.867         91.6639 
       0.607522         212.809         89.5985 
       0.613639         211.016         87.6055 
       0.619772         206.799         85.6676 
       0.625918         205.545         83.7839 
       0.632068         202.108         81.9557 
       0.638161         201.013         80.1986 
         0.6443         197.771         78.4812 
       0.650464         195.784          76.809 
       0.656582         193.273         75.1984 
       0.662703         192.827         73.6345 
       0.668861         189.457         72.1067 
       0.675024          186.77         70.6213 
       0.681124         185.473          69.193 
       0.687237         183.203         67.8013 
       0.693381         180.268         66.4416 
       0.699536         178.829          65.117 
       0.705665         177.169         63.8345 
       0.711789         175.348          62.588 
       0.717957         174.735         61.3667 
        0.72409         172.424         60.1851 
       0.730186         170.231         59.0421 
       0.736317         168.269         57.9229 
       0.742472         167.072         56.8288 
       0.748622         165.606         55.7642 
        0.75476         163.933         54.7293 
       0.760888         162.142         53.7224 
       0.767043         161.668          52.737 
       0.773185         160.134         51.7784 
       0.779291         156.958         50.8493 
       0.785407         156.458         49.9418 
       0.791564          155.07         49.0509 
       0.797719          152.47         48.1823 
       0.803834         151.684         47.3403 
       0.809972         150.923         46.5156 
       0.816124         150.009         45.7089 
       0.822261         148.664         44.9236 
       0.828378         147.073         44.1593 
       0.834502         146.515         43.4122 
       0.840667         144.439         42.6777 
       0.846816         143.062         41.9624 
       0.852925         142.378          41.268 
       0.859047         141.078          40.588 
       0.865192         139.366         39.9212 
       0.871341         138.279         39.2691 
       0.877463         137.122         38.6345 
       0.883569         136.856         38.0157 
       0.889708         135.236         37.4073 
       0.895864         133.858         36.8108 
       0.902008         132.946         36.2287 
       0.908149         132.556         35.6595 
       0.914301          130.76         35.1017 
       0.920448         129.923         34.5565 
       0.926574         128.898         34.0248 
       0.932687         128.883         33.5055 
       0.938823          126.95         32.9952 
       0.944975         126.113         32.4945 
       0.951105         125.259          32.006 
       0.957225         124.306         31.5285 
       0.963368          122.52         31.0591 
       0.969511         122.306         30.5993 
       0.975621         121.316         30.1513 
       0.981748         121.106         29.7112 
       0.987916          119.78         29.2772 
        0.99406          118.75         28.8535 
        1.00019         118.556          28.439 
        1.00632         117.208         28.0332 
        1.01246         116.602         27.6346 
        1.01859         115.982         27.2445 
        1.02471         114.552         26.8625 
        1.03085         113.576         26.4865 
        1.03698         113.196         26.1185 
        1.04314         111.945         25.7559 
        1.04929         111.633         25.4011 
        1.05541         110.878         25.0545 
        1.06154         110.163         24.7134 
        1.06769         109.854         24.3783 
        1.07382         108.712         24.0504 
        1.07993         107.998         23.7294 
        1.08607         107.243         23.4129 
        1.09222         106.976          23.102 
        1.09836         105.994          22.797 
        1.10449         104.986          22.498 
        1.11063         104.302          22.204 
        1.11677         103.769         21.9153 
         1.1229         103.025         21.6324 
        1.12903         102.578         21.3542 
        1.13518         102.137         21.0807 
        1.14131         101.124         20.8121 
        1.14745         100.791         20.5484 
        1.15359         99.9907         20.2893 
        1.15973         99.5555         20.0345 
        1.16584         98.5521         19.7853 
        1.17197          98.034           19.54 
        1.17811         97.5416         19.2981 
        1.18424         97.1193          19.061 
        1.19038          96.786         18.8272 
        1.19652         95.9159         18.5974 
        1.20267         95.2421         18.3715 
        1.20881         94.7597         18.1494 
        1.21495         93.9588         17.9314 
        1.22108         93.6407         17.7169 
         1.2272         92.7434         17.5065 
        1.23334         92.3511         17.2991 
        1.23949         91.8591         17.0945 
        1.24562         91.2319         16.8938 
        1.25174         90.7972         16.6966 
        1.25789         90.3134          16.502 
        1.26402         89.2458         16.3108 
        1.27014          89.003         16.1232 
        1.27628          88.663         15.9379 
        1.28244         88.2419         15.7552 
        1.28858         87.8572         15.5757 
        1.29471          87.056         15.3993 
        1.30084         86.8306         15.2258 
        1.30697         86.0118         15.0547 
        1.31312           85.59         14.8861 
        1.31925         85.0122         14.7205 
        1.32537         84.6568         14.5577 
        1.33151         83.9591         14.3967 
        1.33765         83.5724         14.2382 
        1.34378         83.1995         14.0825 
        1.34992         82.8814          13.929 
        1.35606         82.3593         13.7774 
         1.3622         81.6392         13.6284 
        1.36833         81.3627          13.482 
        1.37445         80.9216         13.3378 
        1.38059         80.2634         13.1952 
        1.38675         79.7883         13.0545 
        1.39288         79.7075         12.9163 
        1.39901         79.1284         12.7802 
        1.40515         78.5268         12.6458 
         1.4113         78.2246         12.5133 
        1.41742         77.8115         12.3833 
        1.42355         77.3776         12.2548 
         1.4297         77.0897         12.1279 
        1.43585         76.4846         12.0027 
        1.44198         76.0152         11.8798 
        1.44809         75.7462         11.7589 
        1.45423         75.4761         11.6392 
        1.46036         74.9806         11.5214 
        1.46649         74.4395         11.4052 
        1.47263         73.9652         11.2905 
        1.47877         73.7837         11.1775 
        1.48491         73.2104         11.0658 
        1.49104         73.0413         10.9558 
        1.49718         72.6212         10.8473 
        1.50333         72.2649         10.7401 
        1.50947         71.7679         10.6345 
         1.5156         71.4932         10.5305 
        1.52172         71.0196          10.428 
        1.52787         70.7097         10.3265 
          1.534         70.2157         10.2266 
        1.54013         69.8566         10.1281 
        1.54627         69.6578         10.0307 
        1.55241         69.1373         9.93453 
        1.55855         68.8386          9.8398 
        1.56467         68.5824         9.74656 
         1.5708         68.1247         9.65427 
        1.57695         68.0514         9.56304 
        1.58308         67.4867         9.47321 
        1.58922         67.1773         9.38446 
        1.59535         66.9446         9.29689 
         1.6015         66.4181         9.21032 
        1.60764         66.1784         9.12489 
        1.61376         65.8816         9.04078 
        1.61989         65.4896         8.95767 
        1.62604         65.1833         8.87542 
        1.63218         65.0043         8.79425 
        1.63831         64.2541         8.71429 
        1.64444         64.0414          8.6353 
        1.65059         63.8686          8.5571 
        1.65673         63.3791         8.47995 
        1.66285         63.1503         8.40398 
        1.66898         62.9497         8.32891 
        1.67512         62.3647         8.25461 
        1.68127         62.2662         8.18115 
         1.6874         61.8048         8.10876 
        1.69353         61.5014         8.03728 
        1.69967         61.2868          7.9665 
        1.70581         61.0121         7.89659 
        1.71193         60.7283          7.8278 
        1.71806         60.3499         7.75967 
        1.72421         60.0784         7.69223 
        1.73035         59.7951         7.62566 
        1.73649         59.5302         7.55989 
        1.74262         59.1482         7.49495 
        1.74876         58.9402         7.43073 
        1.75489         58.5922         7.36739 
        1.76101         58.3888         7.30482 
        1.76715         57.9203         7.24288 
        1.77329         57.7128         7.18159 
        1.77943         57.4079         7.12098 
        1.78557         57.2324         7.06116 
        1.79171         56.8326         7.00202 
        1.79785         56.4605         6.94354 
        1.80399         56.3575         6.88575 
        1.81012         56.0852         6.82869 
        1.81625         55.7725         6.77231 
        1.82239         55.4967         6.71647 
        1.82853         55.2428          6.6613 
        1.83466         55.0086          6.6068 
        1.84078         54.5958         6.55296 
        1.84692         54.4175         6.49964 
        1.85306         54.1263         6.44685 
         1.8592          53.934         6.39473 
        1.86533          53.627         6.34321 
        1.87147         53.2122         6.29221 
        1.87761         53.1397         6.24174 
        1.88375         52.8657         6.19189 
        1.88988         52.4923         6.14263 
        1.89601         52.3579         6.09388 
        1.90215         51.9359         6.04563 
        1.90829         51.7528         5.99792 
        1.91442         51.6016         5.95072 
        1.92056         51.3092         5.90408 
         1.9267         51.0569         5.85788 
        1.93284         50.7437         5.81216 
        1.93897          50.579         5.76701 
        1.94509            50.4         5.72243 
        1.95123         50.0928         5.67822 
        1.95737         49.8045         5.63444 
        1.96349         49.5576         5.59123 
        1.96964         49.3325         5.54836 
        1.97578         49.0646         5.50591 
        1.98192         49.0136           5.464 
        1.98805         48.6414         5.42251 
        1.99419         48.4026         5.38145 
        2.00033         48.2154          5.3408 
        2.00647         48.0332         5.30058 
         2.0126         47.6433         5.26084 
        2.01874         47.4575         5.22145 
        2.02488         47.3121         5.18243 
        2.03101          47.071         5.14388 
        2.03714          46.805         5.10576 
        2.04328         46.6092         5.06798 
        2.04941         46.3818         5.03061 
        2.05554         46.2086         4.99365 
        2.06167         46.0168         4.95701 
        2.06781         45.6842         4.92073 
        2.07396         45.5229         4.88476 
        2.08009         45.3884         4.84922 
        2.08622         45.0143         4.81406 
        2.09237          44.881         4.77919 
        2.09851         44.7744         4.74466 
        2.10464         44.4682         4.71053 
        2.11077         44.2461         4.67677 
        2.11691         43.9995         4.64328 
        2.12305         43.8694          4.6101 
        2.12918         43.7133         4.57733 
        2.13531         43.3649         4.54488 
        2.14145         43.1742         4.51267 
         2.1476         42.9802         4.48073 
        2.15372         42.7837         4.44926 
        2.15985         42.6388         4.41806 
        2.16599         42.4056         4.38707 
        2.17213         42.2674         4.35641 
        2.17827         42.0232         4.32606 
         2.1844         41.7688         4.29602 
        2.19054         41.5696         4.26625 
        2.19666         41.3763         4.23681 
         2.2028         41.3099         4.20762 
        2.20893         41.0528         4.17869 
        2.21508         40.8947            4.15 
        2.22122         40.7331         4.12157 
        2.22736         40.4815         4.09347 
        2.23349         40.3139         4.06563 
        2.23962         40.0732         4.03804 
        2.24577         39.8452         4.01069 
         2.2519         39.7033         3.98362 
        2.25802         39.5918         3.95685 
        2.26417         39.3459         3.93024 
        2.27031         39.2083         3.90386 
        2.27644         39.0037          3.8778 
        2.28257         38.7798         3.85198 
        2.28872         38.5607         3.82634 
        2.29486         38.4642         3.80094 
        2.30099           38.33         3.77582 
        2.30712          38.132         3.75092 
        2.31326         37.9036          3.7262 
         2.3194         37.7144         3.70172 
        2.32553         37.5397          3.6775 
        2.33166         37.3408         3.65351 
         2.3378         37.2216          3.6297 
        2.34394         37.0857         3.60609 
        2.35007         36.8924         3.58273 
        2.35619         36.6747          3.5596 
        2.36233         36.5108         3.53662 
        2.36848         36.4349         3.51379 
        2.37462         36.1641         3.49122 
        2.38075         36.0993         3.46887 
        2.38689         35.9222         3.44669 
        2.39303         35.6713         3.42471 
        2.39916         35.5153         3.40295 
        2.40529         35.4373         3.38137 
        2.41143         35.2674         3.35997 
        2.41757         35.0845         3.33875 
         2.4237         34.9307         3.31774 
        2.42983         34.7733         3.29692 
        2.43598         34.6367         3.27622 
        2.44211         34.4714         3.25574 
        2.44823         34.3179         3.23547 
        2.45437         34.1153         3.21533 
        2.46052         33.9712         3.19533 
        2.46665         33.8372         3.17554 
        2.47279         33.5987         3.15593 
        2.47892         33.5451         3.13647 
        2.48507         33.3938         3.11715 
         2.4912         33.2526         3.09804 
