# k  (h/Mpc)    Pcb(k)  (Mpc/h)^3    Pcb_linear(k)  (Mpc/h)^3
     0.00783031         3111.91         3133.56 
       0.013688         3812.06         3867.17 
       0.019231         3856.94         3883.23 
      0.0249154         3543.32         3537.42 
      0.0312784         2989.06          2993.9 
      0.0375637         2473.98         2484.92 
      0.0433917          2122.1         2117.22 
      0.0492413         1857.41         1861.01 
      0.0555754         1692.31         1685.27 
      0.0619321         1551.39         1571.08 
       0.067871         1475.78         1481.08 
      0.0738098         1378.01         1380.46 
      0.0800417         1254.61         1252.72 
      0.0862327         1108.21          1109.9 
      0.0921407         974.964         974.278 
      0.0982031         860.035         851.796 
       0.104506         754.064         753.003 
       0.110769          689.03          685.65 
       0.116806         654.814         644.764 
       0.122832         622.278         618.639 
       0.129052         601.726         596.734 
       0.135211         579.822         571.469 
       0.141259         542.799         538.775 
       0.147318         499.114         498.493 
       0.153489         458.298         453.711 
       0.159709         420.276         410.301 
       0.165845         378.622         373.749 
       0.171974         359.449         345.784 
       0.178125         339.711         326.197 
       0.184229         322.117         313.215 
        0.19034         315.317         303.714 
       0.196428         305.685          294.72 
       0.202534         289.019         283.905 
       0.208729         279.991         270.112 
       0.214876          266.16         254.042 
       0.220989         245.592         237.103 
       0.227147          234.71          220.79 
        0.23329         221.951         206.641 
       0.239377         212.797         195.386 
       0.245482         202.259          186.81 
       0.251667         193.933         180.249 
       0.257832         191.462         174.858 
       0.263955         182.458         169.677 
       0.270079          176.11         163.967 
        0.27624         168.541          157.39 
       0.282372         162.329         150.164 
        0.28843         158.664         142.767 
       0.294538         150.497         135.577 
       0.300721         143.125         129.012 
        0.30691         139.743         123.403 
       0.313033         133.799         118.805 
       0.319153         131.422         114.958 
       0.325316         126.425         111.544 
        0.33145         122.576         108.289 
       0.337538         118.913         104.969 
       0.343633         115.468         101.451 
       0.349808         111.512         97.7104 
       0.355968         108.022         93.9272 
       0.362074         105.572         90.2782 
       0.368217         102.424         86.8629 
       0.374374         99.7649         83.7723 
       0.380519         95.5026         81.0385 
       0.386598         93.0876         78.6294 
       0.392688         90.3722         76.4146 
        0.39888         88.7968         74.2738 
       0.405048         86.7484         72.1655 
       0.411186          84.687         70.0445 
       0.417313         82.3141         67.9097 
       0.423458          80.033         65.7713 
       0.429607         78.4716         63.6841 
       0.435692          77.101         61.7194 
       0.441815         74.2782         59.8681 
       0.447964          72.014         58.1446 
       0.454126         70.7332         56.5484 
       0.460267         70.0802         55.0567 
       0.466387         68.2038          53.635 
        0.47254         67.3054         52.2466 
       0.478662         65.0181         50.8891 
       0.484765         63.8146         49.5485 
       0.490885         62.0436         48.2237 
       0.497035         61.3092          46.927 
       0.503198         59.8687         45.6752 
       0.509342          58.265         44.4813 
       0.515458         57.5124         43.3517 
       0.521598         56.1074         42.2781 
       0.527764          55.375         41.2524 
       0.533884         54.4732         40.2738 
           0.54         53.2169         39.3261 
       0.546137         51.7223         38.3997 
       0.552299         50.8332         37.4921 
       0.558452         49.8025         36.6065 
       0.564573         49.4622         35.7466 
       0.570708         48.0456         34.9094 
       0.576825         47.5149         34.1037 
       0.582926          46.784         33.3318 
       0.589034         45.8539         32.5889 
       0.595184         45.2669         31.8681 
       0.601379         44.0688         31.1666 
       0.607522         43.3636         30.4922 
       0.613639         42.8293         29.8401 
       0.619772         42.0323         29.2044 
       0.625918         41.3251         28.5842 
       0.632068         40.9297         27.9792 
       0.638161         40.1012         27.3956 
         0.6443         39.5952         26.8239 
       0.650464         38.6438         26.2671 
       0.656582         38.4298         25.7319 
       0.662703         37.9267         25.2136 
       0.668861         36.9792         24.7083 
       0.675024         36.6352         24.2173 
       0.681124           36.33         23.7446 
       0.687237         35.5918          23.283 
       0.693381         34.9916         22.8307 
       0.699536         34.7714         22.3889 
       0.705665          34.151         21.9605 
       0.711789         33.6046         21.5438 
       0.717957         32.9885         21.1353 
        0.72409         32.6755         20.7403 
       0.730186         32.5151         20.3583 
       0.736317          31.866         19.9842 
       0.742472         31.4889         19.6184 
       0.748622         31.0162         19.2621 
        0.75476         30.3379         18.9155 
       0.760888         30.2839         18.5779 
       0.767043         29.7328         18.2471 
       0.773185         29.4231          17.925 
       0.779291         29.0656         17.6126 
       0.785407         28.6435         17.3073 
       0.791564          28.538         17.0074 
       0.797719         27.9242         16.7149 
       0.803834         27.7911         16.4313 
       0.809972         27.3016         16.1534 
       0.816124         27.0304         15.8814 
       0.822261         26.7235         15.6166 
       0.828378         26.4917         15.3586 
       0.834502         26.2112         15.1064 
       0.840667         25.9403         14.8582 
       0.846816         25.4163         14.6163 
       0.852925         25.3416         14.3813 
       0.859047         25.1065         14.1511 
       0.865192         24.7345         13.9251 
       0.871341         24.4331          13.704 
       0.877463         24.1809         13.4887 
       0.883569         24.0548         13.2787 
       0.889708         23.7042          13.072 
       0.895864         23.4093         12.8693 
       0.902008         23.1669         12.6714 
       0.908149         22.8994         12.4778 
       0.914301          22.771          12.288 
       0.920448         22.4649         12.1023 
       0.926574         22.2655         11.9212 
       0.932687         22.0029         11.7442 
       0.938823         21.7239         11.5702 
       0.944975          21.578         11.3994 
       0.951105         21.3815         11.2326 
       0.957225         21.2297         11.0696 
       0.963368         20.9222         10.9092 
       0.969511         20.7361          10.752 
       0.975621         20.5654         10.5988 
       0.981748         20.3145         10.4483 
       0.987916         20.1974         10.2997 
        0.99406         19.9291         10.1546 
        1.00019         19.8155         10.0126 
        1.00632         19.6589         9.87353 
        1.01246         19.4612         9.73689 
        1.01859          19.252         9.60307 
        1.02471           19.08         9.47196 
        1.03085         18.9921         9.34287 
        1.03698         18.8387         9.21648 
        1.04314         18.6042         9.09191 
        1.04929         18.3941         8.96996 
        1.05541         18.3221         8.85075 
        1.06154          18.174         8.73344 
        1.06769          17.973          8.6181 
        1.07382         17.7847         8.50523 
        1.07993         17.6426         8.39466 
        1.08607         17.5459         8.28561 
        1.09222         17.3582          8.1784 
        1.09836         17.2224         8.07323 
        1.10449         17.1044         7.97005 
        1.11063         16.9909         7.86857 
        1.11677         16.9063         7.76891 
         1.1229         16.7271         7.67116 
        1.12903         16.5845         7.57502 
        1.13518         16.4411         7.48046 
        1.14131         16.3452         7.38758 
        1.14745         16.1279         7.29634 
        1.15359         15.9901         7.20664 
        1.15973          15.892         7.11842 
        1.16584         15.7578         7.03208 
        1.17197         15.6075         6.94707 
        1.17811         15.5264         6.86321 
        1.18424         15.4071         6.78099 
        1.19038         15.3405         6.69989 
        1.19652         15.1703         6.62015 
        1.20267          15.103         6.54173 
        1.20881         14.9283          6.4646 
        1.21495         14.8421         6.38885 
        1.22108         14.7833         6.31434 
         1.2272          14.661         6.24119 
        1.23334         14.5739         6.16905 
        1.23949         14.4458         6.09789 
        1.24562         14.3083         6.02805 
        1.25174         14.2608         5.95942 
        1.25789         14.1367         5.89166 
        1.26402         14.0653         5.82509 
        1.27014         13.9945         5.75971 
        1.27628         13.8275         5.69514 
        1.28244         13.8226         5.63145 
        1.28858         13.6657         5.56883 
        1.29471         13.5182          5.5073 
        1.30084         13.4438         5.44677 
        1.30697          13.411         5.38706 
        1.31312         13.2897         5.32817 
        1.31925         13.2236         5.27035 
        1.32537         13.1125         5.21345 
        1.33151         13.0323          5.1572 
        1.33765         12.9638         5.10181 
        1.34378         12.9138         5.04735 
        1.34992         12.7974         4.99364 
        1.35606         12.6707         4.94061 
         1.3622          12.591         4.88845 
        1.36833         12.5679         4.83717 
        1.37445         12.4846         4.78666 
        1.38059         12.3972         4.73672 
        1.38675         12.3281         4.68737 
        1.39288         12.2143         4.63893 
        1.39901         12.1503          4.5912 
        1.40515         12.0779         4.54404 
         1.4113         11.9969         4.49756 
        1.41742           11.95         4.45192 
        1.42355         11.8401         4.40683 
         1.4297         11.7823         4.36223 
        1.43585         11.7261         4.31827 
        1.44198         11.6792         4.27509 
        1.44809         11.5886         4.23258 
        1.45423         11.5109          4.1905 
        1.46036         11.4405         4.14907 
        1.46649         11.3717         4.10819 
        1.47263         11.3245         4.06783 
        1.47877         11.2456         4.02804 
        1.48491         11.1966         3.98871 
        1.49104         11.1148            3.95 
        1.49718         11.0691         3.91178 
        1.50333         11.0079         3.87401 
        1.50947         10.9454         3.83681 
         1.5156         10.8935         3.80017 
        1.52172         10.8101           3.764 
        1.52787         10.7849         3.72824 
          1.534         10.7095         3.69298 
        1.54013         10.6604         3.65822 
        1.54627         10.5804         3.62385 
        1.55241         10.5006         3.58991 
        1.55855         10.4782         3.55646 
        1.56467         10.4362         3.52353 
         1.5708         10.3751         3.49093 
        1.57695         10.3063         3.45869 
        1.58308         10.2424         3.42693 
        1.58922         10.2049         3.39556 
        1.59535         10.1523         3.36459 
         1.6015         10.0509         3.33396 
        1.60764          10.018         3.30373 
        1.61376          9.9918         3.27397 
        1.61989         9.91119         3.24455 
        1.62604         9.89271         3.21542 
        1.63218         9.84233         3.18668 
        1.63831         9.76875         3.15835 
        1.64444         9.70061         3.13036 
        1.65059         9.65524         3.10264 
        1.65673         9.63547         3.07529 
        1.66285         9.56688         3.04835 
        1.66898         9.54806         3.02173 
        1.67512         9.50004         2.99537 
        1.68127         9.41027          2.9693 
         1.6874         9.39771         2.94361 
        1.69353         9.31344         2.91823 
        1.69967         9.29455          2.8931 
        1.70581         9.24411         2.86828 
        1.71193         9.20155         2.84384 
        1.71806         9.15708         2.81963 
        1.72421         9.10606         2.79567 
        1.73035         9.07594         2.77201 
        1.73649         9.04182         2.74862 
        1.74262         8.94592         2.72553 
        1.74876         8.95327         2.70269 
        1.75489         8.90825         2.68017 
        1.76101         8.83217          2.6579 
        1.76715         8.82496         2.63586 
        1.77329         8.76973         2.61404 
        1.77943         8.71048         2.59246 
        1.78557         8.71223         2.57116 
        1.79171         8.65275          2.5501 
        1.79785           8.626         2.52927 
        1.80399         8.56277         2.50867 
        1.81012         8.53371         2.48833 
        1.81625          8.4784         2.46823 
        1.82239         8.44945         2.44833 
        1.82853          8.3937         2.42865 
        1.83466         8.34423         2.40921 
        1.84078         8.32869            2.39 
        1.84692         8.30393         2.37097 
        1.85306         8.26431         2.35213 
         1.8592         8.23096         2.33352 
        1.86533         8.18743         2.31513 
        1.87147         8.15074         2.29691 
        1.87761         8.12111         2.27888 
        1.88375         8.08149         2.26107 
        1.88988         8.03813         2.24347 
        1.89601         8.01434         2.22605 
        1.90215         7.96706          2.2088 
        1.90829         7.93666         2.19174 
        1.91442         7.89626         2.17486 
        1.92056         7.89645         2.15817 
         1.9267         7.83697         2.14164 
        1.93284         7.82053         2.12528 
        1.93897          7.7648         2.10912 
        1.94509         7.72165         2.09317 
        1.95123         7.71409         2.07733 
        1.95737         7.68652         2.06166 
        1.96349          7.6251         2.04618 
        1.96964         7.59365         2.03082 
        1.97578         7.57697         2.01561 
        1.98192         7.54321         2.00059 
        1.98805         7.51273         1.98572 
        1.99419         7.48769           1.971 
        2.00033         7.44861         1.95643 
        2.00647         7.42435         1.94201 
         2.0126         7.39685         1.92775 
        2.01874         7.34621         1.91362 
        2.02488         7.33216         1.89962 
        2.03101         7.30309         1.88579 
        2.03714           7.259          1.8721 
        2.04328         7.22733         1.85854 
        2.04941          7.1984         1.84513 
        2.05554         7.18143         1.83185 
        2.06167         7.16362         1.81869 
        2.06781         7.11976         1.80566 
        2.07396         7.09532         1.79274 
        2.08009         7.04631         1.77996 
        2.08622         7.05253         1.76733 
        2.09237         7.02017         1.75479 
        2.09851         6.97554         1.74238 
        2.10464         6.96378          1.7301 
        2.11077         6.91637         1.71796 
        2.11691         6.90964         1.70591 
        2.12305          6.8727         1.69397 
        2.12918         6.84032         1.68218 
        2.13531         6.82205          1.6705 
        2.14145         6.79358          1.6589 
         2.1476         6.77465          1.6474 
        2.15372         6.74025         1.63607 
        2.15985         6.71832         1.62484 
        2.16599         6.69752         1.61367 
        2.17213         6.69063         1.60263 
        2.17827         6.64365         1.59169 
         2.1844         6.62874         1.58086 
        2.19054         6.60568         1.57013 
        2.19666         6.57296         1.55952 
         2.2028         6.54542           1.549 
        2.20893         6.52618         1.53856 
        2.21508         6.50097         1.52822 
        2.22122          6.4612         1.51796 
        2.22736         6.44118         1.50782 
        2.23349         6.41852         1.49778 
        2.23962         6.40576         1.48782 
        2.24577         6.38129         1.47794 
         2.2519           6.376         1.46817 
        2.25802         6.30419          1.4585 
        2.26417         6.30543          1.4489 
        2.27031         6.28363         1.43937 
        2.27644         6.26535         1.42995 
        2.28257         6.22453         1.42062 
        2.28872         6.21161         1.41136 
        2.29486         6.19048         1.40218 
        2.30099         6.17949          1.3931 
        2.30712         6.14024          1.3841 
        2.31326         6.12362         1.37516 
         2.3194         6.09787         1.36631 
        2.32553         6.07769         1.35755 
        2.33166         6.05364         1.34887 
         2.3378         6.03922         1.34026 
        2.34394         6.01323         1.33171 
        2.35007         5.99152         1.32326 
        2.35619         5.97849         1.31489 
        2.36233         5.94449         1.30657 
        2.36848         5.93054         1.29831 
        2.37462         5.91087         1.29013 
        2.38075         5.89377         1.28204 
        2.38689         5.88057         1.27401 
        2.39303         5.84138         1.26604 
        2.39916         5.83494         1.25816 
        2.40529          5.8075         1.25034 
        2.41143         5.79379         1.24259 
        2.41757         5.76591         1.23489 
         2.4237         5.75516         1.22728 
        2.42983         5.73413         1.21973 
        2.43598         5.71729         1.21222 
        2.44211         5.69392         1.20479 
        2.44823         5.66676         1.19744 
        2.45437         5.65251         1.19013 
        2.46052         5.64306         1.18288 
        2.46665         5.61939          1.1757 
        2.47279         5.59941         1.16858 
        2.47892         5.57329         1.16152 
        2.48507         5.55929          1.1545 
         2.4912         5.53964         1.14756 
