# k  (h/Mpc)    P(k)  (Mpc/h)^3    P_linear(k)  (Mpc/h)^3
     0.00783031         8272.59         8336.08 
       0.013688         10053.3         10270.5 
       0.019231           10186         10305.4 
      0.0249154         9402.22         9383.58 
      0.0312784         7896.31         7939.45 
      0.0375637         6519.78         6588.46 
      0.0433917         5609.95         5612.88 
      0.0492413         4901.39         4933.22 
      0.0555754         4473.45         4467.02 
      0.0619321         4066.16         4164.14 
       0.067871         3881.73         3925.44 
      0.0738098          3634.2         3658.64 
      0.0800417         3310.31         3320.01 
      0.0862327         2923.31         2941.41 
      0.0921407         2582.55         2581.96 
      0.0982031         2293.08         2257.33 
       0.104506         2008.31          1995.5 
       0.110769         1841.77         1816.99 
       0.116806         1758.86         1708.62 
       0.122832         1665.87         1639.38 
       0.129052         1603.85         1581.32 
       0.135211         1555.47         1514.36 
       0.141259         1449.23         1427.71 
       0.147318         1332.11         1320.96 
       0.153489         1231.21         1202.29 
       0.159709         1146.72         1087.25 
       0.165845          1032.7         990.388 
       0.171974         993.505          916.28 
       0.178125         946.258         864.377 
       0.184229         885.486         829.973 
        0.19034         870.836         804.797 
       0.196428         846.382         780.961 
       0.202534         793.932         752.304 
       0.208729         777.169         715.752 
       0.214876         740.339         673.167 
       0.220989          687.21         628.281 
       0.227147         663.913         585.054 
        0.23329         632.605          547.56 
       0.239377         617.212         517.737 
       0.245482          584.65         495.009 
       0.251667         562.228         477.624 
       0.257832         556.582         463.339 
       0.263955         527.743         449.611 
       0.270079         509.405         434.481 
        0.27624         488.234          417.05 
       0.282372         475.692         397.901 
        0.28843         470.042         378.303 
       0.294538         444.795          359.25 
       0.300721         429.011         341.854 
        0.30691         421.079         326.989 
       0.313033         401.785         314.806 
       0.319153         395.138         304.613 
       0.325316         386.447         295.566 
        0.33145         376.874         286.943 
       0.337538         363.562         278.144 
       0.343633         352.561         268.825 
       0.349808         342.852         258.911 
       0.355968         335.561         248.885 
       0.362074         325.245         239.217 
       0.368217         321.411         230.166 
       0.374374         313.787         221.977 
       0.380519         300.906         214.734 
       0.386598         296.638         208.349 
       0.392688         288.935         202.481 
        0.39888         282.206         196.808 
       0.405048         276.506         191.222 
       0.411186         274.276         185.601 
       0.417313         269.021         179.945 
       0.423458          261.73         174.279 
       0.429607         255.033         168.747 
       0.435692         250.744         163.542 
       0.441815         245.692         158.636 
       0.447964         239.206         154.069 
       0.454126         235.671          149.84 
       0.460267         232.637         145.887 
       0.466387         227.641          142.12 
        0.47254         224.911         138.441 
       0.478662         218.382         134.844 
       0.484765         215.653         131.291 
       0.490885         212.401         127.781 
       0.497035         209.494         124.345 
       0.503198         207.238         121.028 
       0.509342         201.735         117.865 
       0.515458         199.063         114.871 
       0.521598          194.55         112.027 
       0.527764         192.521         109.309 
       0.533884         191.644         106.716 
           0.54         187.247         104.204 
       0.546137         183.069          101.75 
       0.552299         181.404         99.3449 
       0.558452         178.248         96.9985 
       0.564573          177.28         94.7195 
       0.570708         172.993         92.5014 
       0.576825          170.74         90.3665 
       0.582926         168.955         88.3209 
       0.589034         166.372         86.3526 
       0.595184         164.957         84.4427 
       0.601379         161.709         82.5837 
       0.607522         158.567         80.7968 
       0.613639         157.496          79.069 
       0.619772         155.663         77.3845 
       0.625918         154.427          75.741 
       0.632068         150.922         74.1381 
       0.638161         149.643         72.5915 
         0.6443         148.603         71.0766 
       0.650464          145.73         69.6012 
       0.656582         144.899          68.183 
       0.662703         143.418         66.8099 
       0.668861         140.511         65.4709 
       0.675024         140.496         64.1698 
       0.681124          138.25         62.9174 
       0.687237         136.471         61.6943 
       0.693381         135.071         60.4956 
       0.699536         133.613         59.3251 
       0.705665         132.125         58.1899 
       0.711789         130.493         57.0856 
       0.717957         128.975         56.0033 
        0.72409         127.799         54.9566 
       0.730186         127.595         53.9444 
       0.736317         125.529         52.9531 
       0.742472         123.727         51.9837 
       0.748622         121.893         51.0398 
        0.75476         122.269         50.1214 
       0.760888          120.92         49.2267 
       0.767043         118.736         48.3502 
       0.773185         117.488         47.4968 
       0.779291         116.194          46.669 
       0.785407         115.319         45.8599 
       0.791564         114.557         45.0652 
       0.797719         112.964         44.2901 
       0.803834         112.741         43.5387 
       0.809972         111.795         42.8023 
       0.816124         110.141         42.0817 
       0.822261          109.11         41.3799 
       0.828378         108.885         40.6965 
       0.834502         107.366          40.028 
       0.840667          106.82         39.3704 
       0.846816         105.757         38.7294 
       0.852925         104.562         38.1068 
       0.859047         103.922         37.4967 
       0.865192         102.997          36.898 
       0.871341         101.936         36.3121 
       0.877463         101.128         35.7417 
       0.883569         101.017         35.1851 
       0.889708         100.035         34.6376 
       0.895864         99.1634         34.1005 
       0.902008         98.1472          33.576 
       0.908149         96.9266          33.063 
       0.914301         96.8448           32.56 
       0.920448         96.5579         32.0681 
       0.926574         94.6094         31.5882 
       0.932687         94.5517         31.1192 
       0.938823         93.8566         30.6581 
       0.944975         92.8336         30.2055 
       0.951105          92.011         29.7636 
       0.957225         91.8231         29.3315 
       0.963368         90.8274         28.9066 
       0.969511          90.279         28.4901 
       0.975621         89.3304         28.0842 
       0.981748         88.7209         27.6852 
       0.987916         88.0863         27.2916 
        0.99406         87.8062         26.9071 
        1.00019         86.7389         26.5309 
        1.00632         86.1164         26.1623 
        1.01246         85.6748         25.8003 
        1.01859         85.3031         25.4457 
        1.02471         84.5973         25.0983 
        1.03085         83.8012         24.7562 
        1.03698         83.2688         24.4213 
        1.04314         82.6797         24.0912 
        1.04929         82.3184         23.7681 
        1.05541          81.705         23.4522 
        1.06154         81.1816         23.1414 
        1.06769         80.5673         22.8357 
        1.07382         79.8356         22.5367 
        1.07993         79.6106         22.2437 
        1.08607         78.9631         21.9547 
        1.09222         78.6462         21.6707 
        1.09836         77.9217          21.392 
        1.10449         77.5027         21.1186 
        1.11063         77.0102         20.8497 
        1.11677         76.5365         20.5856 
         1.1229         75.8841         20.3266 
        1.12903         75.6207         20.0718 
        1.13518         75.2367         19.8213 
        1.14131         74.5979         19.5752 
        1.14745         74.2548         19.3334 
        1.15359          73.335         19.0957 
        1.15973         73.2932          18.862 
        1.16584         72.7892         18.6332 
        1.17197         72.2959         18.4079 
        1.17811          71.805         18.1857 
        1.18424         71.1643         17.9679 
        1.19038         71.0868          17.753 
        1.19652         70.6215         17.5417 
        1.20267         70.1251         17.3339 
        1.20881         69.7151         17.1295 
        1.21495         69.2954         16.9288 
        1.22108         69.1349         16.7314 
         1.2272         68.3845         16.5376 
        1.23334         68.2402         16.3464 
        1.23949         67.7349         16.1578 
        1.24562         67.2305         15.9728 
        1.25174         66.9366         15.7909 
        1.25789         66.7533         15.6114 
        1.26402         66.2577          15.435 
        1.27014         65.9805         15.2617 
        1.27628         65.3864         15.0907 
        1.28244         65.3377         14.9219 
        1.28858         64.8063          14.756 
        1.29471         64.3876         14.5929 
        1.30084         63.8284         14.4325 
        1.30697         63.9087         14.2743 
        1.31312          63.403         14.1183 
        1.31925          62.947         13.9651 
        1.32537         62.6596         13.8143 
        1.33151         62.3764         13.6652 
        1.33765         62.0301         13.5185 
        1.34378         61.6613         13.3742 
        1.34992         61.4333         13.2319 
        1.35606         60.9704         13.0913 
         1.3622         60.7823         12.9531 
        1.36833         60.3659         12.8173 
        1.37445         59.8473         12.6834 
        1.38059         59.7496         12.5511 
        1.38675         59.1671         12.4203 
        1.39288         59.1405          12.292 
        1.39901         58.6275         12.1655 
        1.40515         58.4367         12.0405 
         1.4113         58.2287         11.9174 
        1.41742         57.8112         11.7964 
        1.42355         57.6328         11.6769 
         1.4297         57.2759         11.5588 
        1.43585         56.9382         11.4423 
        1.44198         56.5987         11.3279 
        1.44809         56.2437         11.2152 
        1.45423         56.0864         11.1037 
        1.46036         55.7504          10.994 
        1.46649         55.4863         10.8856 
        1.47263         55.2053         10.7787 
        1.47877         55.0106         10.6732 
        1.48491          54.649         10.5691 
        1.49104         54.2831         10.4665 
        1.49718          54.099         10.3652 
        1.50333         53.8406         10.2651 
        1.50947         53.6074         10.1666 
         1.5156         53.3942         10.0695 
        1.52172         52.9737         9.97362 
        1.52787         52.7116         9.87886 
          1.534         52.4327         9.78544 
        1.54013         52.3889         9.69333 
        1.54627         51.8864         9.60225 
        1.55241         51.6975         9.51233 
        1.55855         51.4833          9.4237 
        1.56467         51.0471         9.33644 
         1.5708         51.0242         9.25005 
        1.57695         50.7053         9.16462 
        1.58308         50.4135         9.08048 
        1.58922         50.2214         8.99734 
        1.59535         50.1132         8.91527 
         1.6015         49.9626         8.83413 
        1.60764         49.5891         8.75403 
        1.61376         49.3336         8.67516 
        1.61989         48.9617          8.5972 
        1.62604         48.8283         8.52003 
        1.63218         48.5079         8.44386 
        1.63831         48.4268          8.3688 
        1.64444         48.2177         8.29463 
        1.65059         47.8807         8.22119 
        1.65673         47.6377         8.14873 
        1.66285         47.5016         8.07734 
        1.66898         47.1321         8.00679 
        1.67512          46.976         7.93695 
        1.68127         46.8255         7.86788 
         1.6874         46.5683          7.7998 
        1.69353         46.3793         7.73256 
        1.69967         46.1972         7.66596 
        1.70581         45.8611         7.60018 
        1.71193         45.7133         7.53543 
        1.71806         45.4993          7.4713 
        1.72421         45.3249         7.40779 
        1.73035         45.0825         7.34509 
        1.73649         44.7834         7.28314 
        1.74262         44.4917         7.22195 
        1.74876         44.5729         7.16143 
        1.75489         44.2177         7.10174 
        1.76101         44.0489         7.04274 
        1.76715         43.9082         6.98434 
        1.77329         43.5034         6.92653 
        1.77943         43.5337         6.86935 
        1.78557         43.2936         6.81291 
        1.79171         43.0594         6.75709 
        1.79785         42.8841         6.70189 
        1.80399         42.6454         6.64732 
        1.81012         42.4875         6.59344 
        1.81625         42.2251         6.54017 
        1.82239         42.0361         6.48742 
        1.82853         41.8893         6.43528 
        1.83466         41.6913         6.38377 
        1.84078          41.523         6.33287 
        1.84692         41.3038         6.28245 
        1.85306         41.0862         6.23252 
         1.8592         40.9344         6.18322 
        1.86533         40.7753         6.13448 
        1.87147         40.5707         6.08621 
        1.87761         40.3745         6.03844 
        1.88375         40.1935         5.99124 
        1.88988         40.0478          5.9446 
        1.89601         39.8387         5.89844 
        1.90215          39.619         5.85273 
        1.90829         39.5026         5.80753 
        1.91442         39.2846          5.7628 
        1.92056         39.1611         5.71859 
         1.9267         39.0575          5.6748 
        1.93284         38.8192         5.63144 
        1.93897         38.6713         5.58862 
        1.94509         38.4075         5.54634 
        1.95123         38.3206         5.50439 
        1.95737         38.1218         5.46285 
        1.96349         38.0347         5.42184 
        1.96964         37.7776         5.38114 
        1.97578          37.601         5.34084 
        1.98192         37.4103         5.30104 
        1.98805         37.2531         5.26164 
        1.99419         37.1336         5.22264 
        2.00033         36.9709         5.18402 
        2.00647         36.8589         5.14581 
         2.0126         36.6193         5.10804 
        2.01874         36.5155          5.0706 
        2.02488         36.2674          5.0335 
        2.03101          36.196         4.99684 
        2.03714         36.0114         4.96058 
        2.04328         35.8959         4.92465 
        2.04941         35.6782          4.8891 
        2.05554         35.5534         4.85393 
        2.06167         35.4089         4.81906 
        2.06781         35.2306         4.78452 
        2.07396         35.0586         4.75028 
        2.08009         34.9187         4.71643 
        2.08622         34.7983         4.68295 
        2.09237         34.6257         4.64974 
        2.09851         34.4932         4.61684 
        2.10464         34.3503         4.58431 
        2.11077          34.238         4.55214 
        2.11691         33.9693         4.52021 
        2.12305         33.8148         4.48858 
        2.12918         33.7332         4.45733 
        2.13531         33.5731         4.42638 
        2.14145         33.4632         4.39566 
         2.1476         33.3226         4.36519 
        2.15372          33.227         4.33516 
        2.15985         32.9783         4.30539 
        2.16599         32.8242         4.27581 
        2.17213         32.7361         4.24654 
        2.17827          32.595         4.21756 
         2.1844          32.421         4.18887 
        2.19054         32.3457         4.16044 
        2.19666         32.1387         4.13232 
         2.2028         31.9984         4.10443 
        2.20893         31.9378         4.07679 
        2.21508         31.7946         4.04937 
        2.22122         31.6626         4.02219 
        2.22736          31.455         3.99533 
        2.23349         31.3854         3.96871 
        2.23962         31.2402         3.94233 
        2.24577          31.109         3.91616 
         2.2519         30.9329         3.89027 
        2.25802         30.8229         3.86465 
        2.26417         30.6853         3.83919 
        2.27031         30.5724         3.81394 
        2.27644         30.5292         3.78899 
        2.28257         30.3004         3.76427 
        2.28872         30.2512         3.73972 
        2.29486         30.0934          3.7154 
        2.30099         29.9081         3.69135 
        2.30712         29.8398         3.66749 
        2.31326         29.6865         3.64381 
         2.3194         29.5484         3.62036 
        2.32553         29.4643         3.59715 
        2.33166         29.3269         3.57415 
         2.3378         29.1841         3.55132 
        2.34394         29.0818         3.52869 
        2.35007         29.0193         3.50629 
        2.35619         28.8857         3.48411 
        2.36233         28.7132         3.46207 
        2.36848         28.6433         3.44017 
        2.37462          28.527         3.41851 
        2.38075         28.3587         3.39706 
        2.38689         28.2572         3.37578 
        2.39303         28.1908         3.35468 
        2.39916         27.9736         3.33379 
        2.40529         27.9128         3.31307 
        2.41143         27.7837         3.29252 
        2.41757         27.6955         3.27213 
         2.4237          27.592         3.25196 
        2.42983           27.41         3.23195 
        2.43598         27.3146         3.21207 
        2.44211          27.218         3.19238 
        2.44823         27.0852          3.1729 
        2.45437         27.0591         3.15354 
        2.46052         26.8818         3.13431 
        2.46665         26.7749         3.11529 
        2.47279         26.6234         3.09643 
        2.47892         26.5538         3.07771 
        2.48507          26.457         3.05913 
         2.4912          26.364         3.04074 
