# k  (h/Mpc)    Pcb(k)  (Mpc/h)^3    Pcb_linear(k)  (Mpc/h)^3
     0.00783031         1660.65         1678.28 
       0.013688         2056.12         2057.31 
       0.019231         2053.02         2052.02 
      0.0249154         1852.76         1864.25 
      0.0312784         1590.01         1590.92 
      0.0375637         1356.28         1351.76 
      0.0433917          1186.5         1188.75 
      0.0492413         1078.53          1077.8 
      0.0555754         988.589         994.823 
      0.0619321         927.522         923.672 
       0.067871         847.368         851.256 
      0.0738098         764.975         768.727 
      0.0800417         672.538         677.499 
      0.0862327         592.022         593.314 
      0.0921407         528.411         527.424 
      0.0982031         476.896         477.696 
       0.104506         446.354         442.917 
       0.110769         421.401         419.243 
       0.116806         399.196         399.814 
       0.122832         379.742          378.49 
       0.129052         351.202         352.154 
       0.135211         322.352         322.786 
       0.141259         295.924          293.84 
       0.147318         271.566         267.948 
       0.153489         249.344         246.832 
       0.159709         234.179         231.224 
       0.165845         224.862          220.18 
       0.171974         213.821         211.435 
       0.178125         205.526         202.917 
       0.184229         196.563         193.385 
        0.19034         183.472         182.454 
       0.196428         173.888          170.77 
       0.202534         164.267         159.296 
       0.208729          153.19         148.907 
       0.214876         143.828         140.395 
       0.220989         138.633           133.7 
       0.227147         131.605         128.299 
        0.23329         126.866         123.598 
       0.239377         122.797         119.013 
       0.245482         116.544         114.115 
       0.251667         112.686         108.796 
       0.257832         107.366         103.337 
       0.263955         102.234         98.0857 
       0.270079         97.6527         93.2982 
        0.27624         94.4194         89.1038 
       0.282372          90.761         85.5421 
        0.28843         87.1577         82.4817 
       0.294538         84.0469         79.6577 
       0.300721         82.0136         76.8794 
        0.30691         78.4721         74.0603 
       0.313033         75.7392          71.217 
       0.319153         72.0045         68.3761 
       0.325316         70.4844         65.6139 
        0.33145         67.6151         63.0487 
       0.337538         65.6287         60.7299 
       0.343633         63.2549         58.6355 
       0.349808         61.4331         56.6988 
       0.355968         59.7018         54.8927 
       0.362074         57.8166         53.1648 
       0.368217         56.0795         51.4544 
       0.374374         54.2456         49.7569 
       0.380519          52.795         48.0924 
       0.386598         51.2546         46.5032 
       0.392688         50.0216         44.9901 
        0.39888         48.4468         43.5475 
       0.405048         47.2283          42.209 
       0.411186         46.0603         40.9587 
       0.417313         44.5581         39.7743 
       0.423458         43.4288         38.6331 
       0.429607         42.2259          37.522 
       0.435692         40.9372          36.449 
       0.441815         40.1552         35.3992 
       0.447964         39.4055         34.3796 
       0.454126         37.8565         33.3985 
       0.460267         37.1331         32.4671 
       0.466387          36.023         31.5848 
        0.47254         35.4174         30.7387 
       0.478662         34.7606          29.932 
       0.484765         33.7338         29.1578 
       0.490885         32.9555         28.4068 
       0.497035         32.4971          27.674 
       0.503198         31.6209          26.961 
       0.509342         30.8174         26.2734 
       0.515458          30.125         25.6135 
       0.521598          29.589         24.9758 
       0.527764         28.9243         24.3594 
       0.533884         28.4212         23.7706 
           0.54         27.7929         23.2039 
       0.546137         27.3105         22.6547 
       0.552299         26.8422         22.1211 
       0.558452         26.0106         21.6043 
       0.564573         25.6413         21.1052 
       0.570708         25.1839         20.6201 
       0.576825         24.5491         20.1518 
       0.582926         24.0944         19.7001 
       0.589034         23.4449         19.2626 
       0.595184         23.1303         18.8363 
       0.601379         22.6665         18.4204 
       0.607522         22.2842         18.0207 
       0.613639         22.0315         17.6345 
       0.619772         21.4496         17.2588 
       0.625918         21.3086         16.8934 
       0.632068         20.9563         16.5385 
       0.638161         20.4741         16.1969 
         0.6443         20.0595         15.8626 
       0.650464         19.6858         15.5367 
       0.656582         19.5504         15.2223 
       0.662703         19.1759         14.9168 
       0.668861          18.814         14.6181 
       0.675024         18.4646         14.3275 
       0.681124         18.1481         14.0479 
       0.687237         17.8528         13.7754 
       0.693381          17.658         13.5089 
       0.699536         17.1911         13.2491 
       0.705665         17.0724         12.9973 
       0.711789          16.738         12.7523 
       0.717957         16.4847          12.512 
        0.72409         16.2262         12.2793 
       0.730186         16.0098          12.054 
       0.736317          15.828         11.8332 
       0.742472         15.5651         11.6171 
       0.748622         15.3623         11.4068 
        0.75476          15.055         11.2021 
       0.760888         14.8609         11.0029 
       0.767043         14.6807         10.8077 
       0.773185         14.3967         10.6178 
       0.779291            14.3         10.4335 
       0.785407         14.0995         10.2535 
       0.791564          13.857         10.0765 
       0.797719         13.5822         9.90395 
       0.803834         13.5289         9.73654 
       0.809972          13.401         9.57245 
       0.816124         13.0928         9.41183 
       0.822261         12.9368         9.25537 
       0.828378          12.791         9.10299 
       0.834502         12.6744         8.95395 
       0.840667          12.468         8.80732 
       0.846816         12.2467         8.66443 
       0.852925         12.1367         8.52565 
       0.859047         11.9917         8.38966 
       0.865192         11.8825         8.25622 
       0.871341         11.7638         8.12563 
       0.877463         11.5667         7.99849 
       0.883569         11.3948         7.87443 
       0.889708         11.2112         7.75239 
       0.895864         11.1269         7.63265 
       0.902008         11.0282         7.51572 
       0.908149         10.9046         7.40134 
       0.914301         10.7801         7.28918 
       0.920448         10.5981         7.17947 
       0.926574         10.4859         7.07243 
       0.932687         10.3808         6.96782 
       0.938823         10.2417         6.86497 
       0.944975         10.1117         6.76398 
       0.951105         10.0224          6.6654 
       0.957225         9.95696         6.56897 
       0.963368         9.83133         6.47414 
       0.969511         9.73171          6.3812 
       0.975621         9.61754         6.29059 
       0.981748         9.50816         6.20154 
       0.987916         9.43059         6.11366 
        0.99406         9.28717         6.02782 
        1.00019         9.14705         5.94383 
        1.00632         9.12938         5.86152 
        1.01246         9.02132         5.78067 
        1.01859         8.88803         5.70148 
        1.02471         8.82832         5.62389 
        1.03085         8.73677         5.54748 
        1.03698         8.61025         5.47268 
        1.04314         8.55448         5.39894 
        1.04929         8.44479         5.32675 
        1.05541         8.34736         5.25619 
        1.06154           8.286         5.18674 
        1.06769         8.24637         5.11846 
        1.07382         8.11644         5.05164 
        1.07993         8.04269         4.98618 
        1.08607         7.98243         4.92162 
        1.09222         7.90669         4.85815 
        1.09836         7.81626         4.79588 
        1.10449         7.74737         4.73479 
        1.11063         7.66989         4.67471 
        1.11677         7.62262          4.6157 
         1.1229         7.56037         4.55782 
        1.12903         7.47032         4.50089 
        1.13518          7.3833          4.4449 
        1.14131         7.31649          4.3899 
        1.14745         7.24192         4.33587 
        1.15359         7.19983         4.28274 
        1.15973         7.12962         4.23049 
        1.16584           7.034         4.17936 
        1.17197         6.98426           4.129 
        1.17811         6.95157         4.07932 
        1.18424         6.88579         4.03061 
        1.19038         6.84958         3.98256 
        1.19652         6.77042         3.93531 
        1.20267          6.6969         3.88884 
        1.20881         6.67188         3.84314 
        1.21495         6.61141         3.79825 
        1.22108         6.53366         3.75408 
         1.2272         6.49563         3.71073 
        1.23334         6.41699         3.66797 
        1.23949         6.36449         3.62579 
        1.24562         6.33313         3.58439 
        1.25174         6.27251          3.5437 
        1.25789         6.22636         3.50353 
        1.26402         6.18831         3.46406 
        1.27014         6.13044         3.42529 
        1.27628         6.06794         3.38701 
        1.28244         6.00358         3.34924 
        1.28858         5.99599         3.31211 
        1.29471         5.92588         3.27562 
        1.30084          5.8691         3.23973 
        1.30697         5.86886         3.20432 
        1.31312         5.76239         3.16939 
        1.31925         5.73284          3.1351 
        1.32537         5.68905         3.10136 
        1.33151          5.6692         3.06799 
        1.33765         5.59925         3.03514 
        1.34378         5.56165         3.00284 
        1.34992         5.53145         2.97098 
        1.35606         5.47202         2.93953 
         1.3622         5.44725         2.90859 
        1.36833          5.4009         2.87817 
        1.37445         5.36328         2.84821 
        1.38059         5.34582         2.81858 
        1.38675         5.29881         2.78931 
        1.39288         5.26305         2.76057 
        1.39901         5.20207         2.73226 
        1.40515         5.17475         2.70428 
         1.4113         5.14012          2.6767 
        1.41742         5.10524         2.64962 
        1.42355         5.05852         2.62287 
         1.4297          5.0265          2.5964 
        1.43585          5.0046         2.57032 
        1.44198         4.98039         2.54469 
        1.44809         4.92912         2.51946 
        1.45423         4.89043         2.49449 
        1.46036         4.85341          2.4699 
        1.46649          4.8227         2.44563 
        1.47263         4.78334         2.42167 
        1.47877         4.75058         2.39805 
        1.48491         4.72329          2.3747 
        1.49104         4.69351         2.35172 
        1.49718         4.66386         2.32903 
        1.50333         4.63789          2.3066 
        1.50947         4.59873         2.28452 
         1.5156         4.57125         2.26276 
        1.52172         4.54578         2.24128 
        1.52787         4.51881         2.22004 
          1.534         4.47889         2.19911 
        1.54013         4.46157         2.17847 
        1.54627         4.41858         2.15805 
        1.55241         4.39076          2.1379 
        1.55855         4.37432         2.11804 
        1.56467          4.3431         2.09848 
         1.5708         4.31753         2.07912 
        1.57695         4.27929         2.05997 
        1.58308         4.24893         2.04111 
        1.58922         4.23986         2.02248 
        1.59535         4.21385         2.00408 
         1.6015         4.17924         1.98589 
        1.60764         4.15228         1.96794 
        1.61376         4.13188         1.95026 
        1.61989         4.10647         1.93278 
        1.62604         4.07632         1.91548 
        1.63218         4.06658         1.89841 
        1.63831         4.03597         1.88158 
        1.64444         4.01257         1.86495 
        1.65059          3.9719         1.84849 
        1.65673         3.96863         1.83224 
        1.66285         3.92958         1.81623 
        1.66898         3.91193         1.80041 
        1.67512         3.88611         1.78475 
        1.68127         3.86417         1.76927 
         1.6874         3.85228           1.754 
        1.69353         3.81423         1.73892 
        1.69967         3.80054         1.72398 
        1.70581          3.7813         1.70923 
        1.71193         3.75724         1.69471 
        1.71806         3.73994         1.68032 
        1.72421         3.71558         1.66608 
        1.73035          3.7002         1.65201 
        1.73649         3.67474         1.63812 
        1.74262         3.65015         1.62439 
        1.74876         3.63922         1.61082 
        1.75489         3.61868         1.59742 
        1.76101         3.58806         1.58419 
        1.76715         3.57824         1.57109 
        1.77329         3.56128         1.55812 
        1.77943           3.525         1.54529 
        1.78557         3.51771         1.53263 
        1.79171         3.49777          1.5201 
        1.79785          3.4774         1.50772 
        1.80399         3.45628         1.49547 
        1.81012         3.44168         1.48338 
        1.81625         3.42229         1.47143 
        1.82239         3.40398          1.4596 
        1.82853         3.38197          1.4479 
        1.83466         3.37357         1.43634 
        1.84078         3.35673         1.42492 
        1.84692         3.34215          1.4136 
        1.85306         3.31331          1.4024 
         1.8592         3.29421         1.39133 
        1.86533         3.27984          1.3804 
        1.87147         3.26908         1.36956 
        1.87761         3.24729         1.35884 
        1.88375         3.23103         1.34825 
        1.88988         3.21324         1.33778 
        1.89601         3.19808         1.32742 
        1.90215         3.18138         1.31716 
        1.90829          3.1604         1.30702 
        1.91442         3.15143         1.29698 
        1.92056         3.12979         1.28705 
         1.9267         3.11726         1.27722 
        1.93284         3.10456         1.26749 
        1.93897         3.08878         1.25788 
        1.94509          3.0699         1.24839 
        1.95123         3.05367         1.23897 
        1.95737         3.03445         1.22964 
        1.96349         3.02759         1.22044 
        1.96964         3.01821          1.2113 
        1.97578         2.99231         1.20225 
        1.98192         2.98425         1.19331 
        1.98805         2.97109         1.18447 
        1.99419          2.9558         1.17571 
        2.00033         2.94563         1.16704 
        2.00647         2.92723         1.15846 
         2.0126         2.91797         1.14998 
        2.01874         2.89348         1.14157 
        2.02488          2.8875         1.13324 
        2.03101         2.86519         1.12501 
        2.03714         2.85655         1.11686 
        2.04328         2.84292         1.10879 
        2.04941         2.82254         1.10081 
        2.05554         2.81652         1.09291 
        2.06167          2.8069         1.08508 
        2.06781         2.79275         1.07732 
        2.07396         2.78217         1.06963 
        2.08009         2.76761         1.06203 
        2.08622          2.7512         1.05451 
        2.09237         2.74089         1.04705 
        2.09851         2.72912         1.03966 
        2.10464         2.72098         1.03235 
        2.11077         2.70374         1.02513 
        2.11691         2.69246         1.01796 
        2.12305         2.68356         1.01085 
        2.12918         2.67507         1.00383 
        2.13531         2.66054        0.996879 
        2.14145         2.64846        0.989976 
         2.1476         2.63184        0.983131 
        2.15372         2.62098        0.976386 
        2.15985         2.61311        0.969697 
        2.16599         2.60048        0.963052 
        2.17213         2.58455        0.956477 
        2.17827         2.57892        0.949965 
         2.1844          2.5665         0.94352 
        2.19054         2.55789        0.937132 
        2.19666         2.54331        0.930813 
         2.2028         2.53163        0.924547 
        2.20893         2.52296        0.918336 
        2.21508         2.50981        0.912175 
        2.22122         2.49919        0.906069 
        2.22736         2.48913        0.900032 
        2.23349         2.48155        0.894051 
        2.23962         2.46804        0.888122 
        2.24577         2.46015        0.882242 
         2.2519         2.44916        0.876423 
        2.25802         2.44092        0.870666 
        2.26417         2.43217        0.864946 
        2.27031         2.41875        0.859271 
        2.27644         2.40967        0.853664 
        2.28257         2.39649        0.848108 
        2.28872         2.39215        0.842591 
        2.29486         2.37826        0.837124 
        2.30099         2.36817        0.831717 
        2.30712         2.35693        0.826356 
        2.31326         2.34992        0.821033 
         2.3194         2.34086        0.815761 
        2.32553         2.33172        0.810544 
        2.33166         2.32369        0.805374 
         2.3378         2.31408        0.800243 
        2.34394         2.30389        0.795156 
        2.35007         2.29367         0.79012 
        2.35619         2.28806        0.785134 
        2.36233         2.27818        0.780179 
        2.36848         2.26663        0.775257 
        2.37462          2.2615        0.770388 
        2.38075         2.24983        0.765566 
        2.38689         2.24421        0.760781 
        2.39303         2.23318        0.756038 
        2.39916         2.22493        0.751341 
        2.40529         2.21617        0.746684 
        2.41143         2.20631        0.742063 
        2.41757         2.19818        0.737479 
         2.4237         2.19308        0.732943 
        2.42983         2.17556        0.728445 
        2.43598         2.17702        0.723974 
        2.44211         2.16272        0.719547 
        2.44823         2.15856        0.715168 
        2.45437         2.14744        0.710813 
        2.46052         2.14266        0.706491 
        2.46665         2.13422        0.702212 
        2.47279         2.12432        0.697971 
        2.47892         2.11828        0.693762 
        2.48507         2.11047        0.689584 
         2.4912         2.09713        0.685449 
