# k  (h/Mpc)    P(k)  (Mpc/h)^3    P_linear(k)  (Mpc/h)^3
     0.00783031         7120.07         7222.54 
       0.013688         9262.14         9226.14 
       0.019231         9681.73          9684.5 
      0.0249154         9165.24         9314.62 
      0.0312784         8360.92          8435.7 
      0.0375637         7465.48         7480.51 
      0.0433917         6605.21          6708.7 
      0.0492413         6052.63         6101.63 
      0.0555754         5471.37         5610.73 
      0.0619321          5215.9          5223.8 
       0.067871         4779.34         4892.03 
      0.0738098         4436.36         4546.54 
      0.0800417         4017.34         4156.55 
      0.0862327         3667.23         3757.77 
      0.0921407         3351.41         3395.86 
      0.0982031         3016.98         3070.97 
       0.104506         2816.29         2799.31 
       0.110769         2607.97         2595.45 
       0.116806          2441.6         2447.53 
       0.122832         2334.34         2327.41 
       0.129052         2181.53         2211.64 
       0.135211         2068.39         2090.59 
       0.141259         1969.43         1960.63 
       0.147318         1851.06         1823.29 
       0.153489         1701.56         1685.39 
       0.159709         1602.05         1558.74 
       0.165845         1530.68         1452.85 
       0.171974         1436.91         1367.88 
       0.178125         1369.29         1300.66 
       0.184229         1318.32         1245.96 
        0.19034         1237.85         1196.44 
       0.196428         1215.37         1146.76 
       0.202534         1174.58         1093.58 
       0.208729         1115.86         1036.13 
       0.214876         1056.51         977.973 
       0.220989          1023.1         922.295 
       0.227147          966.88         871.395 
        0.23329           928.3         827.513 
       0.239377         908.838         790.919 
       0.245482         851.204         759.815 
       0.251667          843.72         731.957 
       0.257832         814.274         705.682 
       0.263955         787.569          679.44 
       0.270079         760.832         652.354 
        0.27624         750.838          624.46 
       0.282372         718.571         596.867 
        0.28843         701.364         570.818 
       0.294538         668.523         546.602 
       0.300721         664.776         524.664 
        0.30691         634.733         505.193 
       0.313033         622.196          487.94 
       0.319153         603.635         471.995 
       0.325316         586.305         456.605 
        0.33145         570.035          441.45 
       0.337538         563.201         426.411 
       0.343633         545.363           411.4 
       0.349808         528.213          396.53 
       0.355968         523.181         382.324 
       0.362074         512.441         369.124 
       0.368217         498.778         356.846 
       0.374374         480.076         345.496 
       0.380519         475.182         334.982 
       0.386598         464.227         325.149 
       0.392688         461.064          315.67 
        0.39888         448.026         306.266 
       0.405048         439.349         297.052 
       0.411186          430.76         288.073 
       0.417313         423.257         279.357 
       0.423458         415.826          270.95 
       0.429607          406.99         262.952 
       0.435692         397.256         255.472 
       0.441815         394.659         248.352 
       0.447964         387.144          241.58 
       0.454126         374.135         235.096 
       0.460267         369.933         228.861 
       0.466387         365.751         222.827 
        0.47254         358.125         216.924 
       0.478662         356.631         211.203 
       0.484765         346.634         205.666 
       0.490885         342.478         200.307 
       0.497035         337.183         195.137 
       0.503198         330.046          190.17 
       0.509342         327.339         185.425 
       0.515458         323.543         180.896 
       0.521598          318.24          176.52 
       0.527764         312.647         172.272 
       0.533884         309.504         168.179 
           0.54         305.359         164.205 
       0.546137         304.058         160.334 
       0.552299         298.077         156.563 
       0.558452         294.915         152.915 
       0.564573         290.139         149.404 
       0.570708         285.336         146.005 
       0.576825         281.607         142.735 
       0.582926         278.731         139.584 
       0.589034         275.264         136.531 
       0.595184          272.76         133.549 
       0.601379         270.238         130.632 
       0.607522         265.013         127.822 
       0.613639         263.956         125.104 
       0.619772         257.788         122.456 
       0.625918         256.297          119.88 
       0.632068         253.065         117.377 
       0.638161         251.921         114.969 
         0.6443         247.637         112.614 
       0.650464         245.501         110.319 
       0.656582         243.991         108.108 
       0.662703         241.076         105.958 
       0.668861         237.472         103.855 
       0.675024         234.972         101.808 
       0.681124         234.045         99.8353 
       0.687237         230.478         97.9099 
       0.693381          227.37         96.0257 
       0.699536         225.804         94.1878 
       0.705665         225.208         92.4065 
       0.711789         221.274         90.6739 
       0.717957         220.162         88.9752 
        0.72409         217.571         87.3306 
       0.730186         214.636         85.7383 
       0.736317         213.213         84.1776 
       0.742472         212.089         82.6503 
       0.748622         210.463         81.1622 
        0.75476         208.631         79.7138 
       0.760888         205.785         78.3028 
       0.767043         204.894         76.9205 
       0.773185         202.726         75.5745 
       0.779291         199.548         74.2686 
       0.785407         198.823          72.992 
       0.791564         197.002         71.7377 
       0.797719         194.732         70.5139 
       0.803834         193.869         69.3267 
       0.809972         191.678         68.1629 
       0.816124         191.765         67.0236 
       0.822261         188.965         65.9136 
       0.828378         187.434         64.8323 
       0.834502         187.203         63.7745 
       0.840667         184.261         62.7335 
       0.846816         183.191         61.7189 
       0.852925         181.795         60.7332 
       0.859047         180.049         59.7671 
       0.865192         179.054          58.819 
       0.871341         177.144          57.891 
       0.877463         176.056         56.9874 
       0.883569         174.587         56.1054 
       0.889708         173.438         55.2378 
       0.895864         171.648         54.3863 
       0.902008         170.802         53.5548 
       0.908149         169.905         52.7413 
       0.914301         168.039         51.9434 
       0.920448         166.945         51.1629 
       0.926574          166.11         50.4013 
       0.932687          165.16         49.6569 
       0.938823         163.221          48.925 
       0.944975         161.995         48.2062 
       0.951105         161.191         47.5045 
       0.957225         159.238         46.8181 
       0.963368         158.168         46.1429 
       0.969511         157.564         45.4812 
       0.975621         156.783          44.836 
       0.981748         155.987         44.2018 
       0.987916         154.084         43.5759 
        0.99406         153.458         42.9646 
        1.00019         152.533         42.3662 
        1.00632         151.384         41.7799 
        1.01246         150.384         41.2038 
        1.01859         148.844         40.6395 
        1.02471         148.737         40.0866 
        1.03085         147.172         39.5421 
        1.03698         145.993         39.0089 
        1.04314         145.038         38.4834 
        1.04929         144.117         37.9687 
        1.05541         143.371         37.4657 
        1.06154         142.367         36.9705 
        1.06769         142.128         36.4836 
        1.07382         141.228         36.0071 
        1.07993         140.131         35.5402 
        1.08607         138.994         35.0798 
        1.09222         138.296          34.627 
        1.09836         137.161         34.1828 
        1.10449         136.311          33.747 
        1.11063          135.54         33.3183 
        1.11677         135.003         32.8973 
         1.1229          133.54         32.4843 
        1.12903          132.73          32.078 
        1.13518         132.826         31.6784 
        1.14131         131.463         31.2859 
        1.14745         130.658         30.9003 
        1.15359         129.817         30.5211 
        1.15973         129.514         30.1481 
        1.16584         128.349         29.7831 
        1.17197         127.645         29.4237 
        1.17811         126.928         29.0691 
        1.18424         126.044         28.7214 
        1.19038         125.441         28.3784 
        1.19652         124.754         28.0411 
        1.20267         123.857         27.7094 
        1.20881         123.119         27.3831 
        1.21495          122.31         27.0626 
        1.22108         121.695         26.7473 
         1.2272         120.892         26.4377 
        1.23334         120.254         26.1324 
        1.23949         119.005         25.8312 
        1.24562         118.929         25.5356 
        1.25174         117.859          25.245 
        1.25789         117.355         24.9581 
        1.26402         116.911         24.6762 
        1.27014         115.875         24.3993 
        1.27628         115.533         24.1259 
        1.28244         114.669         23.8562 
        1.28858         114.173         23.5909 
        1.29471         113.297         23.3303 
        1.30084         112.685         23.0739 
        1.30697         112.055         22.8209 
        1.31312         111.719         22.5714 
        1.31925         110.922         22.3265 
        1.32537         110.506         22.0854 
        1.33151         109.386          21.847 
        1.33765         108.905         21.6123 
        1.34378         108.181         21.3815 
        1.34992         108.058         21.1539 
        1.35606         107.332         20.9292 
         1.3622         106.435         20.7082 
        1.36833         106.124         20.4908 
        1.37445         105.331         20.2767 
        1.38059         104.873         20.0651 
        1.38675         104.177         19.8559 
        1.39288         103.573         19.6506 
        1.39901         103.362         19.4483 
        1.40515         102.813         19.2484 
         1.4113         101.712         19.0513 
        1.41742         101.656         18.8578 
        1.42355         100.796         18.6667 
         1.4297         100.307         18.4776 
        1.43585         99.6269         18.2912 
        1.44198          99.371          18.108 
        1.44809         98.6267         17.9278 
        1.45423          98.069         17.7493 
        1.46036         97.7496         17.5736 
        1.46649         97.1903         17.4002 
        1.47263         96.7499          17.229 
        1.47877         96.3411         17.0602 
        1.48491         95.6295         16.8934 
        1.49104         95.1034         16.7292 
        1.49718         94.6083         16.5671 
        1.50333         94.0795         16.4068 
        1.50947         93.4125          16.249 
         1.5156         93.2581         16.0935 
        1.52172         92.5143         15.9401 
        1.52787         92.3607         15.7884 
          1.534         91.8481         15.6388 
        1.54013         91.1043         15.4913 
        1.54627         90.6353         15.3454 
        1.55241         90.1723         15.2014 
        1.55855         89.8137         15.0595 
        1.56467         89.1861         14.9197 
         1.5708          88.798         14.7814 
        1.57695         88.5439         14.6446 
        1.58308         87.7162         14.5098 
        1.58922         87.5907         14.3767 
        1.59535         87.2046         14.2452 
         1.6015         86.5762         14.1153 
        1.60764          86.227          13.987 
        1.61376         85.6733         13.8607 
        1.61989         85.2739         13.7358 
        1.62604         84.7944         13.6122 
        1.63218         84.6012         13.4902 
        1.63831         84.0066         13.3699 
        1.64444         83.6207         13.2511 
        1.65059         82.9177         13.1335 
        1.65673         82.6568         13.0174 
        1.66285         82.3014         12.9031 
        1.66898         81.8425           12.79 
        1.67512         81.2681         12.6782 
        1.68127         80.8888         12.5675 
         1.6874         80.5347         12.4584 
        1.69353         80.1762         12.3507 
        1.69967         79.6695          12.244 
        1.70581         79.4307         12.1386 
        1.71193         79.1301         12.0349 
        1.71806         78.4367         11.9321 
        1.72421         78.2907         11.8304 
        1.73035         77.7505         11.7299 
        1.73649         77.3371         11.6307 
        1.74262         77.0391         11.5326 
        1.74876         76.6545         11.4357 
        1.75489         76.1458           11.34 
        1.76101         75.8855         11.2455 
        1.76715          75.427         11.1519 
        1.77329           75.12         11.0593 
        1.77943         74.7433         10.9677 
        1.78557          74.413         10.8772 
        1.79171         73.9803         10.7878 
        1.79785         73.7518         10.6994 
        1.80399          73.239         10.6119 
        1.81012         73.0344         10.5256 
        1.81625         72.4297         10.4402 
        1.82239         72.1001         10.3557 
        1.82853         71.7623         10.2722 
        1.83466         71.4358         10.1896 
        1.84078         70.9596         10.1081 
        1.84692         70.6625         10.0273 
        1.85306         70.3924         9.94729 
         1.8592         69.8334         9.86828 
        1.86533         69.5902         9.79018 
        1.87147         69.1862         9.71284 
        1.87761         68.8944          9.6363 
        1.88375         68.7241         9.56068 
        1.88988         68.4313         9.48594 
        1.89601         67.8926         9.41197 
        1.90215         67.6296         9.33873 
        1.90829         67.3777          9.2663 
        1.91442         66.9252         9.19463 
        1.92056         66.5955         9.12379 
         1.9267         66.2453         9.05361 
        1.93284         65.8343         8.98414 
        1.93897         65.5833         8.91553 
        1.94509         65.1128         8.84778 
        1.95123         64.9782         8.78056 
        1.95737         64.7663         8.71399 
        1.96349         64.3829         8.64829 
        1.96964         64.0747         8.58307 
        1.97578         63.7275          8.5185 
        1.98192         63.4943         8.45472 
        1.98805         63.2427         8.39159 
        1.99419         62.7792          8.3291 
        2.00033         62.5226         8.26722 
        2.00647         62.2887         8.20598 
         2.0126         61.8332         8.14547 
        2.01874         61.5197         8.08547 
        2.02488         61.4043         8.02603 
        2.03101         60.9954          7.9673 
        2.03714         60.6529          7.9092 
        2.04328         60.3951         7.85163 
        2.04941         60.0467         7.79467 
        2.05554          59.686         7.73832 
        2.06167         59.6363         7.68244 
        2.06781         59.2648         7.62711 
        2.07396         58.8898         7.57225 
        2.08009           58.72         7.51802 
        2.08622         58.3087         7.46439 
        2.09237         58.1021         7.41117 
        2.09851         57.8303         7.35847 
        2.10464         57.5104         7.30636 
        2.11077         57.2926         7.25482 
        2.11691         56.9233         7.20366 
        2.12305         56.6051           7.153 
        2.12918           56.33         7.10294 
        2.13531         56.1155         7.05336 
        2.14145         55.8514         7.00414 
         2.1476         55.6676         6.95533 
        2.15372          55.318         6.90723 
        2.15985         55.0685         6.85954 
        2.16599         54.8332         6.81216 
        2.17213         54.6468         6.76528 
        2.17827          54.287         6.71886 
         2.1844         53.8877         6.67291 
        2.19054         53.7038         6.62737 
        2.19666         53.5389         6.58232 
         2.2028         53.3318         6.53765 
        2.20893         53.0645         6.49337 
        2.21508         52.8489         6.44946 
        2.22122         52.5513         6.40593 
        2.22736         52.2424          6.3629 
        2.23349         52.0704         6.32027 
        2.23962         51.7137         6.27801 
        2.24577         51.4742          6.2361 
         2.2519         51.2814         6.19463 
        2.25802         51.1139          6.1536 
        2.26417         50.7631         6.11283 
        2.27031         50.5713          6.0724 
        2.27644         50.2026         6.03244 
        2.28257         50.0921         5.99285 
        2.28872         49.7289         5.95354 
        2.29486         49.5403         5.91459 
        2.30099         49.3673         5.87606 
        2.30712         49.1222         5.83787 
        2.31326         48.8803         5.79994 
         2.3194         48.6248         5.76238 
        2.32553          48.433         5.72521 
        2.33166         48.1456         5.68839 
         2.3378         47.8727         5.65184 
        2.34394         47.5565          5.6156 
        2.35007         47.4098         5.57973 
        2.35619         47.3292         5.54421 
        2.36233         47.1217         5.50892 
        2.36848         46.7057         5.47386 
        2.37462         46.6275         5.43919 
        2.38075         46.3402         5.40484 
        2.38689         46.1987         5.37077 
        2.39303         46.0067         5.33699 
        2.39916         45.7967         5.30354 
        2.40529         45.4819         5.27037 
        2.41143         45.2712         5.23747 
        2.41757         45.1102         5.20483 
         2.4237         44.9246         5.17253 
        2.42983         44.6742         5.14051 
        2.43598         44.4353         5.10868 
        2.44211         44.2759         5.07716 
        2.44823         44.0138         5.04599 
        2.45437         43.8437         5.01499 
        2.46052         43.5621         4.98422 
        2.46665         43.4251         4.95377 
        2.47279         43.2512         4.92358 
        2.47892         42.9855         4.89362 
        2.48507         42.8171         4.86388 
         2.4912         42.6544         4.83445 
