# k  (h/Mpc)    P(k)  (Mpc/h)^3    P_linear(k)  (Mpc/h)^3
     0.00783031         636.825         643.204 
       0.013688         820.742         822.674 
       0.019231         863.432         863.987 
      0.0249154         826.938         831.229 
      0.0312784         751.946         752.943 
      0.0375637         668.827         667.768 
      0.0433917         597.923         598.918 
      0.0492413         545.066         544.754 
      0.0555754         499.122          500.95 
      0.0619321         467.966          466.42 
       0.067871         435.553         436.808 
      0.0738098         404.486         405.968 
      0.0800417          368.94         371.152 
      0.0862327         334.543         335.549 
      0.0921407         302.947         303.236 
      0.0982031         273.433         274.227 
       0.104506         250.881         249.971 
       0.110769         232.441         231.769 
       0.116806         218.093         218.561 
       0.122832         208.152         207.836 
       0.129052         196.865         197.499 
       0.135211         185.952          186.69 
       0.141259          175.11         175.085 
       0.147318         163.484         162.821 
       0.153489         150.754         150.507 
       0.159709         139.675         139.197 
       0.165845         131.222         129.741 
       0.171974         122.735         122.154 
       0.178125         116.888         116.151 
       0.184229         112.269         111.266 
        0.19034         106.903         106.844 
       0.196428          103.09         102.408 
       0.202534         99.0214         97.6593 
       0.208729         93.5122         92.5293 
       0.214876         87.9209         87.3354 
       0.220989         83.8522         82.3634 
       0.227147         78.5572         77.8179 
        0.23329         74.7436         73.8992 
       0.239377         71.7161         70.6313 
       0.245482         68.5094         67.8537 
       0.251667         66.5807         65.3659 
       0.257832         64.1122         63.0196 
       0.263955         61.7915         60.6761 
       0.270079         59.4368         58.2573 
        0.27624         57.3728         55.7663 
       0.282372           54.89         53.3022 
        0.28843         52.3528         50.9759 
       0.294538         50.2165         48.8134 
       0.300721         48.6015         46.8543 
        0.30691         46.5485         45.1155 
       0.313033         45.0527         43.5747 
       0.319153         43.1411         42.1508 
       0.325316          42.377         40.7765 
        0.33145         40.8834         39.4231 
       0.337538         39.6073           38.08 
       0.343633         38.1676         36.7395 
       0.349808         36.9608         35.4116 
       0.355968         35.7264         34.1429 
       0.362074         34.5143         32.9642 
       0.368217         33.4602         31.8677 
       0.374374         32.3142         30.8541 
       0.380519         31.5013         29.9152 
       0.386598         30.6555          29.037 
       0.392688         29.9123         28.1905 
        0.39888         29.0034         27.3507 
       0.405048         28.2516         26.5279 
       0.411186          27.509          25.726 
       0.417313          26.566         24.9477 
       0.423458          25.881         24.1969 
       0.429607         25.1043         23.4826 
       0.435692         24.3882         22.8146 
       0.441815         23.8316         22.1789 
       0.447964         23.3767          21.574 
       0.454126         22.5713          20.995 
       0.460267         22.0633         20.4382 
       0.466387         21.4117         19.8994 
        0.47254         21.0089         19.3722 
       0.478662         20.5602         18.8612 
       0.484765         19.9752         18.3668 
       0.490885         19.4807         17.8882 
       0.497035         19.1896         17.4265 
       0.503198         18.6732          16.983 
       0.509342         18.2303         16.5592 
       0.515458         17.7859         16.1548 
       0.521598         17.4368          15.764 
       0.527764         17.0142         15.3846 
       0.533884         16.7113          15.019 
           0.54         16.3382         14.6642 
       0.546137         16.0202         14.3185 
       0.552299         15.7035         13.9817 
       0.558452         15.2368          13.656 
       0.564573         15.0173         13.3424 
       0.570708         14.7181         13.0388 
       0.576825         14.3398         12.7468 
       0.582926         14.0997         12.4655 
       0.589034         13.6985         12.1928 
       0.595184         13.4856         11.9264 
       0.601379         13.2031          11.666 
       0.607522         13.0057          11.415 
       0.613639         12.8284         11.1723 
       0.619772         12.4853         10.9359 
       0.625918         12.3451         10.7058 
       0.632068         12.1422         10.4823 
       0.638161         11.8531         10.2673 
         0.6443         11.6111         10.0569 
       0.650464         11.3732         9.85197 
       0.656582         11.2609         9.65446 
       0.662703         11.0544         9.46249 
       0.668861         10.8624         9.27472 
       0.675024         10.6383         9.09188 
       0.681124         10.4475         8.91572 
       0.687237         10.2948         8.74377 
       0.693381         10.1426         8.57551 
       0.699536         9.86843         8.41137 
       0.705665          9.7478         8.25229 
       0.711789         9.59337         8.09757 
       0.717957         9.42725         7.94587 
        0.72409         9.26956           7.799 
       0.730186         9.13709          7.6568 
       0.736317         9.03985         7.51742 
       0.742472         8.89247         7.38102 
       0.748622         8.73536         7.24813 
        0.75476         8.54686         7.11878 
       0.760888         8.44695         6.99278 
       0.767043         8.34524         6.86933 
       0.773185          8.1729         6.74913 
       0.779291         8.09252         6.63251 
       0.785407         7.96082          6.5185 
       0.791564         7.83504         6.40648 
       0.797719         7.71808         6.29719 
       0.803834         7.63699         6.19117 
       0.809972         7.54491         6.08724 
       0.816124         7.39248          5.9855 
       0.822261         7.27679         5.88637 
       0.828378         7.19082         5.78981 
       0.834502         7.11952         5.69534 
       0.840667         6.98136         5.60238 
       0.846816         6.87226         5.51176 
       0.852925         6.81068         5.42374 
       0.859047         6.71776         5.33746 
       0.865192         6.64584          5.2528 
       0.871341         6.56408         5.16992 
       0.877463         6.47292         5.08922 
       0.883569         6.35982         5.01046 
       0.889708         6.25896         4.93297 
       0.895864          6.2033         4.85694 
       0.902008         6.11664         4.78268 
       0.908149          6.0483         4.71002 
       0.914301         5.94596         4.63877 
       0.920448         5.86911         4.56907 
       0.926574          5.7908         4.50106 
       0.932687         5.73843         4.43458 
       0.938823          5.6681         4.36921 
       0.944975         5.59023         4.30502 
       0.951105         5.53339         4.24236 
       0.957225         5.49996         4.18106 
       0.963368         5.41769         4.12077 
       0.969511         5.34679         4.06167 
       0.975621         5.26955         4.00406 
       0.981748         5.22023         3.94742 
       0.987916         5.16098         3.89152 
        0.99406          5.0771         3.83693 
        1.00019         5.01863         3.78349 
        1.00632         4.97793         3.73113 
        1.01246         4.92275         3.67968 
        1.01859          4.8626         3.62929 
        1.02471         4.80516         3.57991 
        1.03085         4.75507         3.53128 
        1.03698         4.69154         3.48367 
        1.04314         4.65026         3.43673 
        1.04929         4.58885         3.39078 
        1.05541         4.54013         3.34585 
        1.06154         4.49585         3.30163 
        1.06769         4.46161         3.25815 
        1.07382         4.39685         3.21559 
        1.07993          4.3406          3.1739 
        1.08607         4.31646         3.13278 
        1.09222         4.26507         3.09235 
        1.09836         4.23063         3.05268 
        1.10449          4.1809         3.01376 
        1.11063         4.13386         2.97547 
        1.11677         4.09343         2.93787 
         1.1229         4.05024         2.90099 
        1.12903         4.00486         2.86471 
        1.13518         3.97162         2.82902 
        1.14131         3.91571         2.79397 
        1.14745         3.86204         2.75953 
        1.15359         3.84575         2.72567 
        1.15973         3.79396         2.69236 
        1.16584         3.77093         2.65977 
        1.17197         3.73092         2.62767 
        1.17811         3.69608           2.596 
        1.18424         3.67229         2.56495 
        1.19038         3.63201         2.53431 
        1.19652         3.59608          2.5042 
        1.20267         3.56243         2.47457 
        1.20881         3.52313         2.44543 
        1.21495         3.49741         2.41681 
        1.22108         3.46305         2.38865 
         1.2272         3.44314         2.36101 
        1.23334         3.39692         2.33374 
        1.23949         3.36256         2.30684 
        1.24562         3.34515         2.28044 
        1.25174         3.30263         2.25449 
        1.25789         3.27856         2.22887 
        1.26402         3.24062          2.2037 
        1.27014         3.21054         2.17897 
        1.27628         3.19726         2.15455 
        1.28244         3.15395         2.13046 
        1.28858         3.13564         2.10677 
        1.29471         3.10339          2.0835 
        1.30084         3.07345          2.0606 
        1.30697         3.06049         2.03801 
        1.31312         3.00852         2.01573 
        1.31925         2.99832         1.99385 
        1.32537         2.97219         1.97232 
        1.33151         2.95186         1.95103 
        1.33765         2.91502         1.93007 
        1.34378         2.88975         1.90946 
        1.34992         2.88107         1.88914 
        1.35606          2.8408         1.86907 
         1.3622         2.82791         1.84933 
        1.36833          2.8024         1.82992 
        1.37445         2.77648         1.81081 
        1.38059         2.75804          1.7919 
        1.38675         2.74525         1.77322 
        1.39288         2.71054         1.75489 
        1.39901         2.68714         1.73682 
        1.40515           2.669         1.71897 
         1.4113         2.64817         1.70137 
        1.41742         2.62856         1.68409 
        1.42355         2.61554         1.66702 
         1.4297         2.58252         1.65013 
        1.43585         2.57093         1.63348 
        1.44198         2.55573         1.61713 
        1.44809         2.52209         1.60103 
        1.45423         2.50534         1.58509 
        1.46036         2.48701          1.5694 
        1.46649         2.46528         1.55392 
        1.47263         2.44557         1.53863 
        1.47877         2.42306         1.52356 
        1.48491         2.40686         1.50866 
        1.49104         2.39418           1.494 
        1.49718         2.37782         1.47952 
        1.50333         2.35726         1.46521 
        1.50947         2.34303         1.45111 
         1.5156         2.32456         1.43723 
        1.52172         2.30749         1.42352 
        1.52787         2.28854         1.40997 
          1.534         2.27608         1.39661 
        1.54013         2.25481         1.38344 
        1.54627         2.23495         1.37042 
        1.55241          2.2193         1.35756 
        1.55855         2.20802         1.34488 
        1.56467         2.19287          1.3324 
         1.5708         2.16906         1.32004 
        1.57695         2.16124         1.30783 
        1.58308         2.14461         1.29579 
        1.58922         2.13181          1.2839 
        1.59535         2.11614         1.27216 
         1.6015         2.10199         1.26056 
        1.60764         2.08962          1.2491 
        1.61376         2.07378         1.23782 
        1.61989          2.0583         1.22667 
        1.62604         2.04298         1.21563 
        1.63218         2.03625         1.20473 
        1.63831          2.0135           1.194 
        1.64444         2.00052         1.18339 
        1.65059         1.99157         1.17288 
        1.65673         1.97679         1.16251 
        1.66285         1.96063          1.1523 
        1.66898         1.95255         1.14221 
        1.67512         1.93406         1.13222 
        1.68127         1.92305         1.12234 
         1.6874         1.91448          1.1126 
        1.69353         1.89418         1.10298 
        1.69967         1.88364         1.09345 
        1.70581         1.87835         1.08404 
        1.71193         1.86185         1.07477 
        1.71806         1.85388          1.0656 
        1.72421         1.83974         1.05651 
        1.73035         1.82672         1.04754 
        1.73649         1.81601         1.03867 
        1.74262         1.80483         1.02992 
        1.74876          1.7953         1.02126 
        1.75489         1.77918         1.01272 
        1.76101         1.76885         1.00428 
        1.76715         1.75908        0.995918 
        1.77329         1.74844        0.987646 
        1.77943          1.7354        0.979465 
        1.78557          1.7252        0.971388 
        1.79171         1.71875        0.963401 
        1.79785         1.70495        0.955502 
        1.80399         1.69643        0.947693 
        1.81012          1.6891        0.939983 
        1.81625         1.67389        0.932361 
        1.82239         1.66441        0.924813 
        1.82853         1.64892        0.917352 
        1.83466         1.64469         0.90998 
        1.84078         1.63381        0.902698 
        1.84692         1.62655        0.895483 
        1.85306          1.6142        0.888339 
         1.8592         1.60698        0.881284 
        1.86533         1.59581        0.874309 
        1.87147         1.58868        0.867402 
        1.87761         1.57912        0.860567 
        1.88375         1.56438        0.853813 
        1.88988         1.56095        0.847139 
        1.89601         1.54928        0.840533 
        1.90215         1.53916        0.833992 
        1.90829         1.53029        0.827524 
        1.91442         1.52174        0.821123 
        1.92056          1.5141        0.814797 
         1.9267         1.50607         0.80853 
        1.93284         1.49971        0.802326 
        1.93897         1.48995        0.796198 
        1.94509         1.47973        0.790148 
        1.95123         1.47033        0.784145 
        1.95737         1.46324          0.7782 
        1.96349         1.45427        0.772333 
        1.96964         1.44798        0.766508 
        1.97578         1.43961        0.760742 
        1.98192         1.43396        0.755046 
        1.98805         1.42217        0.749408 
        1.99419         1.41719        0.743828 
        2.00033         1.41309        0.738301 
        2.00647         1.40005        0.732833 
         2.0126         1.39542        0.727429 
        2.01874         1.38607        0.722071 
        2.02488         1.37962        0.716762 
        2.03101         1.36955        0.711517 
        2.03714          1.3601        0.706329 
        2.04328         1.35781        0.701187 
        2.04941         1.34795        0.696101 
        2.05554         1.34274        0.691068 
        2.06167         1.33365        0.686078 
        2.06781         1.32768        0.681137 
        2.07396         1.31928        0.676238 
        2.08009         1.31373        0.671395 
        2.08622         1.30447        0.666605 
        2.09237         1.30333        0.661853 
        2.09851         1.29554        0.657146 
        2.10464          1.2894        0.652492 
        2.11077         1.28037         0.64789 
        2.11691         1.27253        0.643321 
        2.12305         1.26849        0.638797 
        2.12918         1.26089        0.634326 
        2.13531          1.2558        0.629899 
        2.14145         1.24735        0.625503 
         2.1476         1.24121        0.621144 
        2.15372         1.23599        0.616849 
        2.15985         1.22877         0.61259 
        2.16599         1.22194        0.608358 
        2.17213         1.21644        0.604172 
        2.17827         1.21302        0.600026 
         2.1844         1.20655        0.595922 
        2.19054         1.20208        0.591856 
        2.19666         1.19388        0.587833 
         2.2028         1.18888        0.583843 
        2.20893         1.18064        0.579889 
        2.21508         1.17849        0.575967 
        2.22122         1.16893         0.57208 
        2.22736         1.16273        0.568237 
        2.23349          1.1625         0.56443 
        2.23962         1.15327        0.560656 
        2.24577         1.14705        0.556914 
         2.2519         1.14181         0.55321 
        2.25802          1.1387        0.549546 
        2.26417         1.12961        0.545905 
        2.27031         1.12683        0.542294 
        2.27644         1.12129        0.538726 
        2.28257         1.11661         0.53519 
        2.28872         1.11001        0.531679 
        2.29486         1.10636        0.528201 
        2.30099         1.09948        0.524761 
        2.30712         1.09555         0.52135 
        2.31326         1.09164        0.517963 
         2.3194         1.08659        0.514608 
        2.32553         1.08163        0.511289 
        2.33166          1.0753        0.508001 
         2.3378         1.06976        0.504736 
        2.34394         1.06363          0.5015 
        2.35007         1.05972        0.498296 
        2.35619         1.05697        0.495125 
        2.36233         1.04948        0.491973 
        2.36848         1.04651        0.488842 
        2.37462         1.04113        0.485746 
        2.38075         1.03813        0.482679 
        2.38689         1.03226        0.479635 
        2.39303         1.02896        0.476619 
        2.39916         1.02158        0.473631 
        2.40529         1.02028         0.47067 
        2.41143         1.01476        0.467732 
        2.41757         1.00955        0.464817 
         2.4237         1.00609        0.461932 
        2.42983         1.00131        0.459073 
        2.43598        0.997404         0.45623 
        2.44211        0.993005        0.453415 
        2.44823        0.988207        0.450631 
        2.45437        0.984707        0.447863 
        2.46052        0.982269        0.445115 
        2.46665        0.977001        0.442395 
        2.47279        0.972354        0.439699 
        2.47892        0.966887        0.437024 
        2.48507        0.963781        0.434368 
         2.4912        0.959313         0.43174 
