# k  (h/Mpc)    P(k)  (Mpc/h)^3    P_linear(k)  (Mpc/h)^3
     0.00783031         6378.04            6427 
       0.013688         8142.53          8311.7 
       0.019231         8730.17         8833.48 
      0.0249154         8608.14         8618.41 
      0.0312784         7856.98          7931.8 
      0.0375637         7017.21         7126.51 
      0.0433917         6396.38         6440.11 
      0.0492413         5789.23         5874.31 
      0.0555754          5353.6         5399.13 
      0.0619321          4859.5         5021.95 
       0.067871         4612.39         4709.62 
      0.0738098         4325.62         4398.52 
      0.0800417         3997.36         4055.45 
      0.0862327         3632.76         3702.69 
      0.0921407          3316.1         3373.71 
      0.0982031         3042.95         3065.97 
       0.104506         2744.03         2795.13 
       0.110769         2543.73            2581 
       0.116806          2426.3         2420.53 
       0.122832         2271.56         2292.26 
       0.129052         2164.61         2177.07 
       0.135211         2083.63         2066.07 
       0.141259         1947.99         1951.92 
       0.147318            1807         1831.14 
       0.153489         1705.67          1705.8 
       0.159709         1621.39         1584.43 
       0.165845         1482.36         1476.43 
       0.171974         1439.07         1384.31 
       0.178125         1377.93         1308.22 
       0.184229          1282.2         1246.35 
        0.19034         1254.09         1193.61 
       0.196428         1213.41         1145.36 
       0.202534         1139.86         1097.39 
       0.208729         1116.14            1047 
       0.214876         1072.45         995.204 
       0.220989         1005.05         943.397 
       0.227147         981.701         893.151 
        0.23329         943.747         847.024 
       0.239377          924.26         806.497 
       0.245482         877.946         771.191 
       0.251667         844.244         740.115 
       0.257832         835.003         712.482 
       0.263955         792.043         686.844 
       0.270079         767.871         661.789 
        0.27624         735.958         636.514 
       0.282372          720.93         611.177 
        0.28843         715.254         586.366 
       0.294538         679.715         562.169 
       0.300721         658.401         539.137 
        0.30691         647.876         517.941 
       0.313033         621.378         498.901 
       0.319153         611.194         481.601 
       0.325316         599.022         465.537 
        0.33145         586.295         450.459 
       0.337538         566.246         436.015 
       0.343633          549.88         421.829 
       0.349808         536.326          407.68 
       0.355968         526.165          393.84 
       0.362074         511.663         380.564 
       0.368217         506.848         367.806 
       0.374374         497.032         355.748 
       0.380519         477.841          344.48 
       0.386598         471.907         334.039 
       0.392688         462.475         324.195 
        0.39888         450.395         314.671 
       0.405048         443.387         305.552 
       0.411186         440.368         296.757 
       0.417313         433.714           288.2 
       0.423458         421.404         279.854 
       0.429607         411.938         271.766 
       0.435692         404.739         264.056 
       0.441815         398.407         256.629 
       0.447964         389.252         249.521 
       0.454126         384.036         242.731 
       0.460267         378.773         236.275 
       0.466387         372.695         230.113 
        0.47254         367.753         224.144 
       0.478662         358.354         218.399 
       0.484765         354.679         212.847 
       0.490885         350.715         207.447 
       0.497035         345.491         202.184 
       0.503198         343.061         197.085 
       0.509342         334.035         192.182 
       0.515458         330.322         187.483 
       0.521598         323.803          182.94 
       0.527764          319.81         178.547 
       0.533884         319.335         174.345 
           0.54         313.166         170.287 
       0.546137         306.463         166.345 
       0.552299         305.407         162.504 
       0.558452         300.514         158.786 
       0.564573          297.88         155.197 
       0.570708         292.952         151.709 
       0.576825         288.424         148.338 
       0.582926         285.545          145.08 
       0.589034         282.133         141.921 
       0.595184         280.376         138.842 
       0.601379         274.906         135.839 
       0.607522         270.611         132.952 
       0.613639         268.761         130.161 
       0.619772         266.875         127.443 
       0.625918         264.089         124.796 
       0.632068         258.969         122.223 
       0.638161         256.503         119.745 
         0.6443         255.348         117.318 
       0.650464         251.073         114.949 
       0.656582         249.313         112.664 
       0.662703         247.419         110.442 
       0.668861         243.083         108.269 
       0.675024         242.615         106.154 
       0.681124         239.432         104.118 
       0.687237         236.649         102.133 
       0.693381         234.985          100.19 
       0.699536          232.06         98.2943 
       0.705665         229.488         96.4557 
       0.711789         227.428         94.6659 
       0.717957          225.02         92.9096 
        0.72409         223.434          91.208 
       0.730186           223.4         89.5601 
       0.736317         219.575         87.9446 
       0.742472         216.807         86.3638 
       0.748622         213.946         84.8238 
        0.75476         214.545         83.3252 
       0.760888         212.217         81.8654 
       0.767043         209.383         80.4351 
       0.773185         207.589         79.0422 
       0.779291          205.01         77.6903 
       0.785407         203.804         76.3685 
       0.791564         202.197         75.0693 
       0.797719         199.635         73.8012 
       0.803834          199.85         72.5708 
       0.809972         198.562         71.3644 
       0.816124         195.904         70.1831 
       0.822261         193.871          69.032 
       0.828378         193.986         67.9104 
       0.834502         190.564         66.8131 
       0.840667          190.16         65.7332 
       0.846816           188.3         64.6803 
       0.852925         186.685         63.6574 
       0.859047          184.94         62.6546 
       0.865192         184.209         61.6702 
       0.871341         181.904         60.7066 
       0.877463         180.681          59.768 
       0.883569         180.445         58.8518 
       0.889708         179.075         57.9503 
       0.895864         177.276         57.0654 
       0.902008         175.837         56.2011 
       0.908149         173.795         55.3553 
       0.914301         173.926         54.5257 
       0.920448         172.629          53.714 
       0.926574         170.441         52.9218 
       0.932687         169.966         52.1473 
       0.938823          168.66         51.3857 
       0.944975         166.871         50.6377 
       0.951105         165.823         49.9074 
       0.957225         165.583         49.1929 
       0.963368         163.745           48.49 
       0.969511         162.187          47.801 
       0.975621         161.197         47.1291 
       0.981748         159.888         46.4686 
       0.987916         159.164         45.8167 
        0.99406         158.245         45.1798 
        1.00019         156.952         44.5564 
        1.00632         156.341         43.9454 
        1.01246         155.108          43.345 
        1.01859         154.018          42.757 
        1.02471         152.849         42.1806 
        1.03085         151.771          41.613 
        1.03698         150.817          41.057 
        1.04314         150.081          40.509 
        1.04929         149.507         39.9723 
        1.05541         148.484         39.4475 
        1.06154         147.574          38.931 
        1.06769         146.138          38.423 
        1.07382         145.322         37.9257 
        1.07993         144.674         37.4385 
        1.08607         143.364         36.9579 
        1.09222          143.01         36.4852 
        1.09836          141.51         36.0214 
        1.10449         140.683         35.5663 
        1.11063         139.842         35.1186 
        1.11677         139.132         34.6788 
         1.1229         138.051         34.2473 
        1.12903          137.67         33.8228 
        1.13518         136.777         33.4052 
        1.14131         135.985         32.9949 
        1.14745          134.91         32.5918 
        1.15359         133.638         32.1954 
        1.15973         133.228         31.8054 
        1.16584         132.444         31.4237 
        1.17197         131.764         31.0478 
        1.17811         130.799         30.6769 
        1.18424         129.959         30.3131 
        1.19038         129.708         29.9543 
        1.19652         128.599         29.6014 
        1.20267         127.779         29.2542 
        1.20881         127.044         28.9128 
        1.21495         126.651         28.5773 
        1.22108         125.676         28.2472 
         1.2272         124.736         27.9232 
        1.23334         124.385         27.6035 
        1.23949         123.773         27.2881 
        1.24562         122.653         26.9786 
        1.25174         121.766         26.6743 
        1.25789         121.775         26.3739 
        1.26402         120.824         26.0786 
        1.27014         120.213         25.7886 
        1.27628         118.983         25.5021 
        1.28244         118.785         25.2195 
        1.28858         117.894         24.9415 
        1.29471         117.216         24.6684 
        1.30084         116.541         24.3997 
        1.30697         116.424         24.1345 
        1.31312         115.437          23.873 
        1.31925         114.725         23.6162 
        1.32537         114.134         23.3634 
        1.33151         113.925         23.1134 
        1.33765          112.77         22.8672 
        1.34378         112.711         22.6252 
        1.34992          112.05         22.3865 
        1.35606         111.218         22.1507 
         1.3622         110.869         21.9187 
        1.36833         109.824         21.6907 
        1.37445         109.232          21.466 
        1.38059         108.891         21.2438 
        1.38675         108.014         21.0242 
        1.39288         107.774         20.8087 
        1.39901         106.642         20.5962 
        1.40515         106.545         20.3863 
         1.4113         105.976         20.1794 
        1.41742         105.258         19.9761 
        1.42355          104.69         19.7753 
         1.4297         104.124         19.5767 
        1.43585          103.43         19.3808 
        1.44198         102.952         19.1885 
        1.44809         102.328         18.9991 
        1.45423         101.806         18.8115 
        1.46036         101.035         18.6269 
        1.46649         100.713         18.4446 
        1.47263         100.278         18.2647 
        1.47877         99.7905         18.0873 
        1.48491         99.0908         17.9119 
        1.49104         98.3101         17.7393 
        1.49718         98.1772         17.5688 
        1.50333         97.5782         17.4003 
        1.50947         97.2534         17.2344 
         1.5156         96.7041         17.0709 
        1.52172         96.0495         16.9095 
        1.52787         95.4577         16.7499 
          1.534         95.2369         16.5925 
        1.54013         94.7692         16.4373 
        1.54627         93.9401         16.2839 
        1.55241         93.4422         16.1324 
        1.55855         93.1781          15.983 
        1.56467         92.2695         15.8359 
         1.5708         92.1163         15.6903 
        1.57695          91.671         15.5463 
        1.58308         91.1695         15.4045 
        1.58922         90.7685         15.2643 
        1.59535         90.3598         15.1259 
         1.6015         90.0934          14.989 
        1.60764          89.522         14.8539 
        1.61376         88.8861         14.7209 
        1.61989          88.186         14.5894 
        1.62604         87.9535         14.4592 
        1.63218         87.6652         14.3306 
        1.63831         87.1383          14.204 
        1.64444         86.7403         14.0788 
        1.65059         86.3158         13.9548 
        1.65673         85.6169         13.8325 
        1.66285         85.1982          13.712 
        1.66898         84.6397         13.5929 
        1.67512         84.5643         13.4749 
        1.68127         84.0462         13.3583 
         1.6874         83.5128         13.2433 
        1.69353         83.1976         13.1298 
        1.69967         82.8483         13.0173 
        1.70581         82.3815         12.9062 
        1.71193         81.9257         12.7968 
        1.71806         81.3228         12.6884 
        1.72421         81.1172         12.5811 
        1.73035         80.8865         12.4751 
        1.73649         80.3237         12.3704 
        1.74262         79.6426          12.267 
        1.74876         79.4685         12.1647 
        1.75489         78.8278         12.0638 
        1.76101          78.501         11.9641 
        1.76715         78.4308         11.8653 
        1.77329         77.6873         11.7676 
        1.77943         77.5318         11.6709 
        1.78557         77.2366         11.5755 
        1.79171         76.6908         11.4811 
        1.79785         76.3215         11.3877 
        1.80399         75.9266         11.2954 
        1.81012         75.5362         11.2042 
        1.81625         75.3145         11.1141 
        1.82239         74.9854         11.0249 
        1.82853         74.4685         10.9367 
        1.83466         74.0993         10.8495 
        1.84078         73.6982         10.7634 
        1.84692         73.4136          10.678 
        1.85306          73.068         10.5935 
         1.8592         72.7572         10.5101 
        1.86533         72.2063         10.4276 
        1.87147         71.9151         10.3459 
        1.87761         71.4752          10.265 
        1.88375         71.1423         10.1851 
        1.88988         70.8732         10.1061 
        1.89601         70.4152         10.0279 
        1.90215         70.1042         9.95052 
        1.90829         69.8911         9.87397 
        1.91442         69.4756         9.79822 
        1.92056         69.0829         9.72333 
         1.9267         68.7765         9.64915 
        1.93284         68.6085         9.57571 
        1.93897         68.2404         9.50316 
        1.94509         67.7512         9.43153 
        1.95123         67.4286         9.36046 
        1.95737         67.0074         9.29006 
        1.96349         66.7197         9.22058 
        1.96964         66.4123         9.15161 
        1.97578         66.1128         9.08331 
        1.98192         65.8217         9.01585 
        1.98805         65.4685         8.94907 
        1.99419         65.1313         8.88296 
        2.00033         64.7777         8.81749 
        2.00647         64.5487         8.75271 
         2.0126         64.1524         8.68868 
        2.01874         63.8863          8.6252 
        2.02488         63.5619         8.56229 
        2.03101         63.2786         8.50014 
        2.03714          63.075         8.43865 
        2.04328         62.6928         8.37771 
        2.04941         62.3006         8.31743 
        2.05554         62.1505         8.25778 
        2.06167         61.9607         8.19863 
        2.06781         61.3277         8.14006 
        2.07396         61.1044         8.08197 
        2.08009         60.9877         8.02456 
        2.08622         60.5884         7.96777 
        2.09237         60.2487         7.91141 
        2.09851         59.9478          7.8556 
        2.10464         59.6911         7.80041 
        2.11077         59.4445         7.74582 
        2.11691         59.0618         7.69164 
        2.12305         58.8057         7.63797 
        2.12918         58.5276         7.58494 
        2.13531         58.3053         7.53241 
        2.14145         57.9127         7.48026 
         2.1476         57.6916         7.42854 
        2.15372         57.5134         7.37758 
        2.15985         57.1055         7.32704 
        2.16599         56.8905         7.27683 
        2.17213          56.653         7.22715 
        2.17827         56.3428         7.17794 
         2.1844         56.0287         7.12923 
        2.19054          55.777         7.08097 
        2.19666         55.4191         7.03321 
         2.2028         55.2369         6.98586 
        2.20893         54.8874         6.93892 
        2.21508         54.6775         6.89236 
        2.22122         54.4344         6.84621 
        2.22736         54.1181         6.80058 
        2.23349         53.9838         6.75538 
        2.23962         53.6008         6.71057 
        2.24577         53.4884         6.66612 
         2.2519          53.084         6.62214 
        2.25802         52.9254         6.57863 
        2.26417         52.6585         6.53538 
        2.27031         52.4155         6.49249 
        2.27644         52.1774          6.4501 
        2.28257         51.7909          6.4081 
        2.28872         51.7686          6.3664 
        2.29486         51.4631         6.32507 
        2.30099         51.0733         6.28419 
        2.30712         51.0018         6.24366 
        2.31326         50.6071         6.20342 
         2.3194         50.3725         6.16356 
        2.32553         50.2595         6.12412 
        2.33166         49.8404         6.08503 
         2.3378         49.6121         6.04624 
        2.34394         49.4691         6.00777 
        2.35007         49.1524          5.9697 
        2.35619         49.1024           5.932 
        2.36233         48.6951         5.89453 
        2.36848         48.5048         5.85732 
        2.37462         48.2917          5.8205 
        2.38075         48.1372         5.78403 
        2.38689         47.9088         5.74785 
        2.39303         47.7165         5.71199 
        2.39916         47.3899         5.67646 
        2.40529         47.1662         5.64125 
        2.41143         46.9489          5.6063 
        2.41757         46.7318         5.57164 
         2.4237         46.5699         5.53734 
        2.42983         46.2895         5.50332 
        2.43598          46.057          5.4695 
        2.44211         45.9051         5.43603 
        2.44823         45.6542         5.40291 
        2.45437         45.4809         5.36997 
        2.46052         45.1505         5.33728 
        2.46665         44.9816         5.30492 
        2.47279          44.738         5.27284 
        2.47892         44.5807         5.24101 
        2.48507         44.3791         5.20941 
         2.4912         44.1625         5.17813 
