# k  (h/Mpc)    Pcb(k)  (Mpc/h)^3    Pcb_linear(k)  (Mpc/h)^3
     0.00783031         5458.95         5494.02 
       0.013688         6568.64         6683.57 
       0.019231         6604.54         6662.38 
      0.0249154         6083.43         6068.22 
      0.0312784         5180.59         5197.12 
      0.0375637         4388.38         4422.24 
      0.0433917         3882.84         3882.08 
      0.0492413         3486.14         3505.45 
      0.0555754          3222.7         3220.89 
      0.0619321         2925.76         2984.08 
       0.067871         2730.48         2753.25 
      0.0738098         2486.32         2495.23 
      0.0800417         2212.79         2209.01 
      0.0862327         1938.63         1939.98 
      0.0921407         1728.17         1723.57 
      0.0982031         1573.44         1554.73 
       0.104506         1431.37         1432.59 
       0.110769         1350.56         1348.81 
       0.116806          1300.4         1283.56 
       0.122832         1219.91         1216.87 
       0.129052         1146.41         1137.08 
       0.135211         1072.37         1047.54 
       0.141259         975.681         956.925 
       0.147318         885.625         872.905 
       0.153489         823.115         801.493 
       0.159709         779.294         746.543 
       0.165845         722.232         706.859 
       0.171974         708.195         676.388 
       0.178125         680.404          648.94 
       0.184229         638.414         620.089 
        0.19034         616.027         587.511 
       0.196428         585.234         552.056 
       0.202534         539.922         516.022 
       0.208729         520.227         482.009 
       0.214876         495.172          452.98 
       0.220989         462.167          429.47 
       0.227147          451.99         410.467 
        0.23329         436.004         394.546 
       0.239377         425.866          379.94 
       0.245482         404.904         365.037 
       0.251667         386.924         349.015 
       0.257832         379.557         332.318 
       0.263955         356.494         315.769 
       0.270079         341.454         300.127 
        0.27624         325.941         286.006 
       0.282372         316.377         273.782 
        0.28843         313.209         263.333 
       0.294538          298.51         253.956 
       0.300721         287.373         245.082 
        0.30691         282.453         236.346 
       0.313033         270.086         227.617 
       0.319153         264.786         218.823 
       0.325316         256.047          210.09 
        0.33145         248.227         201.778 
       0.337538         239.476         194.114 
       0.343633         231.926         187.106 
       0.349808         225.003          180.66 
       0.355968         219.671         174.734 
       0.362074         214.471           169.2 
       0.368217         210.333         163.814 
       0.374374         205.178          158.51 
       0.380519          196.58         153.301 
       0.386598         192.677         148.258 
       0.392688         187.241         143.396 
        0.39888         183.411         138.704 
       0.405048         179.336         134.312 
       0.411186         176.583         130.223 
       0.417313          172.41          126.38 
       0.423458         167.902         122.711 
       0.429607         164.227         119.183 
       0.435692         161.469         115.797 
       0.441815         157.181         112.474 
       0.447964         152.523         109.234 
       0.454126         149.807         106.099 
       0.460267         148.368         103.099 
       0.466387         144.917         100.242 
        0.47254         143.159         97.5065 
       0.478662         138.338         94.9101 
       0.484765           136.4         92.4277 
       0.490885         133.573          90.029 
       0.497035          132.42         87.6994 
       0.503198         129.695         85.4385 
       0.509342         126.325         83.2519 
       0.515458         124.699         81.1437 
       0.521598         121.655         79.1003 
       0.527764         120.359         77.1247 
       0.533884         119.545         75.2381 
           0.54         116.325         73.4221 
       0.546137         113.602          71.664 
       0.552299         111.997         69.9592 
       0.558452         109.956         68.3133 
       0.564573         109.464         66.7272 
       0.570708         106.379         65.1851 
       0.576825         105.225         63.6936 
       0.582926         104.048         62.2516 
       0.589034         102.265         60.8533 
       0.595184         101.064         59.4912 
       0.601379         98.6543         58.1643 
       0.607522         97.0069         56.8905 
       0.613639          96.213         55.6611 
       0.619772         94.5517         54.4652 
       0.625918         93.6674         53.3017 
       0.632068         91.9543         52.1713 
       0.638161         90.5248         51.0838 
         0.6443         89.9789         50.0196 
       0.650464          88.051         48.9824 
       0.656582         87.7294         47.9826 
       0.662703         86.5567         47.0108 
       0.668861         84.6296         46.0608 
       0.675024         84.5241         45.1367 
       0.681124         83.1744         44.2476 
       0.687237         81.6189         43.3809 
       0.693381         81.0638         42.5335 
       0.699536          80.076         41.7076 
       0.705665         78.9101         40.9074 
       0.711789         77.8217         40.1291 
       0.717957         76.8575         39.3659 
        0.72409         76.1739         38.6271 
       0.730186         75.7175         37.9119 
       0.736317         74.3643          37.211 
       0.742472         73.4269         36.5255 
       0.748622          72.368          35.858 
        0.75476         71.8012         35.2088 
       0.760888         71.4946         34.5767 
       0.767043         70.0668         33.9578 
       0.773185         69.2456         33.3554 
       0.779291         68.4683         32.7712 
       0.785407          67.642         32.2002 
       0.791564         67.5846         31.6394 
       0.797719         66.5354         31.0923 
       0.803834         66.0075         30.5618 
       0.809972         65.3621         30.0419 
       0.816124         64.6057          29.533 
       0.822261         63.7525         29.0374 
       0.828378         63.5717         28.5548 
       0.834502         62.6615         28.0829 
       0.840667         62.2402         27.6187 
       0.846816         61.5145         27.1664 
       0.852925          60.906         26.7271 
       0.859047         60.7548         26.2968 
       0.865192         59.7502         25.8745 
       0.871341         59.0838         25.4614 
       0.877463         58.6293         25.0592 
       0.883569         58.4904         24.6668 
       0.889708          57.852         24.2809 
       0.895864         57.3507         23.9023 
       0.902008         56.7579         23.5327 
       0.908149         56.1451         23.1711 
       0.914301         55.8127         22.8166 
       0.920448          55.554           22.47 
       0.926574         54.5275         22.1318 
       0.932687         54.2623         21.8013 
       0.938823         53.7528         21.4764 
       0.944975         53.1605         21.1575 
       0.951105         52.7856         20.8462 
       0.957225         52.5413         20.5418 
       0.963368         52.0241         20.2424 
       0.969511         51.5607         19.9491 
       0.975621         51.1973         19.6631 
       0.981748         50.6711         19.3821 
       0.987916         50.3096         19.1048 
        0.99406         49.9248         18.8341 
        1.00019         49.4476         18.5691 
        1.00632         49.1113         18.3095 
        1.01246         48.7321         18.0546 
        1.01859         48.4437         17.8049 
        1.02471         47.9035         17.5603 
        1.03085         47.6633         17.3194 
        1.03698         47.3669         17.0837 
        1.04314         46.9924         16.8513 
        1.04929          46.505         16.6238 
        1.05541         46.3336         16.4015 
        1.06154         46.0284         16.1827 
        1.06769         45.4157         15.9676 
        1.07382         45.2022         15.7572 
        1.07993          44.937          15.551 
        1.08607         44.5681         15.3477 
        1.09222         44.3671         15.1479 
        1.09836         43.9724         14.9519 
        1.10449         43.7582         14.7596 
        1.11063          43.338         14.5705 
        1.11677         43.2779         14.3848 
         1.1229         42.7959         14.2026 
        1.12903         42.5853         14.0235 
        1.13518         42.4838         13.8474 
        1.14131         42.0165         13.6744 
        1.14745         41.6366         13.5045 
        1.15359         41.2602         13.3374 
        1.15973         41.1955         13.1731 
        1.16584         40.8815         13.0124 
        1.17197         40.3948         12.8541 
        1.17811         40.2712         12.6979 
        1.18424          39.727         12.5449 
        1.19038         39.6677         12.3939 
        1.19652         39.4578         12.2454 
        1.20267         39.2299         12.0995 
        1.20881         38.9448         11.9559 
        1.21495         38.7874         11.8149 
        1.22108         38.6522         11.6762 
         1.2272         38.2894           11.54 
        1.23334          38.072         11.4058 
        1.23949         37.8172         11.2733 
        1.24562         37.5198         11.1434 
        1.25174         37.3124         11.0157 
        1.25789         37.2471         10.8896 
        1.26402         36.9575         10.7657 
        1.27014         36.7819         10.6441 
        1.27628         36.4029          10.524 
        1.28244         36.3894         10.4055 
        1.28858         36.0579          10.289 
        1.29471         35.8492         10.1746 
        1.30084         35.5776          10.062 
        1.30697         35.5001         9.95094 
        1.31312         35.1889         9.84142 
        1.31925         34.9022         9.73391 
        1.32537         34.7401         9.62811 
        1.33151         34.5184         9.52352 
        1.33765         34.4439         9.42056 
        1.34378         34.2831         9.31932 
        1.34992         34.0043         9.21951 
        1.35606         33.7848         9.12096 
         1.3622         33.6166         9.02403 
        1.36833         33.4767         8.92874 
        1.37445         33.1857         8.83489 
        1.38059         33.0788          8.7421 
        1.38675          32.798         8.65043 
        1.39288         32.6938         8.56044 
        1.39901         32.4833         8.47178 
        1.40515         32.3453         8.38418 
         1.4113         32.2967         8.29785 
        1.41742         32.0839         8.21308 
        1.42355         31.7852         8.12934 
         1.4297         31.6515         8.04651 
        1.43585         31.4552         7.96488 
        1.44198         31.3221          7.8847 
        1.44809         31.1221         7.80577 
        1.45423         31.0177         7.72764 
        1.46036         30.8929         7.65072 
        1.46649         30.6984         7.57483 
        1.47263         30.4947         7.49991 
        1.47877         30.3596         7.42604 
        1.48491         30.2479         7.35305 
        1.49104         30.0167          7.2812 
        1.49718         29.9593         7.21026 
        1.50333         29.8178         7.14015 
        1.50947         29.6097         7.07112 
         1.5156         29.4753         7.00311 
        1.52172         29.2732           6.936 
        1.52787         29.1885         6.86963 
          1.534         29.0013         6.80422 
        1.54013         28.9711         6.73973 
        1.54627          28.698         6.67596 
        1.55241         28.5719         6.61301 
        1.55855          28.481         6.55096 
        1.56467         28.3576         6.48989 
         1.5708         28.1994         6.42942 
        1.57695         28.0929         6.36964 
        1.58308         27.8349         6.31075 
        1.58922         27.7209         6.25257 
        1.59535           27.63         6.19515 
         1.6015          27.543         6.13837 
        1.60764         27.3723         6.08234 
        1.61376         27.2416         6.02715 
        1.61989         27.0308         5.97262 
        1.62604         26.9492         5.91863 
        1.63218         26.8401         5.86535 
        1.63831         26.7187         5.81285 
        1.64444         26.5886         5.76098 
        1.65059         26.4653         5.70962 
        1.65673         26.3591         5.65894 
        1.66285         26.2664         5.60902 
        1.66898         26.0842         5.55969 
        1.67512         26.0385         5.51085 
        1.68127         25.8948         5.46257 
         1.6874         25.7564         5.41497 
        1.69353         25.6613         5.36796 
        1.69967         25.5324         5.32141 
        1.70581         25.3733         5.27543 
        1.71193         25.2454         5.23016 
        1.71806         25.1878         5.18534 
        1.72421         25.0925         5.14095 
        1.73035         24.9355         5.09713 
        1.73649         24.7931         5.05383 
        1.74262         24.6753         5.01108 
        1.74876         24.6095         4.96879 
        1.75489         24.4793         4.92707 
        1.76101         24.3736         4.88585 
        1.76715         24.3012         4.84504 
        1.77329         24.1158         4.80466 
        1.77943         24.0674         4.76471 
        1.78557         23.9738         4.72528 
        1.79171         23.8484          4.6863 
        1.79785         23.7444         4.64774 
        1.80399         23.6236         4.60963 
        1.81012         23.5677           4.572 
        1.81625         23.3994          4.5348 
        1.82239         23.3145         4.49797 
        1.82853         23.2182         4.46156 
        1.83466         23.0991         4.42559 
        1.84078         22.9983         4.39006 
        1.84692         22.9574         4.35486 
        1.85306         22.8084            4.32 
         1.8592         22.7643         4.28558 
        1.86533         22.5944         4.25156 
        1.87147         22.4915         4.21787 
        1.87761         22.4096         4.18452 
        1.88375         22.3782         4.15158 
        1.88988         22.2221         4.11903 
        1.89601         22.1297         4.08681 
        1.90215         22.0254         4.05492 
        1.90829         21.9781         4.02337 
        1.91442         21.8005         3.99217 
        1.92056          21.769         3.96132 
         1.9267         21.6709         3.93077 
        1.93284         21.6473         3.90052 
        1.93897         21.5251         3.87065 
        1.94509         21.4332         3.84115 
        1.95123         21.3046         3.81189 
        1.95737         21.2219         3.78292 
        1.96349         21.1351         3.75432 
        1.96964         21.1481         3.72593 
        1.97578         20.9522         3.69783 
        1.98192         20.8978         3.67007 
        1.98805         20.7174          3.6426 
        1.99419         20.7349          3.6154 
        2.00033          20.612         3.58847 
        2.00647         20.5528         3.56183 
         2.0126         20.4436          3.5355 
        2.01874         20.3673         3.50939 
        2.02488         20.2337         3.48353 
        2.03101         20.1642         3.45797 
        2.03714         20.0938          3.4327 
        2.04328         20.0331         3.40765 
        2.04941         19.9318         3.38287 
        2.05554         19.8888         3.35836 
        2.06167         19.7999         3.33406 
        2.06781         19.7295         3.30999 
        2.07396         19.6715         3.28613 
        2.08009         19.5467         3.26255 
        2.08622         19.4815         3.23922 
        2.09237         19.4514         3.21608 
        2.09851         19.3036         3.19316 
        2.10464         19.2153          3.1705 
        2.11077         19.1821         3.14809 
        2.11691         19.0866         3.12584 
        2.12305         19.0318         3.10381 
        2.12918         18.9581         3.08205 
        2.13531         18.8812         3.06049 
        2.14145         18.7676         3.03909 
         2.1476         18.6667         3.01787 
        2.15372         18.6514         2.99696 
        2.15985         18.5801         2.97623 
        2.16599         18.4857         2.95563 
        2.17213         18.4475         2.93525 
        2.17827         18.3268         2.91507 
         2.1844         18.2683          2.8951 
        2.19054         18.2533         2.87531 
        2.19666         18.1367         2.85573 
         2.2028         18.1103         2.83631 
        2.20893         17.9704         2.81707 
        2.21508         17.9133         2.79799 
        2.22122         17.8216         2.77907 
        2.22736         17.8353         2.76037 
        2.23349         17.7048         2.74185 
        2.23962         17.6707         2.72348 
        2.24577         17.6001         2.70527 
         2.2519          17.528         2.68726 
        2.25802         17.4037         2.66943 
        2.26417         17.3907         2.65172 
        2.27031         17.3288         2.63415 
        2.27644         17.2922         2.61679 
        2.28257         17.1753         2.59959 
        2.28872         17.1804         2.58252 
        2.29486         17.0868          2.5656 
        2.30099         16.9833         2.54886 
        2.30712          16.935         2.53227 
        2.31326         16.8604          2.5158 
         2.3194         16.7868         2.49948 
        2.32553         16.7587         2.48334 
        2.33166         16.6431         2.46734 
         2.3378         16.6286         2.45147 
        2.34394         16.5217         2.43573 
        2.35007         16.4903         2.42015 
        2.35619         16.4469         2.40473 
        2.36233         16.3514          2.3894 
        2.36848         16.2779         2.37418 
        2.37462         16.2205         2.35912 
        2.38075         16.1845          2.3442 
        2.38689         16.1202         2.32941 
        2.39303         16.0441         2.31474 
        2.39916           15.98         2.30022 
        2.40529         15.9434         2.28582 
        2.41143         15.8645         2.27153 
        2.41757         15.7928         2.25736 
         2.4237         15.7415         2.24334 
        2.42983         15.7095         2.22944 
        2.43598         15.6371         2.21562 
        2.44211           15.57         2.20194 
        2.44823         15.5309         2.18841 
        2.45437         15.4962         2.17495 
        2.46052         15.3947         2.16159 
        2.46665         15.3879         2.14837 
        2.47279         15.2809         2.13527 
        2.47892          15.226         2.12227 
        2.48507         15.1794         2.10936 
         2.4912         15.1176         2.09658 
