# k  (h/Mpc)    Pcb(k)  (Mpc/h)^3    Pcb_linear(k)  (Mpc/h)^3
     0.00783031          544.69         549.059 
       0.013688         662.211         668.318 
       0.019231         664.007         666.345 
      0.0249154         607.185          606.99 
      0.0312784         520.061         519.894 
      0.0375637         442.137         442.399 
      0.0433917          389.28         388.372 
      0.0492413         350.674         350.701 
      0.0555754         323.013         322.237 
      0.0619321          297.02         298.548 
       0.067871         275.236         275.457 
      0.0738098         249.658         249.644 
      0.0800417         221.555          221.01 
      0.0862327         194.308         194.094 
      0.0921407          172.65         172.443 
      0.0982031         156.194         155.551 
       0.104506         143.156         143.331 
       0.110769         134.836         134.949 
       0.116806         128.831         128.421 
       0.122832         121.634         121.749 
       0.129052         114.014         113.766 
       0.135211         105.341         104.808 
       0.141259         96.0242         95.7415 
       0.147318         87.3565         87.3352 
       0.153489         80.5029         80.1904 
       0.159709          75.178         74.6927 
       0.165845         70.6587         70.7223 
       0.171974         68.1815         67.6736 
       0.178125         65.3379         64.9275 
       0.184229         62.2094         62.0409 
        0.19034         59.2848         58.7814 
       0.196428         55.6988         55.2342 
       0.202534         51.7562         51.6289 
       0.208729         48.7175         48.2259 
       0.214876         46.0068         45.3214 
       0.220989         43.2754         42.9692 
       0.227147          41.746          41.068 
        0.23329         40.1579          39.475 
       0.239377          38.726         38.0137 
       0.245482         37.1701         36.5227 
       0.251667         35.4034         34.9196 
       0.257832         34.0004         33.2491 
       0.263955         32.1646         31.5934 
       0.270079         30.6156         30.0283 
        0.27624         29.0954         28.6155 
       0.282372         27.9075         27.3925 
        0.28843         27.0754          26.347 
       0.294538          26.073         25.4088 
       0.300721         25.0363         24.5209 
        0.30691         24.3355         23.6469 
       0.313033         23.4017         22.7735 
       0.319153         22.7169         21.8937 
       0.325316         21.5964           21.02 
        0.33145         20.7558         20.1883 
       0.337538         20.0397         19.4216 
       0.343633         19.4104         18.7204 
       0.349808          18.706         18.0755 
       0.355968         18.0888         17.4825 
       0.362074         17.6311         16.9289 
       0.368217         17.0539           16.39 
       0.374374         16.6261         15.8593 
       0.380519         15.9816         15.3381 
       0.386598         15.4347         14.8335 
       0.392688         14.9269         14.3471 
        0.39888         14.5247         13.8777 
       0.405048         14.1058         13.4382 
       0.411186         13.6749         13.0291 
       0.417313         13.2884         12.6446 
       0.423458         12.8552         12.2775 
       0.429607         12.5906         11.9245 
       0.435692          12.286         11.5857 
       0.441815         11.8715         11.2532 
       0.447964         11.4963         10.9291 
       0.454126         11.2496         10.6154 
       0.460267         11.0206         10.3153 
       0.466387         10.6909         10.0294 
        0.47254         10.4518         9.75575 
       0.478662         10.1558         9.49597 
       0.484765         9.91055          9.2476 
       0.490885         9.62831         9.00761 
       0.497035         9.36969         8.77452 
       0.503198         9.18591         8.54832 
       0.509342         8.91764         8.32955 
       0.515458         8.74805         8.11861 
       0.521598         8.54482         7.91416 
       0.527764         8.38252          7.7165 
       0.533884         8.12141         7.52775 
           0.54         7.96709         7.34605 
       0.546137         7.74462         7.17015 
       0.552299         7.59126         6.99957 
       0.558452         7.41994         6.83491 
       0.564573         7.27897         6.67621 
       0.570708         7.11821         6.52192 
       0.576825         6.96765         6.37269 
       0.582926         6.80696         6.22841 
       0.589034         6.68332         6.08851 
       0.595184         6.57021         5.95223 
       0.601379          6.3999         5.81948 
       0.607522         6.26554         5.69203 
       0.613639         6.12061         5.56902 
       0.619772         6.02564         5.44937 
       0.625918         5.90059         5.33296 
       0.632068         5.79812         5.21986 
       0.638161         5.67973         5.11105 
         0.6443         5.56325         5.00458 
       0.650464         5.44516         4.90081 
       0.656582         5.37764         4.80077 
       0.662703         5.27713         4.70354 
       0.668861         5.14063         4.60849 
       0.675024         5.05295         4.51604 
       0.681124         5.02416         4.42708 
       0.687237         4.90092         4.34036 
       0.693381         4.77782         4.25558 
       0.699536         4.73231         4.17294 
       0.705665         4.64425         4.09288 
       0.711789         4.53976         4.01501 
       0.717957         4.45784         3.93865 
        0.72409         4.39271         3.86473 
       0.730186         4.34563         3.79317 
       0.736317         4.24585         3.72305 
       0.742472          4.1904         3.65446 
       0.748622         4.12459         3.58768 
        0.75476         4.02672         3.52272 
       0.760888         3.98422         3.45948 
       0.767043         3.88299         3.39756 
       0.773185         3.83696         3.33729 
       0.779291         3.80582         3.27883 
       0.785407         3.72876         3.22171 
       0.791564         3.67061          3.1656 
       0.797719         3.60746         3.11086 
       0.803834         3.55631         3.05778 
       0.809972         3.49657         3.00576 
       0.816124         3.44673         2.95485 
       0.822261          3.3971         2.90526 
       0.828378         3.34109         2.85698 
       0.834502         3.29254         2.80976 
       0.840667         3.25425         2.76331 
       0.846816         3.19444         2.71806 
       0.852925         3.14622         2.67411 
       0.859047         3.10106         2.63105 
       0.865192         3.05822         2.58881 
       0.871341         3.01683         2.54747 
       0.877463         2.96522         2.50723 
       0.883569          2.9286         2.46797 
       0.889708         2.89227         2.42936 
       0.895864          2.8517         2.39148 
       0.902008         2.80274          2.3545 
       0.908149         2.76846         2.31833 
       0.914301         2.73617         2.28286 
       0.920448         2.70169         2.24817 
       0.926574         2.67598         2.21434 
       0.932687         2.63255         2.18127 
       0.938823         2.58459         2.14877 
       0.944975         2.56308         2.11686 
       0.951105         2.51251         2.08571 
       0.957225         2.49018         2.05525 
       0.963368          2.4631          2.0253 
       0.969511         2.43414         1.99595 
       0.975621         2.39551         1.96734 
       0.981748         2.35213         1.93923 
       0.987916         2.32943         1.91149 
        0.99406         2.31006         1.88439 
        1.00019         2.27882         1.85789 
        1.00632         2.25707         1.83191 
        1.01246          2.2237          1.8064 
        1.01859         2.19779         1.78142 
        1.02471         2.16117         1.75695 
        1.03085         2.13867         1.73285 
        1.03698         2.11739         1.70926 
        1.04314         2.09283         1.68601 
        1.04929         2.07041         1.66325 
        1.05541         2.03695         1.64101 
        1.06154         2.02148         1.61912 
        1.06769         2.00215          1.5976 
        1.07382         1.97248         1.57654 
        1.07993         1.94734         1.55592 
        1.08607         1.93071         1.53558 
        1.09222         1.90241         1.51558 
        1.09836         1.89126         1.49597 
        1.10449         1.85662         1.47673 
        1.11063         1.83855         1.45781 
        1.11677         1.82251         1.43923 
         1.1229         1.79535         1.42101 
        1.12903         1.78387         1.40309 
        1.13518         1.75787         1.38547 
        1.14131         1.74203         1.36816 
        1.14745         1.72354         1.35115 
        1.15359         1.70402         1.33444 
        1.15973         1.68536           1.318 
        1.16584         1.66629         1.30192 
        1.17197         1.64647         1.28608 
        1.17811          1.6292         1.27046 
        1.18424          1.6121         1.25514 
        1.19038         1.59417         1.24004 
        1.19652         1.58221         1.22519 
        1.20267         1.56889         1.21058 
        1.20881          1.5468         1.19622 
        1.21495         1.53316         1.18211 
        1.22108         1.51924         1.16823 
         1.2272         1.49686         1.15461 
        1.23334          1.4872         1.14118 
        1.23949         1.47256         1.12793 
        1.24562         1.45766         1.11492 
        1.25174         1.44473         1.10215 
        1.25789         1.42552         1.08953 
        1.26402         1.41136         1.07714 
        1.27014          1.3951         1.06497 
        1.27628         1.38595         1.05295 
        1.28244         1.37264         1.04109 
        1.28858         1.35695         1.02944 
        1.29471         1.34199         1.01799 
        1.30084         1.33211         1.00673 
        1.30697         1.32271        0.995616 
        1.31312         1.30842        0.984659 
        1.31925         1.29589        0.973902 
        1.32537          1.2852        0.963317 
        1.33151         1.27053        0.952852 
        1.33765         1.25997         0.94255 
        1.34378         1.24699        0.932422 
        1.34992         1.23868        0.922436 
        1.35606         1.22506        0.912575 
         1.3622         1.21539        0.902877 
        1.36833         1.20326        0.893343 
        1.37445          1.1922        0.883953 
        1.38059         1.18175        0.874669 
        1.38675         1.17095        0.865497 
        1.39288         1.16139        0.856494 
        1.39901         1.15033        0.847623 
        1.40515          1.1392        0.838858 
         1.4113         1.13386        0.830221 
        1.41742         1.11947        0.821739 
        1.42355         1.10774        0.813361 
         1.4297         1.10241        0.805074 
        1.43585         1.09083        0.796906 
        1.44198         1.08234        0.788884 
        1.44809         1.07255        0.780987 
        1.45423         1.06438         0.77317 
        1.46036         1.05528        0.765475 
        1.46649         1.04346        0.757881 
        1.47263           1.037        0.750385 
        1.47877         1.03249        0.742994 
        1.48491          1.0171        0.735692 
        1.49104         1.01282        0.728503 
        1.49718          1.0014        0.721405 
        1.50333        0.994751         0.71439 
        1.50947        0.988199        0.707484 
         1.5156        0.979013        0.700679 
        1.52172        0.972073        0.693964 
        1.52787        0.962251        0.687325 
          1.534          0.9573         0.68078 
        1.54013        0.948114        0.674327 
        1.54627        0.940368        0.667947 
        1.55241          0.9316        0.661649 
        1.55855        0.925177        0.655441 
        1.56467        0.917833         0.64933 
         1.5708        0.910473         0.64328 
        1.57695        0.902214        0.637298 
        1.58308         0.89387        0.631407 
        1.58922        0.889942        0.625586 
        1.59535        0.880456        0.619841 
         1.6015        0.873745         0.61416 
        1.60764        0.868023        0.608553 
        1.61376         0.86068        0.603032 
        1.61989        0.854851        0.597576 
        1.62604        0.845825        0.592175 
        1.63218        0.842924        0.586844 
        1.63831        0.834624        0.581591 
        1.64444        0.828894        0.576401 
        1.65059        0.822785        0.571262 
        1.65673        0.815497        0.566191 
        1.66285        0.810368        0.561197 
        1.66898         0.80537        0.556261 
        1.67512        0.796577        0.551375 
        1.68127        0.790649        0.546544 
         1.6874        0.787587        0.541782 
        1.69353        0.779968        0.537079 
        1.69967        0.775434        0.532421 
        1.70581         0.77096         0.52782 
        1.71193        0.763692        0.523292 
        1.71806        0.759123        0.518807 
        1.72421        0.753446        0.514365 
        1.73035        0.745206        0.509981 
        1.73649        0.744625        0.505649 
        1.74262        0.736095        0.501371 
        1.74876        0.731797         0.49714 
        1.75489        0.727472        0.492967 
        1.76101        0.720283        0.488842 
        1.76715        0.716349         0.48476 
        1.77329        0.711904        0.480719 
        1.77943        0.706579        0.476722 
        1.78557        0.703637        0.472777 
        1.79171        0.698249        0.468876 
        1.79785        0.692707        0.465019 
        1.80399         0.68621        0.461206 
        1.81012        0.682985         0.45744 
        1.81625        0.678514        0.453719 
        1.82239        0.674379        0.450033 
        1.82853        0.669081        0.446391 
        1.83466        0.664062        0.442792 
        1.84078        0.659137        0.439237 
        1.84692        0.655838        0.435715 
        1.85306        0.652493        0.432228 
         1.8592        0.646625        0.428784 
        1.86533        0.643471         0.42538 
        1.87147        0.636757        0.422009 
        1.87761        0.633992        0.418673 
        1.88375        0.629975        0.415377 
        1.88988        0.624852         0.41212 
        1.89601        0.620585        0.408897 
        1.90215        0.617763        0.405705 
        1.90829        0.613002         0.40255 
        1.91442        0.609467        0.399427 
        1.92056        0.606829        0.396341 
         1.9267        0.601649        0.393284 
        1.93284        0.597249        0.390257 
        1.93897        0.594265        0.387269 
        1.94509        0.591253        0.384318 
        1.95123        0.585493         0.38139 
        1.95737         0.58249        0.378491 
        1.96349        0.578636         0.37563 
        1.96964        0.575966         0.37279 
        1.97578         0.57078        0.369978 
        1.98192        0.568292        0.367201 
        1.98805        0.565038        0.364452 
        1.99419         0.56201        0.361731 
        2.00033        0.558515        0.359037 
        2.00647        0.554966         0.35637 
         2.0126        0.551858        0.353736 
        2.01874        0.548414        0.351124 
        2.02488        0.543996        0.348536 
        2.03101         0.54094         0.34598 
        2.03714        0.539013        0.343451 
        2.04328        0.534299        0.340945 
        2.04941        0.531645        0.338466 
        2.05554         0.52853        0.336013 
        2.06167        0.525365        0.333582 
        2.06781        0.520713        0.331174 
        2.07396        0.519784        0.328786 
        2.08009        0.515828        0.326427 
        2.08622        0.512966        0.324093 
        2.09237        0.510174        0.321777 
        2.09851        0.506277        0.319484 
        2.10464        0.504032        0.317217 
        2.11077        0.499493        0.314975 
        2.11691        0.497699        0.312749 
        2.12305        0.495842        0.310545 
        2.12918        0.491772        0.308368 
        2.13531         0.48928        0.306211 
        2.14145        0.486172         0.30407 
         2.1476         0.48413        0.301947 
        2.15372        0.481184        0.299854 
        2.15985        0.477815         0.29778 
        2.16599        0.475857        0.295719 
        2.17213        0.473068         0.29368 
        2.17827        0.469282        0.291661 
         2.1844        0.468244        0.289663 
        2.19054        0.465499        0.287683 
        2.19666        0.462745        0.285724 
         2.2028        0.459514        0.283781 
        2.20893        0.457699        0.281856 
        2.21508        0.454905        0.279946 
        2.22122        0.452854        0.278054 
        2.22736        0.448696        0.276183 
        2.23349        0.446212         0.27433 
        2.23962        0.444672        0.272492 
        2.24577        0.442266         0.27067 
         2.2519         0.44002        0.268868 
        2.25802        0.437922        0.267084 
        2.26417         0.43473        0.265312 
        2.27031         0.43279        0.263554 
        2.27644        0.431702        0.261818 
        2.28257        0.427848        0.260097 
        2.28872        0.426483        0.258388 
        2.29486        0.423483        0.256695 
        2.30099         0.42152        0.255021 
        2.30712        0.419164        0.253361 
        2.31326        0.416997        0.251713 
         2.3194        0.415357         0.25008 
        2.32553         0.41252        0.248465 
        2.33166        0.411125        0.246865 
         2.3378        0.408612        0.245276 
        2.34394        0.406507        0.243702 
        2.35007        0.403812        0.242143 
        2.35619        0.401092          0.2406 
        2.36233        0.399758        0.239066 
        2.36848        0.398269        0.237543 
        2.37462        0.396416        0.236037 
        2.38075        0.393795        0.234544 
        2.38689        0.392384        0.233064 
        2.39303        0.389968        0.231597 
        2.39916        0.387853        0.230143 
        2.40529        0.386641        0.228703 
        2.41143         0.38369        0.227274 
        2.41757         0.38209        0.225856 
         2.4237        0.380264        0.224453 
        2.42983         0.37848        0.223062 
        2.43598        0.376611        0.221679 
        2.44211        0.374016        0.220311 
        2.44823        0.373012        0.218956 
        2.45437         0.37153         0.21761 
        2.46052        0.369513        0.216274 
        2.46665        0.367207        0.214951 
        2.47279        0.365488         0.21364 
        2.47892        0.363996        0.212339 
        2.48507        0.362482        0.211048 
         2.4912        0.360448        0.209769 
