# k  (h/Mpc)    Pcb(k)  (Mpc/h)^3    Pcb_linear(k)  (Mpc/h)^3
     0.00783031         5130.22         5189.46 
       0.013688         6428.71         6410.15 
       0.019231          6434.9          6426.5 
      0.0249154          5771.7         5836.21 
      0.0312784          4905.7         4922.74 
      0.0375637         4094.76         4080.75 
      0.0433917         3463.77         3483.29 
      0.0492413         3076.48         3074.87 
      0.0555754         2763.35         2798.82 
      0.0619321          2633.5         2616.57 
       0.067871          2437.1         2464.25 
      0.0738098         2260.36         2286.78 
      0.0800417          2025.8         2061.18 
      0.0862327          1799.8         1814.32 
      0.0921407         1590.41         1586.97 
      0.0982031         1387.35         1388.69 
       0.104506         1260.12         1235.05 
       0.110769         1157.14         1134.76 
       0.116806         1087.55         1075.67 
       0.122832         1051.62         1036.44 
       0.129052         997.818         998.606 
       0.135211          950.39         950.554 
       0.141259          899.03         888.472 
       0.147318         833.026         815.069 
       0.153489         752.735         737.658 
       0.159709         691.154         666.761 
       0.165845           645.9         610.459 
       0.171974         600.319         569.833 
       0.178125         573.592         542.708 
       0.184229         554.578         524.607 
        0.19034          525.84         509.609 
       0.196428          516.75         492.866 
       0.202534         500.255         471.413 
       0.208729         471.294         444.667 
       0.214876         440.851         415.227 
       0.220989         419.761         386.169 
       0.227147         392.038         359.989 
        0.23329           372.5         338.701 
       0.239377         360.872         322.686 
       0.245482         339.176         310.781 
       0.251667         335.371          301.27 
       0.257832         325.431         292.482 
       0.263955         314.419         282.956 
       0.270079         302.629         271.908 
        0.27624         295.818         259.398 
       0.282372         282.926         246.273 
        0.28843         270.836         233.641 
       0.294538         258.196         222.088 
       0.300721         253.512         212.126 
        0.30691         241.677         203.943 
       0.313033         235.738         197.269 
       0.319153         226.187         191.453 
       0.325316         221.715         185.857 
        0.33145         214.161         180.092 
       0.337538         210.496          173.98 
       0.343633         203.081         167.508 
       0.349808         196.472         160.848 
       0.355968         192.148         154.396 
       0.362074         186.342         148.485 
       0.368217         181.028          143.16 
       0.374374         175.397         138.474 
       0.380519         171.904          134.33 
       0.386598         167.445         130.565 
       0.392688          164.78         126.954 
        0.39888          160.49         123.284 
       0.405048         156.673         119.563 
       0.411186         153.113         115.817 
       0.417313         149.271         112.087 
       0.423458         145.932         108.462 
       0.429607         142.319         105.042 
       0.435692         137.676         101.898 
       0.441815         136.561         98.9845 
       0.447964         134.186         96.2868 
       0.454126         128.327         93.7406 
       0.460267         126.874         91.2982 
       0.466387         124.687         88.9184 
        0.47254         122.294         86.5505 
       0.478662         120.857         84.2091 
       0.484765         117.327         81.9171 
       0.490885         115.253         79.6905 
       0.497035         113.798         77.5458 
       0.503198         110.641         75.5016 
       0.509342         108.443         73.5771 
       0.515458          106.83         71.7661 
       0.521598         105.301         70.0305 
       0.527764          103.66         68.3472 
       0.533884         101.998           66.72 
           0.54         100.015          65.133 
       0.546137         99.0547         63.5754 
       0.552299         97.4958          62.046 
       0.558452         95.1483         60.5598 
       0.564573         93.4611         59.1308 
       0.570708         92.2563         57.7552 
       0.576825         90.8738         56.4415 
       0.582926         89.0507         55.1823 
       0.589034         87.4166         53.9654 
       0.595184         86.3545         52.7786 
       0.601379         85.2582         51.6182 
       0.607522         83.2263         50.4995 
       0.613639         83.0171         49.4151 
       0.619772         81.0937         48.3556 
       0.625918         80.3365         47.3214 
       0.632068         79.3365         46.3154 
       0.638161          78.285         45.3487 
         0.6443         77.1835         44.4059 
       0.650464         76.1519         43.4911 
       0.656582         75.2212         42.6122 
       0.662703         73.7837         41.7592 
       0.668861         72.9312         40.9251 
       0.675024         72.0652         40.1118 
       0.681124         71.0318         39.3267 
       0.687237         69.7967         38.5597 
       0.693381         69.1573         37.8087 
       0.699536         68.1056         37.0765 
       0.705665         68.3914         36.3676 
       0.711789         66.5259         35.6791 
       0.717957         65.9968         35.0049 
        0.72409         65.1122         34.3527 
       0.730186         64.0431         33.7216 
       0.736317         63.8567         33.1032 
       0.742472         62.9609         32.4979 
       0.748622         62.3451         31.9081 
        0.75476         61.6344         31.3339 
       0.760888          60.724         30.7746 
       0.767043         60.1058         30.2267 
       0.773185         59.3594         29.6934 
       0.779291         59.0391         29.1763 
       0.785407         58.4735          28.671 
       0.791564         57.6528         28.1749 
       0.797719         56.7264         27.6911 
       0.803834         56.5574         27.2219 
       0.809972         55.6014         26.7622 
       0.816124         55.0164         26.3122 
       0.822261         54.6176         25.8739 
       0.828378         54.2336         25.4469 
       0.834502         53.5886         25.0293 
       0.840667         53.1103         24.6184 
       0.846816         52.3678         24.2179 
       0.852925         51.9407         23.8289 
       0.859047         51.2652         23.4476 
       0.865192         50.9506         23.0736 
       0.871341         50.7366         22.7075 
       0.877463         49.7203         22.3512 
       0.883569         49.3935         22.0034 
       0.889708         49.1127         21.6614 
       0.895864         48.6451         21.3259 
       0.902008         48.1989         20.9982 
       0.908149         47.8173         20.6778 
       0.914301         47.5029         20.3636 
       0.920448         46.9266         20.0562 
       0.926574         46.5236         19.7564 
       0.932687         46.1657         19.4634 
       0.938823         45.4745         19.1753 
       0.944975         45.3523         18.8925 
       0.951105         44.9064         18.6165 
       0.957225         44.3424         18.3465 
       0.963368         44.3157          18.081 
       0.969511         43.9197         17.8208 
       0.975621         43.5514         17.5671 
       0.981748         43.0256         17.3178 
       0.987916         42.7971         17.0718 
        0.99406          42.498         16.8316 
        1.00019         41.9811         16.5965 
        1.00632         41.7729         16.3662 
        1.01246         41.4849         16.1399 
        1.01859         40.9131         15.9183 
        1.02471         40.9527         15.7012 
        1.03085         40.5329         15.4874 
        1.03698         40.0588         15.2781 
        1.04314         39.7428         15.0718 
        1.04929         39.5131         14.8698 
        1.05541         39.0836         14.6724 
        1.06154         39.0228         14.4781 
        1.06769         38.6721          14.287 
        1.07382         38.3974         14.1001 
        1.07993         38.2468          13.917 
        1.08607         37.7746         13.7363 
        1.09222         37.6525         13.5588 
        1.09836         37.3178         13.3846 
        1.10449           37.05         13.2137 
        1.11063         36.6034         13.0456 
        1.11677          36.448         12.8805 
         1.1229         36.3126         12.7186 
        1.12903         35.8112         12.5594 
        1.13518         35.7712         12.4027 
        1.14131         35.6263         12.2489 
        1.14745          35.192         12.0978 
        1.15359         35.1454         11.9492 
        1.15973         34.7223         11.8031 
        1.16584         34.4583         11.6601 
        1.17197          34.424         11.5192 
        1.17811         34.0628         11.3803 
        1.18424         33.7537         11.2441 
        1.19038         33.7238         11.1098 
        1.19652         33.5322         10.9777 
        1.20267         33.2901         10.8478 
        1.20881         33.0075         10.7201 
        1.21495          32.792         10.5946 
        1.22108         32.6001         10.4712 
         1.2272         32.2477           10.35 
        1.23334         32.1654         10.2305 
        1.23949         32.0198         10.1126 
        1.24562         31.7981         9.99687 
        1.25174          31.658         9.88317 
        1.25789         31.4114          9.7709 
        1.26402         31.2313         9.66059 
        1.27014         30.9269         9.55227 
        1.27628          30.802         9.44529 
        1.28244         30.6316         9.33976 
        1.28858         30.5172           9.236 
        1.29471          30.338         9.13406 
        1.30084         30.1488         9.03375 
        1.30697         29.9307         8.93482 
        1.31312         29.6592         8.83723 
        1.31925          29.579         8.74142 
        1.32537         29.4491         8.64713 
        1.33151          29.221         8.55391 
        1.33765         29.1725         8.46212 
        1.34378         28.9864         8.37187 
        1.34992         28.6337         8.28288 
        1.35606         28.5414           8.195 
         1.3622         28.3836         8.10856 
        1.36833         28.2153         8.02358 
        1.37445         28.2188         7.93988 
        1.38059         27.9913         7.85712 
        1.38675         27.7101         7.77535 
        1.39288         27.6851         7.69508 
        1.39901         27.4369         7.61598 
        1.40515         27.3472         7.53783 
         1.4113         27.2143         7.46081 
        1.41742         26.9398         7.38517 
        1.42355         26.9217         7.31045 
         1.4297         26.7416         7.23654 
        1.43585         26.6908         7.16369 
        1.44198         26.4344         7.09212 
        1.44809         26.3182         7.02168 
        1.45423         26.2193         6.95194 
        1.46036         26.1398         6.88328 
        1.46649         25.9412         6.81553 
        1.47263         25.7898         6.74864 
        1.47877         25.6977         6.68268 
        1.48491         25.5682         6.61751 
        1.49104         25.4803         6.55336 
        1.49718         25.2381            6.49 
        1.50333         25.2005          6.4274 
        1.50947         25.0847         6.36575 
         1.5156         24.9013           6.305 
        1.52172          24.733         6.24505 
        1.52787         24.7455         6.18577 
          1.534         24.5254         6.12733 
        1.54013         24.3448          6.0697 
        1.54627         24.3079         6.01272 
        1.55241         24.1485         5.95647 
        1.55855         24.0141         5.90102 
        1.56467         23.9128         5.84643 
         1.5708         23.8525         5.79238 
        1.57695         23.6074         5.73893 
        1.58308         23.6606         5.68629 
        1.58922         23.4815         5.63428 
        1.59535         23.3361         5.58294 
         1.6015          23.231         5.53217 
        1.60764         23.1914         5.48206 
        1.61376          23.002         5.43272 
        1.61989         22.8399         5.38394 
        1.62604         22.8394         5.33566 
        1.63218         22.6747           5.288 
        1.63831         22.6265         5.24104 
        1.64444         22.4627         5.19464 
        1.65059         22.3449         5.14869 
        1.65673         22.2573         5.10335 
        1.66285          22.158         5.05869 
        1.66898         22.0813         5.01455 
        1.67512         22.0078         4.97085 
        1.68127         21.8463         4.92764 
         1.6874         21.7496         4.88504 
        1.69353         21.6893         4.84297 
        1.69967          21.528          4.8013 
        1.70581         21.4634         4.76014 
        1.71193         21.3623         4.71963 
        1.71806         21.2552          4.6795 
        1.72421         21.1577         4.63976 
        1.73035         21.0673         4.60053 
        1.73649         20.9903         4.56176 
        1.74262         20.9208         4.52348 
        1.74876         20.8312         4.48561 
        1.75489         20.7094         4.44825 
        1.76101         20.6283         4.41134 
        1.76715          20.556         4.37479 
        1.77329         20.4754         4.33861 
        1.77943          20.346         4.30283 
        1.78557         20.2907         4.26751 
        1.79171         20.2132         4.23258 
        1.79785         20.0688         4.19803 
        1.80399         19.9869         4.16388 
        1.81012         19.9708         4.13016 
        1.81625         19.8485         4.09683 
        1.82239         19.8311         4.06381 
        1.82853          19.644         4.03118 
        1.83466         19.5433         3.99894 
        1.84078          19.435         3.96709 
        1.84692          19.444         3.93554 
        1.85306         19.3181         3.90429 
         1.8592         19.2397         3.87343 
        1.86533         19.1683         3.84293 
        1.87147         19.0781         3.81272 
        1.87761         19.0547         3.78282 
        1.88375         18.9398         3.75328 
        1.88988         18.8796         3.72409 
        1.89601         18.7516          3.6952 
        1.90215         18.6922         3.66659 
        1.90829         18.6506          3.6383 
        1.91442         18.5543         3.61031 
        1.92056         18.4813         3.58263 
         1.9267         18.3997         3.55523 
        1.93284         18.3038         3.52809 
        1.93897          18.244         3.50129 
        1.94509         18.1743         3.47482 
        1.95123         18.0727         3.44857 
        1.95737         18.0274         3.42257 
        1.96349          17.945          3.3969 
        1.96964         17.8619         3.37143 
        1.97578         17.8197          3.3462 
        1.98192         17.7001         3.32129 
        1.98805         17.6702         3.29663 
        1.99419         17.5744         3.27222 
        2.00033         17.4806         3.24804 
        2.00647         17.4301         3.22412 
         2.0126         17.3475         3.20048 
        2.01874         17.2759         3.17704 
        2.02488         17.2357         3.15382 
        2.03101         17.1846         3.13087 
        2.03714           17.11         3.10818 
        2.04328         17.0095         3.08568 
        2.04941         16.9322         3.06343 
        2.05554         16.9223         3.04141 
        2.06167         16.8413         3.01958 
        2.06781         16.7867         2.99796 
        2.07396         16.7204         2.97653 
        2.08009         16.6517         2.95534 
        2.08622         16.5547         2.93438 
        2.09237         16.5026         2.91358 
        2.09851         16.4522         2.89299 
        2.10464         16.3816         2.87263 
        2.11077         16.2835         2.85249 
        2.11691         16.2653          2.8325 
        2.12305         16.1789          2.8127 
        2.12918         16.1105         2.79313 
        2.13531         16.0716         2.77376 
        2.14145           15.98         2.75452 
         2.1476         15.9452         2.73545 
        2.15372         15.8882         2.71665 
        2.15985         15.7869         2.69801 
        2.16599         15.7614         2.67949 
        2.17213         15.7047         2.66117 
        2.17827         15.6504         2.64302 
         2.1844         15.5741         2.62506 
        2.19054         15.5055         2.60726 
        2.19666          15.486         2.58965 
         2.2028         15.4371         2.57219 
        2.20893         15.3399         2.55489 
        2.21508         15.2784         2.53772 
        2.22122         15.2078          2.5207 
        2.22736         15.1693         2.50388 
        2.23349         15.0989         2.48722 
        2.23962         15.0371          2.4707 
        2.24577          14.971         2.45431 
         2.2519         14.9657          2.4381 
        2.25802         14.9099         2.42206 
        2.26417         14.8584         2.40612 
        2.27031         14.7742         2.39031 
        2.27644         14.7315         2.37469 
        2.28257         14.6679         2.35921 
        2.28872         14.6119         2.34384 
        2.29486         14.5711         2.32861 
        2.30099         14.5171         2.31355 
        2.30712         14.4854         2.29861 
        2.31326         14.4171         2.28379 
         2.3194         14.3672          2.2691 
        2.32553         14.3044         2.25456 
        2.33166         14.2158         2.24016 
         2.3378         14.1897         2.22587 
        2.34394         14.1427          2.2117 
        2.35007         14.0705         2.19767 
        2.35619         14.0074         2.18378 
        2.36233         13.9808         2.16998 
        2.36848         13.9538         2.15627 
        2.37462         13.9271          2.1427 
        2.38075         13.8334         2.12927 
        2.38689         13.8056         2.11594 
        2.39303          13.742         2.10273 
        2.39916         13.7024         2.08965 
        2.40529         13.6449         2.07667 
        2.41143         13.6012          2.0638 
        2.41757          13.561         2.05104 
         2.4237         13.5004          2.0384 
        2.42983         13.4542         2.02588 
        2.43598         13.4125         2.01342 
        2.44211         13.3524         2.00109 
        2.44823          13.298          1.9889 
        2.45437         13.2825         1.97677 
        2.46052         13.2278         1.96473 
        2.46665         13.1601         1.95281 
        2.47279         13.1008           1.941 
        2.47892         13.0845         1.92928 
        2.48507         13.0525         1.91765 
         2.4912         12.9981         1.90613 
