# k  (h/Mpc)    P(k)  (Mpc/h)^3    P_linear(k)  (Mpc/h)^3
     0.00783031         2357.94         2387.38 
       0.013688         2943.64         2946.44 
       0.019231         2952.63          2952.9 
      0.0249154         2659.69         2681.13 
      0.0312784          2257.3         2261.19 
      0.0375637         1880.45         1874.28 
      0.0433917         1595.85         1599.78 
      0.0492413         1414.51         1412.16 
      0.0555754         1276.11         1285.34 
      0.0619321         1208.73         1201.62 
       0.067871         1124.75         1131.65 
      0.0738098         1043.18         1050.13 
      0.0800417         936.764         946.523 
      0.0862327         829.927         833.157 
      0.0921407         730.044         728.749 
      0.0982031          637.11         637.692 
       0.104506         574.539         567.138 
       0.110769         527.506         521.081 
       0.116806         496.181         493.945 
       0.122832         480.046         475.931 
       0.129052         457.922         458.556 
       0.135211         435.813         436.489 
       0.141259           410.6         407.981 
       0.147318         379.348         374.275 
       0.153489         342.663         338.727 
       0.159709         312.247         306.171 
       0.165845          289.93         280.317 
       0.171974         268.705         261.662 
       0.178125         256.782         249.206 
       0.184229         248.533         240.894 
        0.19034         237.406         234.007 
       0.196428         232.147         226.318 
       0.202534         224.361         216.467 
       0.208729         210.941         204.186 
       0.214876         196.665         190.667 
       0.220989         186.014         177.324 
       0.227147         172.709         165.302 
        0.23329         163.394         155.527 
       0.239377         157.229         148.172 
       0.245482         149.139         142.706 
       0.251667         146.661         138.339 
       0.257832         142.313         134.304 
       0.263955         137.558          129.93 
       0.270079           132.4         124.857 
        0.27624         128.329         119.112 
       0.282372         122.464         113.085 
        0.28843         116.321         107.285 
       0.294538         110.988         101.979 
       0.300721         107.856         97.4052 
        0.30691         102.915         93.6479 
       0.313033         99.9584          90.583 
       0.319153          95.703         87.9122 
       0.325316         94.3917         85.3431 
        0.33145          91.058         82.6958 
       0.337538         88.8217         79.8888 
       0.343633         85.5218         76.9171 
       0.349808         82.7654         73.8587 
       0.355968         80.1739         70.8961 
       0.362074         77.3684         68.1821 
       0.368217         74.9855         65.7368 
       0.374374         72.6792         63.5851 
       0.380519         70.9245         61.6821 
       0.386598         69.0915         59.9532 
       0.392688         67.7206         58.2952 
        0.39888         65.8115         56.6102 
       0.405048         64.2146         54.9014 
       0.411186         62.6426         53.1812 
       0.417313         60.5862         51.4685 
       0.423458         58.9981         49.8039 
       0.429607         57.3878         48.2337 
       0.435692         55.5215         46.7897 
       0.441815         54.6736         45.4522 
       0.447964         53.7459         44.2133 
       0.454126         51.5751         43.0443 
       0.460267          50.782         41.9227 
       0.466387         49.3928         40.8299 
        0.47254         48.6213         39.7426 
       0.478662         47.7912         38.6674 
       0.484765         46.3438          37.615 
       0.490885         45.3096         36.5926 
       0.497035         44.7239         35.6078 
       0.503198         43.5119         34.6691 
       0.509342         42.3937         33.7853 
       0.515458         41.5786         32.9539 
       0.521598         40.8974         32.1569 
       0.527764         40.0751         31.3839 
       0.533884         39.4098         30.6367 
           0.54         38.5511          29.908 
       0.546137         37.9792         29.1928 
       0.552299         37.3705         28.4904 
       0.558452         36.2327         27.8081 
       0.564573         35.6803         27.1518 
       0.570708         35.1356         26.5202 
       0.576825         34.3209          25.917 
       0.582926         33.6571         25.3388 
       0.589034         32.8294           24.78 
       0.595184         32.4222         24.2351 
       0.601379         31.8402         23.7022 
       0.607522         31.2344         23.1885 
       0.613639         30.9591         22.6906 
       0.619772         30.1603         22.2041 
       0.625918         30.0027         21.7292 
       0.632068         29.5168         21.2673 
       0.638161         28.9186         20.8234 
         0.6443         28.3657         20.3904 
       0.650464         27.8794         19.9704 
       0.656582         27.7002         19.5668 
       0.662703          27.173         19.1751 
       0.668861         26.6846         18.7921 
       0.675024         26.2354         18.4187 
       0.681124          25.783         18.0582 
       0.687237         25.3661         17.7059 
       0.693381         25.1593         17.3611 
       0.699536         24.5208         17.0249 
       0.705665         24.4678         16.6994 
       0.711789         23.9208         16.3832 
       0.717957         23.6075         16.0736 
        0.72409         23.2704         15.7742 
       0.730186         22.9426         15.4844 
       0.736317         22.7113         15.2004 
       0.742472         22.3217         14.9225 
       0.748622         22.1025         14.6516 
        0.75476         21.7178          14.388 
       0.760888         21.4095         14.1312 
       0.767043         21.1616         13.8796 
       0.773185         20.7927         13.6347 
       0.779291         20.6946         13.3973 
       0.785407         20.4431         13.1652 
       0.791564         20.0834         12.9374 
       0.797719         19.6514         12.7153 
       0.803834         19.6302         12.4998 
       0.809972         19.4457         12.2887 
       0.816124         19.0101         12.0821 
       0.822261         18.8327         11.8809 
       0.828378         18.6408         11.6848 
       0.834502         18.4684          11.493 
       0.840667         18.2159         11.3043 
       0.846816         17.8983         11.1204 
       0.852925         17.7329         10.9418 
       0.859047         17.5443         10.7668 
       0.865192         17.3811          10.595 
       0.871341         17.2503         10.4269 
       0.877463         16.9353         10.2633 
       0.883569         16.7356         10.1036 
       0.889708         16.4965         9.94655 
       0.895864         16.3691         9.79248 
       0.902008         16.2456         9.64204 
       0.908149         16.0714         9.49488 
       0.914301         15.9633          9.3506 
       0.920448         15.6641         9.20948 
       0.926574         15.5301          9.0718 
       0.932687         15.3679         8.93726 
       0.938823         15.1669         8.80499 
       0.944975          15.009         8.67512 
       0.951105         14.8743         8.54837 
       0.957225         14.7431         8.42439 
       0.963368         14.6153         8.30247 
       0.969511           14.48         8.18299 
       0.975621         14.3427         8.06652 
       0.981748          14.155         7.95205 
       0.987916         14.0764          7.8391 
        0.99406          13.878         7.72879 
        1.00019         13.6868         7.62083 
        1.00632         13.6568         7.51506 
        1.01246         13.5218         7.41116 
        1.01859         13.3105         7.30941 
        1.02471         13.2622         7.20971 
        1.03085         13.1296         7.11154 
        1.03698         12.9306         7.01543 
        1.04314         12.8665          6.9207 
        1.04929         12.7046         6.82796 
        1.05541         12.5726         6.73731 
        1.06154         12.4924         6.64809 
        1.06769          12.432         6.56037 
        1.07382         12.2577         6.47453 
        1.07993         12.1772         6.39043 
        1.08607         12.0599         6.30749 
        1.09222         11.9714         6.22595 
        1.09836         11.8312         6.14597 
        1.10449         11.7459         6.06749 
        1.11063         11.6236         5.99031 
        1.11677         11.5774         5.91451 
         1.1229         11.5028         5.84016 
        1.12903         11.3524         5.76704 
        1.13518         11.2204         5.69512 
        1.14131         11.1701         5.62448 
        1.14745         11.0728         5.55509 
        1.15359         11.0004         5.48686 
        1.15973         10.8998         5.41977 
        1.16584         10.7449          5.3541 
        1.17197         10.6974         5.28944 
        1.17811         10.6365         5.22566 
        1.18424          10.542         5.16312 
        1.19038         10.5003         5.10144 
        1.19652         10.3833         5.04079 
        1.20267         10.2864         4.98114 
        1.20881          10.257         4.92248 
        1.21495         10.1755         4.86486 
        1.22108         10.0555         4.80817 
         1.2272         9.98827         4.75254 
        1.23334         9.89613         4.69766 
        1.23949         9.81173         4.64352 
        1.24562         9.77459         4.59039 
        1.25174         9.70334         4.53818 
        1.25789         9.63108         4.48663 
        1.26402         9.58543         4.43598 
        1.27014         9.50262         4.38624 
        1.27628         9.38531         4.33712 
        1.28244         9.32002         4.28866 
        1.28858         9.31451         4.24101 
        1.29471         9.20875          4.1942 
        1.30084          9.1209         4.14815 
        1.30697         9.10756         4.10272 
        1.31312         8.98145         4.05791 
        1.31925         8.92194         4.01391 
        1.32537         8.88094         3.97062 
        1.33151         8.83288         3.92781 
        1.33765         8.75589         3.88566 
        1.34378         8.69239         3.84422 
        1.34992         8.62688         3.80336 
        1.35606         8.58039           3.763 
         1.3622         8.52968         3.72331 
        1.36833         8.45264         3.68429 
        1.37445         8.41248         3.64586 
        1.38059         8.37562         3.60785 
        1.38675         8.29645         3.57031 
        1.39288         8.26413         3.53345 
        1.39901         8.17426         3.49713 
        1.40515         8.14112         3.46124 
         1.4113         8.08891         3.42588 
        1.41742         8.03279         3.39115 
        1.42355         7.96759         3.35683 
         1.4297          7.9298         3.32289 
        1.43585         7.89542         3.28944 
        1.44198         7.85586         3.25658 
        1.44809         7.79141         3.22424 
        1.45423         7.73345         3.19221 
        1.46036         7.68179         3.16068 
        1.46649         7.64596         3.12957 
        1.47263         7.57709         3.09886 
        1.47877         7.53541         3.06857 
        1.48491         7.49874         3.03865 
        1.49104          7.4514         3.00919 
        1.49718         7.41336          2.9801 
        1.50333         7.37208         2.95135 
        1.50947         7.31533         2.92304 
         1.5156         7.27825         2.89515 
        1.52172         7.24273         2.86762 
        1.52787         7.19223          2.8404 
          1.534         7.14033         2.81356 
        1.54013         7.11049         2.78711 
        1.54627         7.05216         2.76094 
        1.55241         7.02131         2.73511 
        1.55855         6.99336         2.70965 
        1.56467         6.93791         2.68458 
         1.5708         6.91857         2.65976 
        1.57695         6.85778         2.63522 
        1.58308         6.81091         2.61105 
        1.58922         6.79389         2.58717 
        1.59535         6.76414         2.56359 
         1.6015         6.70535         2.54028 
        1.60764          6.6585         2.51727 
        1.61376         6.64323         2.49461 
        1.61989         6.60303         2.47221 
        1.62604         6.56293         2.45004 
        1.63218         6.54621         2.42816 
        1.63831         6.50349          2.4066 
        1.64444         6.46963         2.38529 
        1.65059         6.40358         2.36419 
        1.65673         6.40761         2.34337 
        1.66285          6.3398         2.32286 
        1.66898         6.31421         2.30259 
        1.67512         6.28733         2.28253 
        1.68127         6.24988         2.26269 
         1.6874          6.2294         2.24313 
        1.69353         6.17664         2.22381 
        1.69967         6.15613         2.20468 
        1.70581         6.12803         2.18578 
        1.71193          6.0862         2.16717 
        1.71806         6.07022         2.14875 
        1.72421         6.02564          2.1305 
        1.73035         6.00985         2.11249 
        1.73649         5.97616         2.09469 
        1.74262         5.93758         2.07711 
        1.74876          5.9199         2.05972 
        1.75489         5.89027         2.04256 
        1.76101         5.84519         2.02561 
        1.76715          5.8291         2.00883 
        1.77329         5.79262         1.99222 
        1.77943         5.75405         1.97579 
        1.78557          5.7459         1.95957 
        1.79171         5.71126         1.94353 
        1.79785         5.67872         1.92767 
        1.80399         5.64669         1.91198 
        1.81012         5.62679          1.8965 
        1.81625          5.5978         1.88119 
        1.82239         5.57617         1.86604 
        1.82853         5.54275         1.85105 
        1.83466         5.51911         1.83625 
        1.84078         5.49307         1.82162 
        1.84692         5.48368         1.80713 
        1.85306          5.4388         1.79279 
         1.8592         5.40774         1.77862 
        1.86533         5.38937         1.76461 
        1.87147         5.36718         1.75074 
        1.87761         5.34072         1.73701 
        1.88375         5.31065         1.72345 
        1.88988         5.29313         1.71004 
        1.89601         5.26861         1.69677 
        1.90215         5.24455         1.68364 
        1.90829         5.21598         1.67065 
        1.91442         5.19467         1.65779 
        1.92056         5.17504         1.64509 
         1.9267         5.14168          1.6325 
        1.93284         5.12279         1.62004 
        1.93897         5.09597         1.60773 
        1.94509         5.08006         1.59558 
        1.95123         5.05356         1.58352 
        1.95737         5.02367         1.57158 
        1.96349         5.01215          1.5598 
        1.96964         4.98851          1.5481 
        1.97578         4.95707         1.53652 
        1.98192         4.94647         1.52508 
        1.98805         4.92476         1.51376 
        1.99419         4.89922         1.50255 
        2.00033         4.88941         1.49145 
        2.00647         4.85765         1.48046 
         2.0126          4.8454         1.46961 
        2.01874         4.81501         1.45884 
        2.02488         4.80389         1.44818 
        2.03101         4.76978         1.43764 
        2.03714         4.74867         1.42722 
        2.04328         4.73232         1.41689 
        2.04941         4.70577         1.40667 
        2.05554         4.69252         1.39656 
        2.06167         4.67305         1.38654 
        2.06781         4.65417         1.37661 
        2.07396         4.64336         1.36677 
        2.08009         4.61889         1.35704 
        2.08622         4.59399         1.34742 
        2.09237         4.57808         1.33787 
        2.09851         4.56502         1.32841 
        2.10464         4.54373         1.31906 
        2.11077         4.51625         1.30981 
        2.11691         4.49863         1.30063 
        2.12305         4.48776         1.29154 
        2.12918         4.47576         1.28256 
        2.13531         4.45386         1.27366 
        2.14145         4.43513         1.26483 
         2.1476         4.41135         1.25607 
        2.15372         4.39459         1.24744 
        2.15985         4.39334         1.23888 
        2.16599          4.3583         1.23038 
        2.17213           4.346         1.22196 
        2.17827         4.33483         1.21363 
         2.1844         4.31149         1.20538 
        2.19054          4.2919         1.19721 
        2.19666         4.27562         1.18913 
         2.2028         4.25954         1.18111 
        2.20893         4.24642         1.17316 
        2.21508         4.22555         1.16528 
        2.22122         4.20664         1.15747 
        2.22736         4.19478         1.14974 
        2.23349         4.18633         1.14209 
        2.23962         4.16557          1.1345 
        2.24577         4.14748         1.12698 
         2.2519         4.13982         1.11954 
        2.25802          4.1161         1.11217 
        2.26417         4.10327         1.10485 
        2.27031         4.08443         1.09759 
        2.27644         4.06588         1.09042 
        2.28257         4.05095         1.08331 
        2.28872         4.04468         1.07625 
        2.29486         4.02533         1.06926 
        2.30099         4.00688         1.06234 
        2.30712         3.99347         1.05549 
        2.31326         3.97227         1.04868 
         2.3194         3.96427         1.04193 
        2.32553          3.9522         1.03526 
        2.33166         3.94072         1.02865 
         2.3378         3.92061         1.02208 
        2.34394         3.90826         1.01558 
        2.35007         3.88974         1.00913 
        2.35619         3.88275         1.00276 
        2.36233         3.86637        0.996418 
        2.36848         3.84753        0.990122 
        2.37462         3.84379        0.983894 
        2.38075         3.82499        0.977726 
        2.38689          3.8156        0.971606 
        2.39303         3.79613         0.96554 
        2.39916         3.78277        0.959531 
        2.40529         3.77068        0.953575 
        2.41143         3.75784        0.947665 
        2.41757         3.75125        0.941802 
         2.4237           3.736        0.936001 
        2.42983         3.70997        0.930249 
        2.43598         3.70451         0.92453 
        2.44211         3.68797        0.918869 
        2.44823         3.67921        0.913268 
        2.45437         3.66362        0.907699 
        2.46052         3.65526        0.902172 
        2.46665         3.64382          0.8967 
        2.47279         3.62662        0.891277 
        2.47892         3.61595        0.885894 
        2.48507         3.60535        0.880551 
         2.4912          3.5877        0.875263 
