# k  (h/Mpc)    P(k)  (Mpc/h)^3    P_linear(k)  (Mpc/h)^3
     0.00783031         400.028          404.15 
       0.013688         508.179         509.902 
       0.019231         524.135         524.538 
      0.0249154         489.769         491.835 
      0.0312784         431.325         431.534 
      0.0375637         371.841         371.037 
      0.0433917         324.842         324.848 
      0.0492413           291.1         290.628 
      0.0555754         264.604         265.061 
      0.0619321         247.454         246.627 
       0.067871         231.075         231.467 
      0.0738098         214.805         215.309 
      0.0800417         195.376         196.158 
      0.0862327          175.49         175.737 
      0.0921407         156.791         156.751 
      0.0982031         139.451         139.598 
       0.104506         125.986         125.456 
       0.110769         115.715         115.292 
       0.116806          108.43         108.486 
       0.122832         103.711         103.494 
       0.129052         98.7887         98.9617 
       0.135211          93.852         94.0935 
       0.141259         88.5222         88.4866 
       0.147318           82.43         82.1459 
       0.153489         75.5885          75.446 
       0.159709         69.3142         69.0971 
       0.165845         64.3339         63.7388 
       0.171974         59.7515         59.5146 
       0.178125         56.6582         56.3476 
       0.184229         54.3833         53.9926 
        0.19034         52.0834         52.0447 
       0.196428         50.3892         50.1531 
       0.202534         48.5434         48.0584 
       0.208729         45.9633         45.6479 
       0.214876         43.2259         43.0501 
       0.220989         40.9293         40.4389 
       0.227147         38.2065          37.976 
        0.23329         36.0947         35.8306 
       0.239377         34.4119          34.071 
       0.245482         32.8517         32.6442 
       0.251667         31.8534         31.4507 
       0.257832         30.7222         30.3929 
       0.263955         29.7121         29.3626 
       0.270079         28.6355         28.2795 
        0.27624         27.6171         27.1184 
       0.282372         26.4123         25.9158 
        0.28843         25.1386         24.7344 
       0.294538         24.0264         23.6075 
       0.300721         23.1196         22.5761 
        0.30691          22.098         21.6727 
       0.313033         21.3394         20.8962 
       0.319153         20.4747         20.2102 
       0.325316         20.0721         19.5722 
        0.33145         19.4071         18.9567 
       0.337538         18.7927          18.342 
       0.343633         18.1173         17.7161 
       0.349808         17.5315         17.0774 
       0.355968         16.9154         16.4505 
       0.362074         16.3022          15.857 
       0.368217         15.7635         15.2999 
       0.374374          15.191         14.7891 
       0.380519         14.7847         14.3235 
       0.386598         14.3797         13.8991 
       0.392688         14.0143         13.4992 
        0.39888         13.5902          13.107 
       0.405048         13.2264          12.724 
       0.411186         12.8619         12.3469 
       0.417313         12.4372         11.9748 
       0.423458         12.1037         11.6108 
       0.429607         11.7205         11.2598 
       0.435692         11.3833         10.9293 
       0.441815          11.086          10.616 
       0.447964         10.8457         10.3203 
       0.454126         10.4925         10.0404 
       0.460267         10.2379         9.77487 
       0.466387         9.94531         9.52032 
        0.47254          9.7307         9.27134 
       0.478662         9.50968         9.02928 
       0.484765         9.23909         8.79387 
       0.490885         9.00917         8.56406 
       0.497035         8.85357         8.34037 
       0.503198         8.60504         8.12478 
       0.509342         8.40391         7.91925 
       0.515458          8.1878         7.72361 
       0.521598         8.01005         7.53534 
       0.527764         7.80521         7.35367 
       0.533884         7.66559         7.17976 
           0.54         7.48408         7.01141 
       0.546137         7.32976         6.84704 
       0.552299         7.17082         6.68631 
       0.558452         6.97205          6.5304 
       0.564573          6.8521         6.38004 
       0.570708         6.70501         6.23423 
       0.576825         6.53904          6.0937 
       0.582926         6.42343         5.95829 
       0.589034         6.24239         5.82734 
       0.595184         6.13242         5.69997 
       0.601379          6.0007          5.5758 
       0.607522         5.90635         5.45636 
       0.613639         5.81331         5.34072 
       0.619772         5.65745         5.22787 
       0.625918         5.57172         5.11789 
       0.632068         5.47929         5.01096 
       0.638161         5.34948         4.90809 
         0.6443         5.24131          4.8075 
       0.650464         5.12665         4.70949 
       0.656582         5.05991         4.61503 
       0.662703         4.96433         4.52322 
       0.668861         4.88363         4.43345 
       0.675024          4.7779         4.34611 
       0.681124         4.68321         4.26204 
       0.687237         4.61595         4.18005 
       0.693381         4.53644         4.09983 
       0.699536         4.41921         4.02157 
       0.705665         4.35352         3.94568 
       0.711789         4.28557         3.87181 
       0.717957         4.20347         3.79934 
        0.72409         4.13335         3.72916 
       0.730186         4.06364         3.66122 
       0.736317         4.02003         3.59464 
       0.742472         3.94968         3.52953 
       0.748622         3.87352         3.46612 
        0.75476         3.79412         3.40444 
       0.760888         3.73778         3.34437 
       0.767043         3.69587         3.28553 
       0.773185         3.61844         3.22823 
       0.779291         3.57194         3.17263 
       0.785407         3.51274         3.11827 
       0.791564         3.45953         3.06485 
       0.797719         3.40989         3.01273 
       0.803834          3.3635         2.96216 
       0.809972         3.31217         2.91258 
       0.816124         3.25074         2.86405 
       0.822261         3.19388         2.81677 
       0.828378         3.15508         2.77071 
       0.834502         3.11972         2.72566 
       0.840667         3.05372         2.68134 
       0.846816         3.00853         2.63813 
       0.852925         2.98045         2.59617 
       0.859047         2.93597         2.55503 
       0.865192         2.89316         2.51466 
       0.871341         2.85417         2.47515 
       0.877463         2.81973         2.43667 
       0.883569         2.76843         2.39912 
       0.889708         2.72696         2.36218 
       0.895864          2.6931         2.32592 
       0.902008            2.65         2.29051 
       0.908149         2.61849         2.25587 
       0.914301         2.56918         2.22189 
       0.920448         2.53928         2.18866 
       0.926574         2.50268         2.15622 
       0.932687         2.47237         2.12452 
       0.938823         2.44803         2.09335 
       0.944975         2.41252         2.06274 
       0.951105         2.38391         2.03286 
       0.957225         2.36309         2.00363 
       0.963368          2.3278         1.97487 
       0.969511         2.29257         1.94669 
       0.975621         2.25742         1.91922 
       0.981748         2.23797         1.89221 
       0.987916         2.20708         1.86556 
        0.99406         2.17279         1.83952 
        1.00019          2.1531         1.81404 
        1.00632         2.12165         1.78907 
        1.01246         2.09686         1.76454 
        1.01859         2.07406         1.74051 
        1.02471          2.0453         1.71697 
        1.03085         2.02542         1.69378 
        1.03698         1.99603         1.67108 
        1.04314         1.97612         1.64869 
        1.04929         1.94894         1.62678 
        1.05541         1.92913         1.60535 
        1.06154         1.90466         1.58426 
        1.06769         1.88348         1.56353 
        1.07382         1.86141         1.54323 
        1.07993         1.83335         1.52334 
        1.08607         1.82318         1.50373 
        1.09222         1.79712         1.48444 
        1.09836         1.78432         1.46552 
        1.10449         1.76268         1.44696 
        1.11063         1.73699         1.42869 
        1.11677          1.7165         1.41075 
         1.1229         1.69883         1.39315 
        1.12903         1.67779         1.37584 
        1.13518         1.66493         1.35882 
        1.14131         1.64133         1.34209 
        1.14745         1.61425         1.32565 
        1.15359         1.60638         1.30949 
        1.15973         1.58142          1.2936 
        1.16584         1.57606         1.27804 
        1.17197         1.55539         1.26272 
        1.17811         1.54016          1.2476 
        1.18424         1.52877         1.23278 
        1.19038         1.50738         1.21815 
        1.19652         1.48978         1.20378 
        1.20267         1.47978         1.18963 
        1.20881         1.45829         1.17572 
        1.21495         1.44871         1.16206 
        1.22108          1.4337         1.14861 
         1.2272         1.42264         1.13542 
        1.23334         1.40403          1.1224 
        1.23949          1.3889         1.10956 
        1.24562         1.37785         1.09695 
        1.25174         1.36328         1.08456 
        1.25789         1.35093         1.07233 
        1.26402         1.33256         1.06031 
        1.27014         1.32034          1.0485 
        1.27628           1.314         1.03684 
        1.28244         1.29424         1.02534 
        1.28858         1.28388         1.01402 
        1.29471         1.27287         1.00291 
        1.30084         1.25838        0.991968 
        1.30697         1.24765        0.981178 
        1.31312         1.22986        0.970534 
        1.31925         1.22366        0.960082 
        1.32537         1.21291        0.949796 
        1.33151         1.20286        0.939625 
        1.33765         1.18966         0.92961 
        1.34378         1.17539        0.919762 
        1.34992         1.17003        0.910051 
        1.35606         1.15511         0.90046 
         1.3622         1.14715        0.891025 
        1.36833         1.13559        0.881749 
        1.37445         1.12231         0.87261 
        1.38059         1.11317        0.863574 
        1.38675         1.11102        0.854645 
        1.39288         1.09512        0.845878 
        1.39901         1.08569         0.83724 
        1.40515         1.07706        0.828703 
         1.4113         1.06608        0.820289 
        1.41742         1.05687        0.812025 
        1.42355         1.05329        0.803861 
         1.4297         1.03843        0.795784 
        1.43585         1.03069        0.787823 
        1.44198         1.02619        0.780002 
        1.44809         1.01187        0.772302 
        1.45423         1.00454        0.764679 
        1.46036        0.996424        0.757173 
        1.46649        0.987831        0.749766 
        1.47263        0.978545        0.742453 
        1.47877        0.969321        0.735241 
        1.48491        0.961713        0.728115 
        1.49104        0.953015        0.721098 
        1.49718        0.947709         0.71417 
        1.50333        0.938403        0.707322 
        1.50947        0.932147        0.700578 
         1.5156         0.92315        0.693933 
        1.52172        0.915718        0.687375 
        1.52787        0.907342        0.680889 
          1.534        0.902176        0.674495 
        1.54013        0.891474         0.66819 
        1.54627        0.885023        0.661955 
        1.55241        0.877565          0.6558 
        1.55855        0.870429        0.649731 
        1.56467        0.866386        0.643757 
         1.5708        0.856358        0.637841 
        1.57695        0.852407        0.631991 
        1.58308        0.845015        0.626228 
        1.58922        0.838072        0.620534 
        1.59535        0.831602        0.614913 
         1.6015        0.825316        0.609354 
        1.60764         0.81973        0.603866 
        1.61376        0.811051        0.598462 
        1.61989        0.806758         0.59312 
        1.62604        0.799901        0.587831 
        1.63218        0.795767        0.582611 
        1.63831        0.787825        0.577466 
        1.64444        0.781694        0.572382 
        1.65059        0.776598        0.567348 
        1.65673        0.770018        0.562379 
        1.66285        0.764123        0.557485 
        1.66898        0.760515        0.552648 
        1.67512         0.75225        0.547858 
        1.68127        0.747014        0.543122 
         1.6874        0.743743        0.538453 
        1.69353        0.736422        0.533841 
        1.69967        0.731451        0.529273 
        1.70581        0.726496        0.524761 
        1.71193        0.721065        0.520319 
        1.71806        0.716029        0.515919 
        1.72421        0.710761        0.511561 
        1.73035        0.704756        0.507259 
        1.73649        0.701518        0.503008 
        1.74262        0.696223        0.498809 
        1.74876        0.690283        0.494655 
        1.75489        0.685311        0.490558 
        1.76101        0.679907        0.486509 
        1.76715        0.675794          0.4825 
        1.77329        0.671265        0.478531 
        1.77943        0.666053        0.474606 
        1.78557        0.661551        0.470731 
        1.79171        0.657778        0.466899 
        1.79785        0.652861        0.463109 
        1.80399        0.648203        0.459362 
        1.81012         0.64453        0.455661 
        1.81625        0.639265        0.452003 
        1.82239        0.636128        0.448381 
        1.82853        0.628937        0.444799 
        1.83466        0.626337        0.441261 
        1.84078        0.621309        0.437765 
        1.84692        0.618577        0.434301 
        1.85306        0.614107        0.430871 
         1.8592        0.610462        0.427483 
        1.86533        0.606423        0.424134 
        1.87147        0.602093        0.420817 
        1.87761        0.598737        0.417534 
        1.88375        0.592534         0.41429 
        1.88988        0.590436        0.411084 
        1.89601        0.585783        0.407911 
        1.90215        0.582676        0.404769 
        1.90829        0.578003        0.401661 
        1.91442        0.574503        0.398586 
        1.92056        0.571006        0.395547 
         1.9267        0.566806        0.392536 
        1.93284        0.563872        0.389554 
        1.93897        0.560346         0.38661 
        1.94509        0.556795        0.383702 
        1.95123        0.552403        0.380817 
        1.95737        0.549784         0.37796 
        1.96349        0.545559         0.37514 
        1.96964        0.542411         0.37234 
        1.97578        0.538723        0.369568 
        1.98192        0.537051         0.36683 
        1.98805        0.532716        0.364119 
        1.99419        0.529235        0.361436 
        2.00033        0.526854        0.358779 
        2.00647        0.522973        0.356149 
         2.0126        0.519572         0.35355 
        2.01874        0.516855        0.350973 
        2.02488        0.514078         0.34842 
        2.03101        0.509802        0.345897 
        2.03714        0.506413        0.343402 
        2.04328         0.50453        0.340928 
        2.04941        0.501234        0.338481 
        2.05554        0.497969         0.33606 
        2.06167        0.495395         0.33366 
        2.06781        0.490969        0.331282 
        2.07396        0.488055        0.328925 
        2.08009        0.485709        0.326595 
        2.08622        0.483004         0.32429 
        2.09237        0.481616        0.322003 
        2.09851        0.478455        0.319737 
        2.10464        0.475434        0.317498 
        2.11077        0.472184        0.315282 
        2.11691        0.469242        0.313083 
        2.12305        0.466686        0.310905 
        2.12918        0.463936        0.308752 
        2.13531        0.461165        0.306621 
        2.14145        0.458879        0.304504 
         2.1476        0.455991        0.302405 
        2.15372        0.454419        0.300336 
        2.15985        0.450662        0.298285 
        2.16599         0.44767        0.296247 
        2.17213         0.44588        0.294231 
        2.17827        0.444042        0.292233 
         2.1844        0.441626        0.290257 
        2.19054        0.438971        0.288297 
        2.19666        0.435667        0.286359 
         2.2028        0.433992        0.284437 
        2.20893          0.4315        0.282532 
        2.21508        0.428735        0.280642 
        2.22122        0.425825        0.278769 
        2.22736        0.423896        0.276917 
        2.23349        0.422381        0.275082 
        2.23962        0.419952        0.273264 
        2.24577        0.416495         0.27146 
         2.2519         0.41534        0.269674 
        2.25802        0.412484        0.267908 
        2.26417        0.410029        0.266153 
        2.27031        0.407775        0.264412 
        2.27644        0.406286        0.262692 
        2.28257        0.403731        0.260987 
        2.28872        0.401685        0.259294 
        2.29486        0.399175        0.257616 
        2.30099        0.397324        0.255957 
        2.30712        0.395705        0.254312 
        2.31326        0.392893        0.252678 
         2.3194        0.392555         0.25106 
        2.32553        0.390165        0.249459 
        2.33166         0.38793        0.247873 
         2.3378        0.385929        0.246298 
        2.34394        0.382571        0.244736 
        2.35007        0.381133        0.243191 
        2.35619        0.379205         0.24166 
        2.36233        0.376548        0.240139 
        2.36848        0.375582        0.238629 
        2.37462        0.373099        0.237134 
        2.38075        0.372173        0.235654 
        2.38689        0.369535        0.234185 
        2.39303        0.368496        0.232729 
        2.39916        0.365585        0.231287 
        2.40529        0.363996        0.229857 
        2.41143        0.362536        0.228439 
        2.41757        0.360482        0.227031 
         2.4237        0.358685        0.225639 
        2.42983        0.357127        0.224258 
        2.43598        0.355673        0.222885 
        2.44211        0.353873        0.221526 
        2.44823        0.352456        0.220181 
        2.45437        0.349634        0.218844 
        2.46052        0.349015        0.217517 
        2.46665        0.346761        0.216203 
        2.47279        0.344863        0.214901 
        2.47892        0.343106        0.213608 
        2.48507        0.341796        0.212325 
         2.4912        0.340225        0.211055 
