# k  (h/Mpc)    P(k)  (Mpc/h)^3    P_linear(k)  (Mpc/h)^3
     0.00783031         17047.7         17291.5 
       0.013688         22000.5         21779.4 
       0.019231         22410.3         22386.1 
      0.0249154         20472.4         20979.9 
      0.0312784         18123.2         18401.1 
      0.0375637         15753.7         15817.8 
      0.0433917         13512.2         13846.6 
      0.0492413           12229         12386.6 
      0.0555754         10848.9         11295.9 
      0.0619321         10445.5         10509.5 
       0.067871          9480.4            9863 
      0.0738098          8814.3         9174.07 
      0.0800417         7922.26         8357.77 
      0.0862327         7209.68         7487.47 
      0.0921407         6580.01         6678.38 
      0.0982031         5854.51         5947.46 
       0.104506         5463.48         5344.83 
       0.110769         5030.21         4911.76 
       0.116806         4730.26         4621.74 
       0.122832         4508.48         4408.99 
       0.129052         4200.61         4215.88 
       0.135211         4002.09         4008.46 
       0.141259         3846.43         3769.57 
       0.147318         3631.88         3499.42 
       0.153489         3326.97         3213.99 
       0.159709         3141.58         2943.51 
       0.165845         3022.02         2715.23 
       0.171974         2848.88         2535.27 
       0.178125         2709.06         2400.35 
       0.184229         2588.49         2300.02 
        0.19034         2465.12         2217.03 
       0.196428         2418.21         2136.45 
       0.202534         2326.39         2047.21 
       0.208729         2229.21         1944.52 
       0.214876         2145.95         1833.85 
       0.220989         2072.18         1722.62 
       0.227147         1987.55          1617.7 
        0.23329         1910.02         1526.31 
       0.239377         1883.67         1451.35 
       0.245482         1771.38         1390.57 
       0.251667          1763.3         1339.73 
       0.257832         1694.97         1294.66 
       0.263955         1640.39         1250.77 
       0.270079         1587.45         1204.63 
        0.27624         1569.13         1155.17 
       0.282372         1505.48         1103.94 
        0.28843         1502.83         1053.62 
       0.294538          1431.4         1005.61 
       0.300721         1421.27         961.678 
        0.30691         1370.48         923.194 
       0.313033         1342.83         890.117 
       0.319153         1325.93         860.897 
       0.325316         1281.94         833.717 
        0.33145         1255.66         807.498 
       0.337538         1232.48         781.313 
       0.343633         1209.39         754.653 
       0.349808         1171.17         727.446 
       0.355968         1162.14          700.74 
       0.362074         1152.87         675.459 
       0.368217         1116.04         651.726 
       0.374374          1078.3         629.968 
       0.380519         1081.29         610.136 
       0.386598         1050.54         592.055 
       0.392688         1045.92         575.023 
        0.39888          1017.3         558.317 
       0.405048         1007.39         542.002 
       0.411186         993.113         525.937 
       0.417313         972.312         510.088 
       0.423458          956.09         494.579 
       0.429607         945.117          479.63 
       0.435692         927.188         465.549 
       0.441815         919.553         452.206 
       0.447964         900.833         439.612 
       0.454126         895.299         427.686 
       0.460267         873.122         416.376 
       0.466387          861.49         405.533 
        0.47254         860.258         394.927 
       0.478662         848.944         384.616 
       0.484765         826.822         374.588 
       0.490885         822.146         364.799 
       0.497035         804.593          355.27 
       0.503198         800.654         346.087 
       0.509342         791.244         337.332 
       0.515458         787.941         328.999 
       0.521598         769.267         320.979 
       0.527764         755.601          313.24 
       0.533884         753.804         305.832 
           0.54         747.652         298.661 
       0.546137         739.076         291.659 
       0.552299         730.957         284.813 
       0.558452         724.529         278.172 
       0.564573         715.658         271.767 
       0.570708         708.369         265.556 
       0.576825         690.071          259.57 
       0.582926         693.765         253.801 
       0.589034         686.349         248.224 
       0.595184         680.195         242.798 
       0.601379         671.092         237.509 
       0.607522         661.478         232.421 
       0.613639          662.08         227.495 
       0.619772         649.074         222.688 
       0.625918         644.118         218.003 
       0.632068         636.684         213.448 
       0.638161         633.999         209.067 
         0.6443         623.448         204.782 
       0.650464         622.035         200.607 
       0.656582         616.264         196.583 
       0.662703         614.088         192.672 
       0.668861         603.903         188.849 
       0.675024         598.741         185.128 
       0.681124         595.233         181.547 
       0.687237         590.814         178.055 
       0.693381         583.316         174.638 
       0.699536         573.258         171.304 
       0.705665         573.734         168.071 
       0.711789         570.209         164.925 
       0.717957         565.029         161.838 
        0.72409         562.202         158.848 
       0.730186         553.775         155.954 
       0.736317         551.197         153.118 
       0.742472         547.615         150.345 
       0.748622         541.941         147.644 
        0.75476         533.631         145.016 
       0.760888         529.824         142.458 
       0.767043          528.92         139.951 
       0.773185         524.273          137.51 
       0.779291         519.248         135.142 
       0.785407         514.641         132.827 
       0.791564         509.706         130.551 
       0.797719          507.93         128.331 
       0.803834         502.055         126.177 
       0.809972         500.269         124.065 
       0.816124          498.87         121.998 
       0.822261         491.501         119.984 
       0.828378         489.116         118.022 
       0.834502         483.825         116.103 
       0.840667          480.28         114.215 
       0.846816         477.847         112.374 
       0.852925         474.487         110.587 
       0.859047         473.081         108.835 
       0.865192         466.675         107.115 
       0.871341         462.806         105.432 
       0.877463         462.734         103.793 
       0.883569          457.64         102.193 
       0.889708         455.404          100.62 
       0.895864         453.895         99.0754 
       0.902008         449.786         97.5671 
       0.908149         443.572         96.0915 
       0.914301         442.029         94.6442 
       0.920448         440.036         93.2284 
       0.926574         432.802         91.8468 
       0.932687         432.136         90.4965 
       0.938823         428.107         89.1687 
       0.944975         428.205         87.8648 
       0.951105         423.272          86.592 
       0.957225         420.369         85.3468 
       0.963368         415.909         84.1221 
       0.969511         414.884         82.9217 
       0.975621         412.515         81.7514 
       0.981748         409.418         80.6009 
       0.987916         407.174         79.4656 
        0.99406         400.974         78.3566 
        1.00019          399.45         77.2712 
        1.00632         397.753         76.2076 
        1.01246         394.505         75.1627 
        1.01859         394.145         74.1392 
        1.02471         388.949         73.1362 
        1.03085         387.466         72.1486 
        1.03698         385.548         71.1814 
        1.04314         382.332          70.228 
        1.04929         378.163         69.2945 
        1.05541          379.31         68.3818 
        1.06154         373.219         67.4835 
        1.06769         371.573         66.6001 
        1.07382         368.827         65.7356 
        1.07993         367.006         64.8886 
        1.08607         365.924         64.0531 
        1.09222         361.721         63.2316 
        1.09836         359.478         62.4256 
        1.10449         357.051         61.6347 
        1.11063         352.444         60.8567 
        1.11677         353.708         60.0926 
         1.1229          350.79          59.343 
        1.12903         348.392         58.6056 
        1.13518         344.558         57.8802 
        1.14131         343.364         57.1677 
        1.14745         340.753         56.4676 
        1.15359          339.04         55.7792 
        1.15973          336.91         55.1021 
        1.16584         334.302         54.4394 
        1.17197         333.611         53.7867 
        1.17811         330.131         53.1429 
        1.18424         327.352         52.5115 
        1.19038         326.151         51.8886 
        1.19652         324.091         51.2762 
        1.20267         322.493         50.6738 
        1.20881         320.454         50.0812 
        1.21495         317.948         49.4991 
        1.22108         316.151         48.9265 
         1.2272         314.082         48.3643 
        1.23334         312.331         47.8098 
        1.23949         309.443         47.2627 
        1.24562         308.468         46.7258 
        1.25174          306.59         46.1981 
        1.25789         303.433          45.677 
        1.26402         301.649         45.1649 
        1.27014         299.808          44.662 
        1.27628         297.738         44.1653 
        1.28244         297.853         43.6752 
        1.28858         294.641         43.1933 
        1.29471         293.353         42.7198 
        1.30084         290.943         42.2539 
        1.30697         289.747         41.7943 
        1.31312         286.527         41.3409 
        1.31925         285.307         40.8957 
        1.32537         284.525         40.4576 
        1.33151         281.686         40.0243 
        1.33765         279.525         39.5977 
        1.34378         278.753         39.1782 
        1.34992         277.018         38.7646 
        1.35606         275.541          38.356 
         1.3622         273.315         37.9541 
        1.36833         271.807          37.559 
        1.37445         269.977         37.1697 
        1.38059         267.868         36.7848 
        1.38675         266.532         36.4045 
        1.39288         265.169         36.0311 
        1.39901         263.746         35.6631 
        1.40515         262.214         35.2995 
         1.4113         260.483         34.9411 
        1.41742         258.381         34.5891 
        1.42355         257.271         34.2413 
         1.4297         255.369         33.8973 
        1.43585         254.052         33.5581 
        1.44198          252.91          33.225 
        1.44809         250.484          32.897 
        1.45423         249.176         32.5723 
        1.46036         247.959         32.2526 
        1.46649         246.266         31.9371 
        1.47263         245.014         31.6255 
        1.47877         243.101         31.3184 
        1.48491         240.927         31.0148 
        1.49104         240.244         30.7159 
        1.49718         238.507         30.4208 
        1.50333         237.534         30.1291 
        1.50947         236.011         29.8418 
         1.5156         233.966         29.5588 
        1.52172         233.181         29.2794 
        1.52787         231.287         29.0031 
          1.534         230.591         28.7308 
        1.54013         228.328         28.4622 
        1.54627         227.461         28.1967 
        1.55241         226.135         27.9344 
        1.55855         224.073         27.6759 
        1.56467         223.584         27.4215 
         1.5708         222.346         27.1695 
        1.57695         220.665         26.9203 
        1.58308         219.434         26.6748 
        1.58922         217.097         26.4323 
        1.59535           216.1         26.1928 
         1.6015         215.136          25.956 
        1.60764         213.908         25.7223 
        1.61376         212.828         25.4921 
        1.61989          211.53         25.2645 
        1.62604         209.923         25.0393 
        1.63218         208.997         24.8169 
        1.63831         207.423         24.5977 
        1.64444         206.453         24.3812 
        1.65059         205.508         24.1667 
        1.65673          203.96         23.9551 
        1.66285         202.429         23.7466 
        1.66898         201.559         23.5406 
        1.67512         200.642         23.3366 
        1.68127         198.499         23.1348 
         1.6874          197.77         22.9359 
        1.69353         196.602         22.7395 
        1.69967         195.201         22.5449 
        1.70581         194.385         22.3527 
        1.71193         192.826         22.1635 
        1.71806         192.185          21.976 
        1.72421         190.691         21.7904 
        1.73035         190.005         21.6072 
        1.73649         188.795         21.4261 
        1.74262         187.523         21.2472 
        1.74876          186.11         21.0703 
        1.75489         185.429         20.8958 
        1.76101         183.859         20.7233 
        1.76715          183.15         20.5525 
        1.77329         181.996         20.3835 
        1.77943         181.178         20.2163 
        1.78557         179.782         20.0512 
        1.79171         179.131          19.888 
        1.79785          177.59         19.7265 
        1.80399         176.761         19.5669 
        1.81012         175.755         19.4093 
        1.81625         174.912         19.2535 
        1.82239         173.564         19.0992 
        1.82853         173.005         18.9466 
        1.83466         171.803         18.7959 
        1.84078         170.931          18.647 
        1.84692         169.599         18.4995 
        1.85306         168.864         18.3533 
         1.8592         167.868          18.209 
        1.86533         167.191         18.0664 
        1.87147         165.983         17.9251 
        1.87761          164.91         17.7852 
        1.88375         163.904         17.6471 
        1.88988         162.363         17.5105 
        1.89601         162.275         17.3753 
        1.90215         161.185         17.2415 
        1.90829          159.99         17.1091 
        1.91442         159.367         16.9781 
        1.92056         158.365         16.8487 
         1.9267         157.122         16.7204 
        1.93284         156.303         16.5934 
        1.93897         155.785          16.468 
        1.94509          154.82         16.3441 
        1.95123         153.875         16.2213 
        1.95737         152.887         16.0996 
        1.96349         152.089         15.9794 
        1.96964          151.09         15.8602 
        1.97578          150.28         15.7421 
        1.98192         149.371         15.6254 
        1.98805         148.528           15.51 
        1.99419         147.684         15.3957 
        2.00033         146.887         15.2825 
        2.00647         146.049         15.1705 
         2.0126         145.003         15.0598 
        2.01874         144.573           14.95 
        2.02488         143.918         14.8413 
        2.03101         142.559         14.7338 
        2.03714         142.029         14.6275 
        2.04328         140.943         14.5221 
        2.04941         140.602         14.4179 
        2.05554         139.258         14.3148 
        2.06167         138.819         14.2125 
        2.06781         137.807         14.1113 
        2.07396         137.193         14.0109 
        2.08009         136.428         13.9116 
        2.08622         135.396         13.8134 
        2.09237         134.814          13.716 
        2.09851         134.095         13.6195 
        2.10464         133.637         13.5241 
        2.11077         132.764         13.4297 
        2.11691         131.992          13.336 
        2.12305         131.251         13.2433 
        2.12918         130.372         13.1516 
        2.13531         129.859         13.0608 
        2.14145         128.815         12.9706 
         2.1476         127.957         12.8812 
        2.15372         127.837         12.7931 
        2.15985         127.031         12.7057 
        2.16599         126.112         12.6189 
        2.17213         125.516          12.533 
        2.17827         124.729         12.4479 
         2.1844         123.989         12.3637 
        2.19054         123.455         12.2803 
        2.19666         122.566         12.1977 
         2.2028         121.997         12.1158 
        2.20893         121.531         12.0347 
        2.21508         120.681         11.9542 
        2.22122          119.97         11.8744 
        2.22736         119.341         11.7955 
        2.23349         118.764         11.7174 
        2.23962         118.094         11.6399 
        2.24577         117.362          11.563 
         2.2519         116.878          11.487 
        2.25802         115.998         11.4118 
        2.26417         115.698          11.337 
        2.27031         114.852         11.2628 
        2.27644         114.269         11.1896 
        2.28257         113.527         11.1169 
        2.28872          113.05         11.0448 
        2.29486         112.236         10.9734 
        2.30099         111.674         10.9027 
        2.30712         111.158         10.8326 
        2.31326         110.522          10.763 
         2.3194         109.872         10.6941 
        2.32553         109.219         10.6259 
        2.33166         108.744         10.5583 
         2.3378         108.379         10.4913 
        2.34394         107.609         10.4247 
        2.35007         106.951         10.3589 
        2.35619          106.45         10.2937 
        2.36233         105.927         10.2289 
        2.36848         105.331         10.1646 
        2.37462         104.854         10.1009 
        2.38075         104.115         10.0379 
        2.38689         103.681         9.97529 
        2.39303         103.101         9.91327 
        2.39916          102.65         9.85184 
        2.40529          102.31         9.79095 
        2.41143         101.649         9.73052 
        2.41757         100.902         9.67058 
         2.4237          100.33         9.61126 
        2.42983           99.85         9.55244 
        2.43598         99.3173         9.49396 
        2.44211         98.9326         9.43607 
        2.44823         98.2901         9.37879 
        2.45437          97.873         9.32184 
        2.46052         97.0885         9.26531 
        2.46665         96.8436         9.20935 
        2.47279         96.4329         9.15387 
        2.47892         95.6788         9.09882 
        2.48507         95.2643         9.04417 
         2.4912         94.8059         8.99007 
