# k  (h/Mpc)    P(k)  (Mpc/h)^3    P_linear(k)  (Mpc/h)^3
     0.00783031         7066.98         7159.28 
       0.013688         9507.75         9466.73 
       0.019231         10125.7         10128.5 
      0.0249154         9681.08         9844.19 
      0.0312784          8855.6         8941.67 
      0.0375637          7877.1         7897.87 
      0.0433917         6920.09         7035.29 
      0.0492413         6305.61         6359.84 
      0.0555754         5683.76         5836.25 
      0.0619321         5444.57         5458.92 
       0.067871         5030.33         5161.22 
      0.0738098         4721.81         4854.43 
      0.0800417         4319.11          4489.3 
      0.0862327         3967.72          4086.5 
      0.0921407         3626.92         3693.87 
      0.0982031          3247.1            3320 
       0.104506         3003.71         2993.97 
       0.110769         2758.66         2746.96 
       0.116806          2571.1         2576.27 
       0.122832         2461.25         2453.96 
       0.129052         2315.88         2353.22 
       0.135211         2219.48         2255.16 
       0.141259         2135.46         2144.91 
       0.147318         2022.94         2016.09 
       0.153489         1865.06         1871.77 
       0.159709         1752.97         1725.47 
       0.165845         1665.84         1593.42 
       0.171974          1553.3         1482.89 
       0.178125         1472.63         1396.62 
       0.184229         1414.82         1332.84 
        0.19034          1331.6         1284.15 
       0.196428         1314.87         1242.43 
       0.202534         1278.47         1199.81 
       0.208729         1222.42         1150.76 
       0.214876         1162.42          1095.1 
       0.220989         1127.41         1035.06 
       0.227147         1064.17         974.218 
        0.23329         1018.97         917.718 
       0.239377         995.508         869.147 
       0.245482         930.804         829.132 
       0.251667         922.754         796.799 
       0.257832         891.469         770.501 
       0.263955         864.653          747.29 
       0.270079         837.738         724.257 
        0.27624          829.35         699.368 
       0.282372         794.527         672.335 
        0.28843         777.222         644.007 
       0.294538         740.579         615.168 
       0.300721         736.275         587.346 
        0.30691         702.891         562.149 
       0.313033         689.016         540.522 
       0.319153         669.234          522.04 
       0.325316         649.995         505.969 
        0.33145         633.073         491.455 
       0.337538         626.184         477.551 
       0.343633         607.296         463.366 
       0.349808         588.642         448.416 
       0.355968         583.725         432.991 
       0.362074         572.285         417.616 
       0.368217          557.07          402.62 
       0.374374         536.133         388.521 
       0.380519         531.116         375.727 
       0.386598         519.184         364.336 
       0.392688         516.238         354.033 
        0.39888         501.669         344.382 
       0.405048         492.656         335.197 
       0.411186         483.388         326.198 
       0.417313         475.119         317.184 
       0.423458         467.184         308.047 
       0.429607         457.458         298.949 
       0.435692         447.073         290.143 
       0.441815          444.35         281.637 
       0.447964         435.806         273.603 
       0.454126         422.043         266.122 
       0.460267         417.247         259.173 
       0.466387         412.658         252.676 
        0.47254         404.403         246.457 
       0.478662         402.987         240.451 
       0.484765         391.912         234.546 
       0.490885         387.463         228.697 
       0.497035          381.27           222.9 
       0.503198         373.893         217.199 
       0.509342          371.03         211.684 
       0.515458         366.971         206.422 
       0.521598         360.886         201.402 
       0.527764         354.384         196.606 
       0.533884          351.41         192.066 
           0.54         346.865         187.723 
       0.546137         345.539         183.516 
       0.552299         338.828         179.405 
       0.558452         335.564         175.377 
       0.564573         330.144         171.444 
       0.570708         324.949         167.593 
       0.576825         320.508         163.859 
       0.582926         317.689         160.252 
       0.589034         313.935         156.762 
       0.595184         311.173         153.373 
       0.601379         308.343         150.088 
       0.607522         302.679         146.952 
       0.613639         301.603         143.934 
       0.619772         294.427         140.994 
       0.625918         293.069         138.119 
       0.632068         289.306         135.304 
       0.638161          288.17          132.58 
         0.6443         283.205         129.905 
       0.650464         280.923         127.294 
       0.656582         279.561          124.78 
       0.662703         276.413          122.34 
       0.668861         272.171         119.958 
       0.675024         269.458         117.641 
       0.681124         268.551         115.412 
       0.687237         264.674         113.239 
       0.693381         261.118         111.112 
       0.699536         259.278         109.037 
       0.705665         258.447         107.024 
       0.711789          254.37         105.062 
       0.717957          253.01         103.135 
        0.72409          250.24         101.264 
       0.730186         247.061         99.4514 
       0.736317          245.28          97.673 
       0.742472         244.123         95.9323 
       0.748622          242.33         94.2372 
        0.75476         240.309         92.5889 
       0.760888         237.013         90.9843 
       0.767043         236.204         89.4129 
       0.773185         233.555         87.8831 
       0.779291         229.879         86.3984 
       0.785407         229.261         84.9461 
       0.791564          227.18          83.518 
       0.797719         224.687         82.1231 
       0.803834         223.659         80.7688 
       0.809972         221.345         79.4402 
       0.816124         221.597         78.1387 
       0.822261         218.163           76.87 
       0.828378         216.629         75.6337 
       0.834502         216.393         74.4239 
       0.840667         212.874         73.2333 
       0.846816         211.945         72.0726 
       0.852925         210.278         70.9447 
       0.859047          208.48         69.8391 
       0.865192         207.274         68.7538 
       0.871341         205.053         67.6912 
       0.877463         203.943         66.6562 
       0.883569         202.178         65.6457 
       0.889708         200.863         64.6512 
       0.895864         198.667         63.6751 
       0.902008          197.92         62.7214 
       0.908149         196.909          61.788 
       0.914301         194.784         60.8723 
       0.920448         193.469         59.9762 
       0.926574         192.544         59.1016 
       0.932687         191.478         58.2464 
       0.938823         189.381         57.4052 
       0.944975         187.997         56.5789 
       0.951105         187.105          55.772 
       0.957225         184.897         54.9824 
       0.963368         183.513         54.2056 
       0.969511         182.756         53.4439 
       0.975621         181.756         52.7011 
       0.981748         181.191         51.9706 
       0.987916         178.836         51.2495 
        0.99406         178.113          50.545 
        1.00019         177.333         49.8552 
        1.00632         175.803         49.1791 
        1.01246         174.731         48.5146 
        1.01859          173.19         47.8636 
        1.02471         172.724         47.2254 
        1.03085         170.928         46.5968 
        1.03698         169.655         45.9811 
        1.04314         168.714         45.3741 
        1.04929          167.46         44.7795 
        1.05541         166.744          44.198 
        1.06154         165.573         43.6256 
        1.06769         165.381         43.0626 
        1.07382          164.24         42.5114 
        1.07993         162.952         41.9712 
        1.08607         161.707         41.4383 
        1.09222         160.869         40.9142 
        1.09836         159.551         40.3998 
        1.10449         158.494          39.895 
        1.11063         157.609         39.3984 
        1.11677         157.072         38.9104 
         1.1229         155.368         38.4317 
        1.12903         154.621         37.9607 
        1.13518         154.566         37.4973 
        1.14131         152.899         37.0419 
        1.14745         152.228         36.5944 
        1.15359         151.117         36.1543 
        1.15973         150.832         35.7213 
        1.16584         149.408         35.2975 
        1.17197          148.63         34.8799 
        1.17811         147.829         34.4679 
        1.18424         146.849         34.0638 
        1.19038         146.247         33.6651 
        1.19652         145.368          33.273 
        1.20267         144.339         32.8871 
        1.20881         143.487         32.5076 
        1.21495         142.591         32.1346 
        1.22108          141.93         31.7677 
         1.2272         140.944         31.4073 
        1.23334         140.129         31.0518 
        1.23949         138.604         30.7009 
        1.24562         138.557         30.3565 
        1.25174         137.169          30.018 
        1.25789         136.687         29.6836 
        1.26402         136.166         29.3549 
        1.27014         135.064         29.0321 
        1.27628         134.558         28.7132 
        1.28244         133.727         28.3985 
        1.28858         133.061          28.089 
        1.29471         131.886         27.7848 
        1.30084         131.293         27.4855 
        1.30697           130.6         27.1902 
        1.31312         130.293         26.8988 
        1.31925         129.171         26.6126 
        1.32537         128.797         26.3309 
        1.33151         127.395         26.0523 
        1.33765         126.956         25.7779 
        1.34378         126.069         25.5081 
        1.34992         125.964          25.242 
        1.35606         125.044         24.9791 
         1.3622         124.127         24.7205 
        1.36833         123.626         24.4662 
        1.37445         122.692         24.2156 
        1.38059         122.371         23.9678 
        1.38675         121.436         23.7229 
        1.39288         120.863         23.4824 
        1.39901         120.439         23.2454 
        1.40515         119.825         23.0111 
         1.4113         118.458         22.7802 
        1.41742         118.453         22.5534 
        1.42355         117.483         22.3292 
         1.4297         116.846         22.1074 
        1.43585         116.107         21.8888 
        1.44198          115.82          21.674 
        1.44809         114.859         21.4625 
        1.45423         114.137          21.253 
        1.46036         113.807         21.0467 
        1.46649         113.242         20.8431 
        1.47263         112.745         20.6421 
        1.47877         112.165         20.4438 
        1.48491         111.329         20.2479 
        1.49104          110.72         20.0549 
        1.49718         110.105         19.8643 
        1.50333         109.504          19.676 
        1.50947         108.742         19.4904 
         1.5156         108.597         19.3076 
        1.52172         107.685         19.1271 
        1.52787         107.534         18.9485 
          1.534         106.911         18.7725 
        1.54013         106.008         18.5989 
        1.54627         105.448         18.4272 
        1.55241         104.947         18.2577 
        1.55855         104.583         18.0905 
        1.56467         103.874          17.926 
         1.5708         103.244          17.763 
        1.57695         103.024         17.6018 
        1.58308         101.969          17.443 
        1.58922         101.931          17.286 
        1.59535         101.387         17.1311 
         1.6015         100.785         16.9778 
        1.60764         100.224         16.8266 
        1.61376         99.6876         16.6775 
        1.61989         99.2526         16.5302 
        1.62604         98.5446         16.3844 
        1.63218         98.3853         16.2404 
        1.63831         97.6708         16.0985 
        1.64444         97.2061         15.9582 
        1.65059         96.4351         15.8193 
        1.65673         95.9764         15.6822 
        1.66285         95.6928         15.5471 
        1.66898         95.0847         15.4136 
        1.67512         94.4874         15.2813 
        1.68127         93.9916         15.1506 
         1.6874         93.5929         15.0216 
        1.69353         93.1414         14.8943 
        1.69967         92.5625         14.7681 
        1.70581         92.2603         14.6435 
        1.71193         91.8703         14.5208 
        1.71806         91.0628         14.3992 
        1.72421         90.8848         14.2788 
        1.73035         90.2474         14.1599 
        1.73649         89.8132         14.0424 
        1.74262         89.4054         13.9263 
        1.74876         88.9499         13.8115 
        1.75489         88.3596         13.6982 
        1.76101         88.0433         13.5863 
        1.76715          87.542         13.4754 
        1.77329         87.1391         13.3656 
        1.77943         86.7314         13.2571 
        1.78557         86.3299         13.1499 
        1.79171            85.8         13.0438 
        1.79785         85.5142         12.9389 
        1.80399         84.9638         12.8353 
        1.81012         84.6556         12.7328 
        1.81625         84.0493         12.6316 
        1.82239         83.6263         12.5313 
        1.82853         83.3396         12.4322 
        1.83466         82.7905         12.3342 
        1.84078         82.3634         12.2374 
        1.84692         81.9766         12.1415 
        1.85306         81.5996         12.0465 
         1.8592         80.9554         11.9527 
        1.86533         80.6575         11.8599 
        1.87147         80.1465          11.768 
        1.87761         79.8196         11.6771 
        1.88375         79.6381         11.5872 
        1.88988         79.1838         11.4984 
        1.89601         78.6516         11.4104 
        1.90215         78.3453         11.3234 
        1.90829         78.0186         11.2372 
        1.91442         77.4696          11.152 
        1.92056         77.0985         11.0677 
         1.9267         76.7321         10.9843 
        1.93284         76.1486         10.9016 
        1.93897         75.9121         10.8199 
        1.94509         75.3137         10.7393 
        1.95123         75.1203         10.6593 
        1.95737         74.9647           10.58 
        1.96349         74.4829         10.5018 
        1.96964         74.0246         10.4241 
        1.97578         73.7281         10.3472 
        1.98192         73.4152         10.2712 
        1.98805         73.0736          10.196 
        1.99419         72.5441         10.1216 
        2.00033         72.2981         10.0478 
        2.00647         71.9651          9.9748 
         2.0126         71.4205         9.90266 
        2.01874         71.0831         9.83113 
        2.02488         70.9454         9.76024 
        2.03101          70.524         9.69019 
        2.03714         70.0307         9.62089 
        2.04328         69.7657          9.5522 
        2.04941         69.3146         9.48423 
        2.05554         68.9443         9.41698 
        2.06167         68.8726          9.3503 
        2.06781         68.3856         9.28425 
        2.07396              68         9.21875 
        2.08009         67.7718           9.154 
        2.08622         67.3265         9.08995 
        2.09237         67.0803         9.02638 
        2.09851          66.787         8.96342 
        2.10464         66.3718         8.90117 
        2.11077         66.0399         8.83958 
        2.11691         65.7104         8.77845 
        2.12305         65.3439         8.71789 
        2.12918         65.0105         8.65806 
        2.13531          64.732         8.59878 
        2.14145         64.4075         8.53992 
         2.1476          64.224         8.48155 
        2.15372         63.8225         8.42403 
        2.15985         63.4544         8.36697 
        2.16599         63.1913         8.31029 
        2.17213         62.9034          8.2542 
        2.17827         62.5627         8.19864 
         2.1844         62.0706         8.14364 
        2.19054         61.8792         8.08913 
        2.19666         61.6895          8.0352 
         2.2028         61.4677         7.98171 
        2.20893         61.1151         7.92869 
        2.21508         60.8243         7.87609 
        2.22122         60.5634         7.82395 
        2.22736         60.1789          7.7724 
        2.23349          59.929         7.72132 
        2.23962         59.5473         7.67068 
        2.24577         59.2406         7.62045 
         2.2519         59.0421         7.57075 
        2.25802         58.7611         7.52156 
        2.26417         58.4028         7.47268 
        2.27031         58.1856         7.42419 
        2.27644         57.7765         7.37628 
        2.28257         57.6029         7.32879 
        2.28872         57.2795         7.28163 
        2.29486         57.0212          7.2349 
        2.30099         56.7749         7.18868 
        2.30712         56.5084         7.14284 
        2.31326         56.1793         7.09733 
         2.3194         55.9379         7.05224 
        2.32553         55.6783         7.00762 
        2.33166         55.3379         6.96341 
         2.3378         55.0013         6.91952 
        2.34394         54.6689           6.876 
        2.35007         54.5226         6.83291 
        2.35619         54.3628         6.79025 
        2.36233         54.1497         6.74785 
        2.36848         53.6736         6.70573 
        2.37462         53.5186         6.66405 
        2.38075         53.2485         6.62278 
        2.38689         53.0375         6.58182 
        2.39303         52.8529         6.54121 
        2.39916         52.6251         6.50099 
        2.40529         52.2614         6.46112 
        2.41143         51.9878         6.42155 
        2.41757         51.7809         6.38229 
         2.4237         51.5477         6.34344 
        2.42983         51.2497         6.30492 
        2.43598         50.9988         6.26661 
        2.44211         50.7808         6.22869 
        2.44823         50.4999         6.19117 
        2.45437         50.2349         6.15386 
        2.46052         49.9416         6.11683 
        2.46665         49.7877         6.08016 
        2.47279         49.5845         6.04381 
        2.47892         49.3234         6.00774 
        2.48507         49.0946         5.97193 
         2.4912         48.9406         5.93648 
