# k  (h/Mpc)    Pcb(k)  (Mpc/h)^3    Pcb_linear(k)  (Mpc/h)^3
     0.00783031         228.674         230.509 
       0.013688         304.273         305.304 
       0.019231         326.539         326.883 
      0.0249154         316.515         317.841 
      0.0312784         288.459         288.782 
      0.0375637         255.436         255.117 
      0.0433917         227.186          227.28 
      0.0492413         205.702         205.476 
      0.0555754         188.298         188.572 
      0.0619321         176.833         176.389 
       0.067871         166.508         166.776 
      0.0738098         156.509         156.867 
      0.0800417         144.518         145.072 
      0.0862327         131.803         132.058 
      0.0921407         119.284         119.373 
      0.0982031          107.11         107.292 
       0.104506         96.9909         96.7568 
       0.110769         88.9697          88.775 
       0.116806         83.1497         83.2595 
       0.122832         79.3836         79.3072 
       0.129052         75.8881         76.0522 
       0.135211         72.6507         72.8832 
       0.141259         69.2472         69.3206 
       0.147318         65.2443         65.1576 
       0.153489         60.4763         60.4937 
       0.159709         55.7923         55.7657 
       0.165845          51.796          51.498 
       0.171974          47.991         47.9261 
       0.178125         45.2528         45.1379 
       0.184229         43.2653         43.0766 
        0.19034         41.4689         41.5031 
       0.196428         40.2379         40.1549 
       0.202534         39.0185         38.7774 
       0.208729         37.3118         37.1922 
       0.214876         35.4061         35.3932 
       0.220989         33.6993         33.4531 
       0.227147         31.5342         31.4866 
        0.23329          29.737         29.6606 
       0.239377         28.2224         28.0908 
       0.245482         26.8637         26.7976 
       0.251667         25.9547         25.7526 
       0.257832         25.0505         24.9026 
       0.263955         24.3149         24.1525 
       0.270079         23.5728         23.4079 
        0.27624         22.8637         22.6037 
       0.282372         21.9799           21.73 
        0.28843         20.9954         20.8144 
       0.294538         20.0834         19.8824 
       0.300721          19.273         18.9832 
        0.30691         18.3808         18.1688 
       0.313033         17.7038         17.4698 
       0.319153         16.9823         16.8725 
       0.325316         16.6341         16.3531 
        0.33145         16.1326          15.884 
       0.337538         15.6734         15.4346 
       0.343633         15.1818         14.9762 
       0.349808         14.7326          14.493 
       0.355968         14.2406         13.9944 
       0.362074         13.7334         13.4975 
       0.368217          13.266         13.0128 
       0.374374         12.7633         12.5572 
       0.380519         12.4006         12.1437 
       0.386598          12.051         11.7755 
       0.392688         11.7403         11.4425 
        0.39888         11.4071         11.1306 
       0.405048         11.1216         10.8337 
       0.411186         10.8412         10.5429 
       0.417313         10.5081         10.2515 
       0.423458         10.2406         9.95624 
       0.429607         9.92044         9.66217 
       0.435692         9.63485         9.37757 
       0.441815         9.37326         9.10264 
       0.447964         9.15805         8.84297 
       0.454126         8.86585         8.60121 
       0.460267         8.64357         8.37659 
       0.466387         8.41176          8.1666 
        0.47254          8.2328         7.96562 
       0.478662         8.05111         7.77149 
       0.484765         7.83943         7.58064 
       0.490885         7.64877         7.39162 
       0.497035         7.51324         7.20424 
       0.503198         7.30581         7.02001 
       0.509342          7.1356         6.84173 
       0.515458         6.95044         6.67172 
       0.521598         6.79621         6.50941 
       0.527764         6.62364         6.35442 
       0.533884         6.50396         6.20769 
           0.54         6.35477         6.06731 
       0.546137         6.22795         5.93136 
       0.552299           6.093         5.79846 
       0.558452          5.9339         5.66831 
       0.564573         5.82821         5.54117 
       0.570708         5.70487          5.4167 
       0.576825         5.56731         5.29603 
       0.582926         5.46823         5.17945 
       0.589034         5.31657         5.06665 
       0.595184         5.22057         4.95711 
       0.601379         5.11166         4.85094 
       0.607522         5.02882         4.74959 
       0.613639         4.95027         4.65203 
       0.619772          4.8231           4.557 
       0.625918         4.74408         4.46408 
       0.632068         4.66538         4.37311 
       0.638161         4.55985         4.28506 
         0.6443         4.46864         4.19861 
       0.650464         4.37206         4.11424 
       0.656582         4.30954         4.03298 
       0.662703         4.23008         3.95412 
       0.668861         4.16289         3.87711 
       0.675024         4.07395         3.80223 
       0.681124         3.99172         3.73019 
       0.687237         3.93614         3.65995 
       0.693381         3.86835         3.59122 
       0.699536         3.77128         3.52416 
       0.705665         3.71398         3.45908 
       0.711789         3.65716         3.39568 
       0.717957         3.58717         3.33338 
        0.72409         3.52941         3.27293 
       0.730186         3.46807         3.21434 
       0.736317         3.42898         3.15686 
       0.742472         3.36834          3.1006 
       0.748622          3.3047         3.04581 
        0.75476         3.23825         2.99253 
       0.760888         3.18875         2.94067 
       0.767043         3.15436         2.88989 
       0.773185         3.08967         2.84044 
       0.779291         3.04652         2.79245 
       0.785407         2.99836         2.74551 
       0.791564          2.9519         2.69936 
       0.797719          2.9113         2.65427 
       0.803834         2.86858          2.6105 
       0.809972         2.82401         2.56756 
       0.816124           2.774         2.52549 
       0.822261          2.7267         2.48449 
       0.828378         2.69343         2.44453 
       0.834502         2.66077         2.40543 
       0.840667         2.60626         2.36695 
       0.846816         2.56897         2.32943 
       0.852925         2.54347         2.29298 
       0.859047         2.50567         2.25725 
       0.865192         2.46738         2.22217 
       0.871341         2.43205         2.18783 
       0.877463         2.40614         2.15437 
       0.883569         2.36267         2.12171 
       0.889708         2.32728         2.08957 
       0.895864         2.29845         2.05802 
       0.902008         2.26068          2.0272 
       0.908149          2.2322         1.99703 
       0.914301         2.19088         1.96744 
       0.920448         2.16615         1.93847 
       0.926574         2.13494          1.9102 
       0.932687         2.10825         1.88256 
       0.938823         2.08872         1.85538 
       0.944975         2.05747         1.82867 
       0.951105         2.03294         1.80259 
       0.957225         2.01292         1.77707 
       0.963368          1.9836         1.75196 
       0.969511         1.95364         1.72734 
       0.975621          1.9236         1.70334 
       0.981748         1.90773         1.67973 
       0.987916         1.88156         1.65642 
        0.99406         1.85324         1.63365 
        1.00019         1.83659         1.61136 
        1.00632         1.80745          1.5895 
        1.01246         1.78578         1.56803 
        1.01859         1.76723         1.54699 
        1.02471         1.74272         1.52636 
        1.03085          1.7271         1.50604 
        1.03698         1.70107         1.48614 
        1.04314         1.68352         1.46652 
        1.04929         1.65997          1.4473 
        1.05541         1.64361         1.42851 
        1.06154         1.62179         1.41001 
        1.06769         1.60181         1.39181 
        1.07382          1.5854           1.374 
        1.07993         1.56128         1.35654 
        1.08607         1.55206         1.33932 
        1.09222         1.52944         1.32238 
        1.09836         1.51872         1.30575 
        1.10449             1.5         1.28944 
        1.11063         1.47804         1.27338 
        1.11677         1.45964         1.25761 
         1.1229         1.44539         1.24214 
        1.12903         1.42707         1.22692 
        1.13518          1.4162         1.21194 
        1.14131         1.39652         1.19722 
        1.14745          1.3735         1.18276 
        1.15359         1.36633         1.16853 
        1.15973          1.3455         1.15454 
        1.16584         1.34017         1.14084 
        1.17197         1.32237         1.12734 
        1.17811          1.3091         1.11403 
        1.18424         1.30006         1.10097 
        1.19038          1.2813         1.08808 
        1.19652         1.26507         1.07541 
        1.20267         1.25726         1.06294 
        1.20881         1.23935         1.05067 
        1.21495         1.23102         1.03862 
        1.22108         1.21789         1.02675 
         1.2272         1.20779         1.01511 
        1.23334         1.19277         1.00362 
        1.23949         1.17996        0.992277 
        1.24562         1.16954        0.981146 
        1.25174          1.1579        0.970204 
        1.25789         1.14734        0.959396 
        1.26402         1.13163        0.948774 
        1.27014         1.12138        0.938339 
        1.27628         1.11469        0.928032 
        1.28244         1.09816        0.917861 
        1.28858         1.08922        0.907858 
        1.29471         1.08126        0.898027 
        1.30084          1.0681        0.888352 
        1.30697         1.05829        0.878806 
        1.31312         1.04343        0.869388 
        1.31925         1.03717        0.860139 
        1.32537         1.02884        0.851034 
        1.33151         1.02019         0.84203 
        1.33765         1.00946        0.833162 
        1.34378        0.996575        0.824441 
        1.34992        0.991492         0.81584 
        1.35606        0.979737        0.807344 
         1.3622        0.971958        0.798985 
        1.36833        0.962387        0.790765 
        1.37445        0.950759        0.782666 
        1.38059        0.942504        0.774656 
        1.38675        0.941123        0.766741 
        1.39288        0.927931        0.758968 
        1.39901        0.920151        0.751308 
        1.40515        0.912713        0.743736 
         1.4113        0.902438        0.736273 
        1.41742        0.894547        0.728942 
        1.42355        0.891173        0.721697 
         1.4297        0.879087        0.714529 
        1.43585         0.87237        0.707463 
        1.44198        0.868447        0.700519 
        1.44809        0.856587        0.693683 
        1.45423        0.850147        0.686913 
        1.46036        0.842843        0.680246 
        1.46649        0.836324        0.673666 
        1.47263        0.827937        0.667169 
        1.47877          0.8199         0.66076 
        1.48491        0.813925        0.654427 
        1.49104         0.80549         0.64819 
        1.49718        0.800777        0.642031 
        1.50333        0.794027        0.635942 
        1.50947        0.787663        0.629945 
         1.5156        0.780205        0.624035 
        1.52172        0.773905        0.618202 
        1.52787        0.767004        0.612431 
          1.534        0.762033        0.606742 
        1.54013        0.753071        0.601132 
        1.54627        0.748469        0.595582 
        1.55241         0.74161        0.590103 
        1.55855        0.734382          0.5847 
        1.56467        0.732224        0.579381 
         1.5708        0.723983        0.574113 
        1.57695        0.719576        0.568903 
        1.58308        0.713194         0.56377 
        1.58922        0.707787        0.558698 
        1.59535        0.701747         0.55369 
         1.6015        0.696419        0.548737 
        1.60764        0.691428        0.543847 
        1.61376        0.683864        0.539031 
        1.61989          0.6806         0.53427 
        1.62604        0.675069        0.529556 
        1.63218        0.670992        0.524902 
        1.63831          0.6648        0.520315 
        1.64444        0.659399        0.515781 
        1.65059        0.654685        0.511291 
        1.65673        0.649339         0.50686 
        1.66285        0.644733        0.502494 
        1.66898        0.640673        0.498178 
        1.67512        0.634411        0.493905 
        1.68127         0.62943        0.489678 
         1.6874        0.626703        0.485511 
        1.69353        0.620667        0.481395 
        1.69967         0.61701        0.477317 
        1.70581        0.611437        0.473289 
        1.71193        0.607324        0.469322 
        1.71806        0.602424        0.465393 
        1.72421        0.598818        0.461501 
        1.73035        0.593657        0.457659 
        1.73649        0.590616        0.453861 
        1.74262        0.585943         0.45011 
        1.74876        0.581184        0.446399 
        1.75489        0.577451        0.442737 
        1.76101        0.572125        0.439118 
        1.76715        0.568698        0.435535 
        1.77329         0.56445        0.431988 
        1.77943        0.560554        0.428478 
        1.78557         0.55717        0.425014 
        1.79171        0.553099        0.421587 
        1.79785        0.549088        0.418197 
        1.80399        0.544977        0.414846 
        1.81012        0.541901        0.411536 
        1.81625        0.537564        0.408263 
        1.82239        0.534778        0.405022 
        1.82853        0.529018        0.401818 
        1.83466         0.52677        0.398651 
        1.84078        0.522448        0.395523 
        1.84692        0.519647        0.392423 
        1.85306        0.516239        0.389353 
         1.8592        0.512681         0.38632 
        1.86533        0.509686        0.383322 
        1.87147        0.505822        0.380352 
        1.87761        0.503317        0.377413 
        1.88375        0.497951        0.374508 
        1.88988        0.495836        0.371637 
        1.89601        0.492162        0.368795 
        1.90215        0.489263         0.36598 
        1.90829        0.485419        0.363197 
        1.91442        0.482855        0.360442 
        1.92056        0.479113        0.357718 
         1.9267        0.475783         0.35502 
        1.93284        0.472985        0.352348 
        1.93897        0.470276        0.349709 
        1.94509        0.467451        0.347103 
        1.95123        0.463483        0.344517 
        1.95737        0.461556        0.341955 
        1.96349        0.458064        0.339426 
        1.96964        0.454772        0.336916 
        1.97578         0.45197         0.33443 
        1.98192        0.450371        0.331975 
        1.98805        0.447163        0.329543 
        1.99419        0.443575        0.327137 
        2.00033        0.441134        0.324753 
        2.00647        0.438837        0.322394 
         2.0126        0.435519        0.320062 
        2.01874         0.43336         0.31775 
        2.02488        0.430726        0.315459 
        2.03101        0.427565        0.313195 
        2.03714        0.424902        0.310955 
        2.04328         0.42253        0.308735 
        2.04941         0.41986        0.306538 
        2.05554        0.417535        0.304365 
        2.06167        0.415419        0.302209 
        2.06781        0.411391        0.300075 
        2.07396        0.409126        0.297958 
        2.08009        0.406845        0.295865 
        2.08622        0.404839        0.293795 
        2.09237        0.403372         0.29174 
        2.09851        0.400696        0.289705 
        2.10464        0.398216        0.287693 
        2.11077        0.395191        0.285703 
        2.11691        0.393007        0.283727 
        2.12305        0.390749        0.281769 
        2.12918        0.388471        0.279836 
        2.13531        0.386189         0.27792 
        2.14145        0.383898        0.276017 
         2.1476         0.38182        0.274131 
        2.15372        0.380281        0.272271 
        2.15985         0.37741        0.270428 
        2.16599        0.374778        0.268595 
        2.17213        0.373352        0.266783 
        2.17827        0.371216        0.264987 
         2.1844        0.369323        0.263209 
        2.19054        0.367042        0.261447 
        2.19666        0.364167        0.259704 
         2.2028        0.362867        0.257976 
        2.20893         0.36115        0.256262 
        2.21508        0.358116        0.254562 
        2.22122        0.356495        0.252877 
        2.22736        0.354755         0.25121 
        2.23349        0.352788         0.24956 
        2.23962        0.351097        0.247923 
        2.24577        0.348306        0.246299 
         2.2519        0.347301        0.244693 
        2.25802         0.34471        0.243103 
        2.26417        0.342984        0.241523 
        2.27031        0.340797        0.239956 
        2.27644        0.339383        0.238408 
        2.28257        0.337238        0.236873 
        2.28872        0.335808        0.235349 
        2.29486        0.333704        0.233838 
        2.30099        0.332205        0.232344 
        2.30712        0.330529        0.230863 
        2.31326        0.328043        0.229392 
         2.3194        0.328016        0.227934 
        2.32553        0.325938        0.226492 
        2.33166         0.32402        0.225063 
         2.3378         0.32235        0.223645 
        2.34394        0.320114        0.222238 
        2.35007        0.318624        0.220845 
        2.35619        0.316611        0.219467 
        2.36233         0.31456        0.218096 
        2.36848        0.313588        0.216735 
        2.37462        0.311639        0.215388 
        2.38075        0.310708        0.214054 
        2.38689        0.308664         0.21273 
        2.39303        0.307793        0.211418 
        2.39916        0.305394        0.210118 
        2.40529         0.30396        0.208829 
        2.41143        0.302689         0.20755 
        2.41757        0.300698        0.206281 
         2.4237        0.299405        0.205025 
        2.42983        0.297798         0.20378 
        2.43598        0.297025        0.202542 
        2.44211        0.295312        0.201317 
        2.44823        0.294294        0.200104 
        2.45437        0.291812        0.198898 
        2.46052        0.291018        0.197701 
        2.46665         0.28941        0.196516 
        2.47279        0.287539        0.195341 
        2.47892        0.286135        0.194175 
        2.48507        0.284949        0.193018 
         2.4912        0.283817        0.191872 
