# k  (h/Mpc)    Pcb(k)  (Mpc/h)^3    Pcb_linear(k)  (Mpc/h)^3
     0.00783031         10366.6         10503.2 
       0.013688         12915.6         12833.4 
       0.019231         12768.9         12742.3 
      0.0249154           11274           11456 
      0.0312784         9508.51         9569.72 
      0.0375637         7917.27         7890.43 
      0.0433917         6668.87         6735.14 
      0.0492413         5958.18         5966.91 
      0.0555754         5342.33         5454.18 
      0.0619321         5129.17         5100.93 
       0.067871         4692.15         4779.99 
      0.0738098         4313.75         4393.67 
      0.0800417         3814.47         3912.32 
      0.0862327         3369.73         3408.13 
      0.0921407         2987.03         2966.97 
      0.0982031         2613.78         2602.97 
       0.104506          2415.4         2337.73 
       0.110769         2240.59         2174.63 
       0.116806         2123.73         2079.57 
       0.122832         2050.15         2007.17 
       0.129052         1922.58         1921.33 
       0.135211         1814.49         1805.92 
       0.141259         1707.77         1663.79 
       0.147318         1575.61         1508.26 
       0.153489         1420.64         1357.56 
       0.159709         1320.19         1231.18 
       0.165845         1253.22         1139.43 
       0.171974         1182.14         1078.46 
       0.178125          1134.2         1038.94 
       0.184229          1096.1         1008.93 
        0.19034         1033.34         976.587 
       0.196428         1011.82         934.867 
       0.202534         972.058         882.167 
       0.208729         914.205         821.642 
       0.214876         859.333         761.405 
       0.220989         822.765         707.784 
       0.227147         779.247         664.128 
        0.23329         746.674         631.694 
       0.239377         731.175         608.441 
       0.245482         684.901         590.226 
       0.251667         680.345          572.85 
       0.257832         656.019         553.362 
       0.263955         632.964         530.449 
       0.270079          607.34         504.557 
        0.27624         597.152         477.366 
       0.282372         571.426         451.487 
        0.28843         555.447         428.895 
       0.294538         527.737         409.963 
       0.300721         524.028         394.606 
        0.30691         500.563         381.994 
       0.313033         490.707          370.89 
       0.319153         475.137         359.815 
       0.325316         461.806         347.884 
        0.33145         447.568         334.973 
       0.337538         440.788          321.54 
       0.343633         426.135         308.125 
       0.349808         411.387         295.322 
       0.355968         406.765         283.865 
       0.362074          398.59         273.959 
       0.368217         387.604         265.333 
       0.374374         371.974         257.586 
       0.380519         368.845         250.312 
       0.386598          359.39         243.163 
       0.392688         356.244         235.802 
        0.39888          346.26         228.141 
       0.405048         338.406         220.447 
       0.411186           331.9         212.974 
       0.417313          325.48         205.942 
       0.423458         319.019         199.433 
       0.429607         312.736         193.497 
       0.435692         304.452         188.136 
       0.441815         301.975         183.091 
       0.447964         295.851         178.216 
       0.454126         286.213         173.423 
       0.460267         282.193         168.666 
       0.466387         278.816         163.929 
        0.47254         272.764         159.241 
       0.478662         271.846         154.733 
       0.484765         262.786         150.445 
       0.490885         259.654          146.38 
       0.497035         255.509         142.547 
       0.503198         250.243         138.938 
       0.509342         247.917         135.504 
       0.515458         244.588         132.193 
       0.521598         239.699         128.943 
       0.527764         236.206         125.747 
       0.533884         233.531         122.638 
           0.54         229.986           119.6 
       0.546137         228.737          116.64 
       0.552299         223.995         113.782 
       0.558452          221.89          111.06 
       0.564573         218.428         108.474 
       0.570708         214.097         105.986 
       0.576825         211.253         103.591 
       0.582926         208.455         101.272 
       0.589034         206.277         99.0139 
       0.595184         204.026         96.8011 
       0.601379         201.612         94.6304 
       0.607522         197.893         92.5333 
       0.613639         196.776         90.5027 
       0.619772           192.5         88.5283 
       0.625918         191.076         86.6154 
       0.632068         188.509         84.7691 
       0.638161         187.391         83.0036 
         0.6443         184.504         81.2822 
       0.650464         182.647          79.605 
       0.656582          180.74         77.9844 
       0.662703         179.238         76.4026 
       0.668861         176.148           74.85 
       0.675024         174.054         73.3364 
       0.681124         173.269         71.8791 
       0.687237         170.566           70.46 
       0.693381         168.032         69.0761 
       0.699536         166.936         67.7304 
       0.705665         166.167         66.4291 
       0.711789         163.319         65.1647 
       0.717957         162.876         63.9251 
        0.72409         160.619         62.7243 
       0.730186         158.409         61.5603 
       0.736317         157.033         60.4184 
       0.742472         156.149         59.3005 
       0.748622          154.69         58.2116 
        0.75476         153.398         57.1523 
       0.760888         151.319         56.1214 
       0.767043          150.82         55.1126 
       0.773185         149.204         54.1316 
       0.779291         146.628         53.1808 
       0.785407         146.121         52.2521 
       0.791564         144.902         51.3402 
       0.797719         142.597         50.4509 
       0.803834         141.967         49.5885 
       0.809972         140.697         48.7432 
       0.816124         140.304         47.9158 
       0.822261          138.68         47.1097 
       0.828378         137.397         46.3247 
       0.834502         137.065         45.5569 
       0.840667         134.978         44.8016 
       0.846816         133.673         44.0657 
       0.852925         133.077          43.351 
       0.859047         131.502         42.6509 
       0.865192         130.579         41.9641 
       0.871341         129.423         41.2922 
       0.877463         128.281         40.6382 
       0.883569           127.7         40.0001 
       0.889708         126.584         39.3727 
       0.895864         125.254         38.7572 
       0.902008         124.485         38.1563 
       0.908149         123.932         37.5686 
       0.914301         122.599         36.9924 
       0.920448         121.663         36.4289 
       0.926574         120.931         35.8793 
       0.932687         120.721         35.3422 
       0.938823          118.91         34.8143 
       0.944975         117.728          34.296 
       0.951105         117.293         33.7903 
       0.957225         116.038         33.2956 
       0.963368         114.982         32.8093 
       0.969511         114.814         32.3327 
       0.975621         114.191         31.8682 
       0.981748          113.44         31.4117 
       0.987916         112.234         30.9613 
        0.99406         111.458         30.5215 
        1.00019         111.065         30.0912 
        1.00632         110.033         29.6696 
        1.01246         109.409         29.2555 
        1.01859         108.333         28.8501 
        1.02471         107.767         28.4529 
        1.03085          106.76         28.0618 
        1.03698         106.384          27.679 
        1.04314         105.351         27.3018 
        1.04929          104.73         26.9325 
        1.05541         103.999         26.5715 
        1.06154         103.519         26.2163 
        1.06769         103.255         25.8672 
        1.07382         102.475         25.5255 
        1.07993         101.662         25.1909 
        1.08607          100.93         24.8609 
        1.09222         100.621         24.5366 
        1.09836         99.7425         24.2184 
        1.10449         99.0894         23.9064 
        1.11063          98.419         23.5995 
        1.11677         98.0418         23.2981 
         1.1229          97.014         23.0026 
        1.12903         96.3509         22.7119 
        1.13518          96.489         22.4261 
        1.14131         95.6019         22.1454 
        1.14745         94.9032         21.8696 
        1.15359         94.3728         21.5986 
        1.15973         93.9769          21.332 
        1.16584         93.1227         21.0712 
        1.17197         92.6967         20.8144 
        1.17811         92.1488         20.5611 
        1.18424         91.5964         20.3128 
        1.19038         91.1741         20.0679 
        1.19652         90.6566         19.8271 
        1.20267         89.8439         19.5903 
        1.20881         89.3839         19.3575 
        1.21495         88.8337         19.1288 
        1.22108         88.4671         18.9038 
         1.2272         87.5948          18.683 
        1.23334         87.3333         18.4653 
        1.23949         86.7019         18.2505 
        1.24562         86.3141         18.0397 
        1.25174         85.7592         17.8327 
        1.25789         85.4306         17.6282 
        1.26402         84.9081         17.4273 
        1.27014         84.3387         17.2301 
        1.27628         83.9999         17.0353 
        1.28244          83.397         16.8432 
        1.28858         83.1886         16.6544 
        1.29471          82.551         16.4688 
        1.30084         82.1556         16.2863 
        1.30697         81.6345         16.1063 
        1.31312         81.2195         15.9288 
        1.31925         80.7194         15.7545 
        1.32537           80.45          15.583 
        1.33151         79.6666         15.4134 
        1.33765         79.3378         15.2465 
        1.34378         78.8919         15.0824 
        1.34992         78.6491         14.9207 
        1.35606         78.1834         14.7609 
         1.3622         77.4918         14.6038 
        1.36833         77.3976         14.4494 
        1.37445         76.8645         14.2973 
        1.38059         76.3384         14.1469 
        1.38675         75.8965         13.9983 
        1.39288         75.5364         13.8525 
        1.39901         75.3466         13.7088 
        1.40515         74.8203         13.5668 
         1.4113         74.4054         13.4269 
        1.41742         74.3239         13.2896 
        1.42355         73.6414         13.1539 
         1.4297         73.4207         13.0197 
        1.43585         72.8123         12.8874 
        1.44198         72.4925         12.7575 
        1.44809         72.1816         12.6296 
        1.45423         71.7905          12.503 
        1.46036         71.5998         12.3784 
        1.46649         71.1136         12.2554 
        1.47263         70.6525          12.134 
        1.47877         70.5059         12.0143 
        1.48491         70.0587         11.8961 
        1.49104         69.6968         11.7797 
        1.49718         69.2385         11.6648 
        1.50333         68.9466         11.5512 
        1.50947         68.6343         11.4394 
         1.5156         68.2596         11.3292 
        1.52172         67.9611         11.2205 
        1.52787         67.8015          11.113 
          1.534         67.2673          11.007 
        1.54013         66.8402         10.9026 
        1.54627         66.6889         10.7993 
        1.55241          66.187         10.6973 
        1.55855         65.9664         10.5968 
        1.56467          65.533         10.4979 
         1.5708          65.377            10.4 
        1.57695         65.1512         10.3032 
        1.58308         64.5542         10.2078 
        1.58922         64.4482         10.1136 
        1.59535         64.2511         10.0206 
         1.6015         63.6197         9.92863 
        1.60764         63.4711         9.83788 
        1.61376         63.1136         9.74853 
        1.61989         62.7982         9.66021 
        1.62604         62.6212         9.57279 
        1.63218          62.343         9.48651 
        1.63831         61.8754          9.4015 
        1.64444         61.6391          9.3175 
        1.65059         61.2912         9.23433 
        1.65673         61.0686         9.15227 
        1.66285         60.6891         9.07144 
        1.66898         60.4506         8.99156 
        1.67512         60.0575         8.91249 
        1.68127         59.8258         8.83431 
         1.6874         59.6041         8.75724 
        1.69353          59.318         8.68114 
        1.69967         58.9524         8.60576 
        1.70581          58.847         8.53132 
        1.71193         58.6389         8.45804 
        1.71806         58.0448         8.38547 
        1.72421         57.9422         8.31361 
        1.73035         57.6682         8.24267 
        1.73649          57.292         8.17258 
        1.74262         57.1622         8.10336 
        1.74876         56.8399          8.0349 
        1.75489         56.5444         7.96738 
        1.76101         56.3601         7.90065 
        1.76715         55.9689         7.83459 
        1.77329           55.78         7.76922 
        1.77943         55.3844         7.70456 
        1.78557         55.2735         7.64074 
        1.79171         54.9634         7.57763 
        1.79785         54.7282         7.51522 
        1.80399         54.5758         7.45353 
        1.81012         54.2906         7.39262 
        1.81625          53.838         7.33242 
        1.82239         53.6995          7.2728 
        1.82853         53.3729         7.21387 
        1.83466         53.1874         7.15566 
        1.84078         52.8875         7.09815 
        1.84692         52.5867         7.04118 
        1.85306         52.4093         6.98477 
         1.8592         52.0635         6.92906 
        1.86533          51.954           6.874 
        1.87147           51.68         6.81947 
        1.87761         51.4857         6.76551 
        1.88375         51.2118          6.7122 
        1.88988          51.121         6.65953 
        1.89601          50.763         6.60739 
        1.90215         50.5452         6.55576 
        1.90829         50.3952         6.50472 
        1.91442          50.092         6.45422 
        1.92056         49.7694          6.4043 
         1.9267         49.5801         6.35486 
        1.93284         49.3703         6.30591 
        1.93897         49.1554         6.25757 
        1.94509         48.8428         6.20985 
        1.95123         48.7211          6.1625 
        1.95737         48.5049         6.11561 
        1.96349         48.1649         6.06934 
        1.96964         48.1536         6.02341 
        1.97578         47.8075         5.97793 
        1.98192         47.6032         5.93302 
        1.98805         47.5011         5.88857 
        1.99419         47.1547         5.84457 
        2.00033           46.95           5.801 
        2.00647         46.7398         5.75788 
         2.0126         46.4356         5.71528 
        2.01874         46.3781         5.67304 
        2.02488         46.1799          5.6312 
        2.03101         45.9085         5.58985 
        2.03714         45.6992         5.54896 
        2.04328         45.4929         5.50844 
        2.04941         45.2302         5.46835 
        2.05554         44.9811         5.42869 
        2.06167         44.8885         5.38938 
        2.06781         44.6742         5.35044 
        2.07396         44.4814         5.31184 
        2.08009           44.31         5.27369 
        2.08622         44.0238         5.23595 
        2.09237         43.8474         5.19851 
        2.09851         43.6895         5.16143 
        2.10464         43.4864         5.12478 
        2.11077         43.3269         5.08852 
        2.11691         43.0465         5.05254 
        2.12305         42.8621         5.01691 
        2.12918         42.6609          4.9817 
        2.13531          42.433         4.94683 
        2.14145         42.2671         4.91221 
         2.1476         42.1045         4.87789 
        2.15372         41.8616         4.84406 
        2.15985         41.6969         4.81053 
        2.16599         41.6016         4.77721 
        2.17213         41.4359         4.74425 
        2.17827          41.178         4.71161 
         2.1844         41.0006          4.6793 
        2.19054          40.772         4.64728 
        2.19666         40.6068         4.61562 
         2.2028         40.4059         4.58421 
        2.20893         40.3197         4.55309 
        2.21508         40.1698         4.52222 
        2.22122         39.9051         4.49163 
        2.22736         39.7866         4.46138 
        2.23349         39.6242         4.43142 
        2.23962         39.2946         4.40172 
        2.24577         39.1585         4.37227 
         2.2519         38.9742         4.34313 
        2.25802         38.9221          4.3143 
        2.26417         38.6858         4.28565 
        2.27031         38.5518         4.25724 
        2.27644         38.3154         4.22917 
        2.28257         38.1935         4.20135 
        2.28872         37.9425         4.17373 
        2.29486         37.8816         4.14637 
        2.30099         37.6908          4.1193 
        2.30712         37.5332         4.09247 
        2.31326          37.341         4.06583 
         2.3194         37.1674         4.03944 
        2.32553         37.0298         4.01334 
        2.33166          36.904         3.98747 
         2.3378         36.6126          3.9618 
        2.34394         36.4875         3.93635 
        2.35007         36.3448         3.91115 
        2.35619         36.2141         3.88621 
        2.36233         36.1098         3.86142 
        2.36848         35.8758         3.83681 
        2.37462         35.7465         3.81245 
        2.38075         35.6183         3.78834 
        2.38689         35.5217         3.76441 
        2.39303         35.2995          3.7407 
        2.39916         35.0894         3.71721 
        2.40529         34.9094         3.69393 
        2.41143         34.8708         3.67083 
        2.41757         34.7291         3.64791 
         2.4237         34.5744         3.62524 
        2.42983          34.375         3.60276 
        2.43598         34.2127         3.58041 
        2.44211         34.0643         3.55829 
        2.44823         33.9546         3.53641 
        2.45437         33.8202         3.51465 
        2.46052         33.5685         3.49305 
        2.46665         33.5245         3.47168 
        2.47279         33.3751         3.45049 
        2.47892         33.1835         3.42947 
        2.48507           33.07          3.4086 
         2.4912         32.9424         3.38794 
