# k  (h/Mpc)    P(k)  (Mpc/h)^3    P_linear(k)  (Mpc/h)^3
     0.00783031         2808.46         2847.99 
       0.013688         3345.47         3346.51 
       0.019231         3250.54         3249.15 
      0.0249154         2865.43         2888.11 
      0.0312784         2402.68         2405.72 
      0.0375637          1995.9         1988.28 
      0.0433917         1696.33         1700.23 
      0.0492413         1505.15         1502.91 
      0.0555754         1352.79         1362.68 
      0.0619321         1267.58         1259.54 
       0.067871         1161.39         1167.72 
      0.0738098          1059.3         1065.38 
      0.0800417         937.824         946.299 
      0.0862327         824.915         826.778 
      0.0921407         726.947         724.141 
      0.0982031         639.498         639.286 
       0.104506         583.903         575.674 
       0.110769         540.209         533.645 
       0.116806         508.444         506.002 
       0.122832         487.743          483.19 
       0.129052         458.067         458.033 
       0.135211         428.688         428.152 
       0.141259         398.679         394.401 
       0.147318         365.848         359.185 
       0.153489         331.055         325.687 
       0.159709         304.408         297.348 
       0.165845         285.879         275.905 
       0.171974         267.489         260.365 
       0.178125         256.374         248.881 
       0.184229         246.966         239.331 
        0.19034          233.28         229.661 
       0.196428         225.243         218.772 
       0.202534         215.306         206.437 
       0.208729          201.02         193.149 
       0.214876         187.309          180.26 
       0.220989         178.012           168.7 
       0.227147          166.69         158.892 
        0.23329         158.908         150.999 
       0.239377         153.552         144.682 
       0.245482         145.456         139.271 
       0.251667         142.289         134.121 
       0.257832         136.978         128.862 
       0.263955         131.343         123.338 
       0.270079         125.613         117.579 
        0.27624         121.464         111.791 
       0.282372         116.105         106.321 
        0.28843         110.658         101.412 
       0.294538         105.937         97.0626 
       0.300721         103.334         93.2289 
        0.30691         98.7444         89.8361 
       0.313033         95.7199         86.7403 
       0.319153          91.338         83.7564 
       0.325316         89.7051         80.7582 
        0.33145         86.1366         77.7614 
       0.337538         83.8139         74.8015 
       0.343633         80.5826         71.9242 
       0.349808         78.0096         69.1619 
       0.355968         75.7367         66.6089 
       0.362074         73.2077         64.2882 
       0.368217         70.9633         62.1446 
       0.374374         68.7843         60.1475 
       0.380519         67.0693         58.2551 
       0.386598         65.1943         56.4465 
       0.392688          63.773         54.6744 
        0.39888         61.8262         52.9078 
       0.405048         60.2275          51.196 
       0.411186         58.7039         49.5538 
       0.417313         56.8133         47.9906 
       0.423458         55.3225         46.5102 
       0.429607         53.8347         45.1128 
       0.435692         52.0777         43.8062 
       0.441815         51.2618         42.5561 
       0.447964         50.3384         41.3518 
       0.454126         48.2278         40.1853 
       0.460267         47.4571         39.0589 
       0.466387         46.1262         37.9696 
        0.47254         45.3346         36.9089 
       0.478662         44.5614         35.8918 
       0.484765         43.1782          34.919 
       0.490885         42.2175         33.9847 
       0.497035         41.6578         33.0855 
       0.503198         40.4985         32.2225 
       0.509342         39.4539         31.3961 
       0.515458         38.6578         30.6028 
       0.521598         38.0033         29.8321 
       0.527764         37.2105         29.0825 
       0.533884         36.5796         28.3624 
           0.54         35.7392         27.6661 
       0.546137         35.2054         26.9904 
       0.552299         34.6253         26.3352 
       0.558452         33.5672         25.7043 
       0.564573           33.03          25.099 
       0.570708         32.5063         24.5133 
       0.576825         31.7562         23.9487 
       0.582926         31.1095         23.4034 
       0.589034         30.3354         22.8741 
       0.595184         29.9498         22.3575 
       0.601379         29.3841         21.8532 
       0.607522          28.801         21.3683 
       0.613639         28.5418         20.9002 
       0.619772         27.8046          20.445 
       0.625918          27.632         20.0028 
       0.632068         27.1895         19.5739 
       0.638161         26.6227         19.1619 
         0.6443         26.1047          18.759 
       0.650464         25.6454         18.3666 
       0.656582         25.4698         17.9882 
       0.662703         24.9678         17.6203 
       0.668861         24.5107         17.2605 
       0.675024         24.0888         16.9105 
       0.681124          23.668         16.5738 
       0.687237         23.2629         16.2457 
       0.693381         23.0676         15.9251 
       0.699536         22.4783         15.6128 
       0.705665         22.4273         15.3103 
       0.711789         21.9037         15.0163 
       0.717957         21.6048          14.728 
        0.72409         21.2986          14.449 
       0.730186         20.9866          14.179 
       0.736317         20.7659         13.9144 
       0.742472         20.4011         13.6557 
       0.748622         20.1984         13.4038 
        0.75476         19.8415         13.1589 
       0.760888          19.539         12.9205 
       0.767043         19.3034         12.6872 
       0.773185         18.9694         12.4602 
       0.779291         18.8679         12.2402 
       0.785407         18.6479         12.0252 
       0.791564         18.3111          11.814 
       0.797719         17.8957         11.6081 
       0.803834         17.8736         11.4085 
       0.809972         17.7009         11.2128 
       0.816124          17.303         11.0214 
       0.822261         17.1258          10.835 
       0.828378         16.9619         10.6535 
       0.834502         16.7964         10.4761 
       0.840667         16.5557         10.3015 
       0.846816         16.2573         10.1315 
       0.852925         16.1039         9.96642 
       0.859047          15.927          9.8047 
       0.865192         15.7685         9.64607 
       0.871341         15.6444         9.49087 
       0.877463         15.3614         9.33981 
       0.883569         15.1728         9.19245 
       0.889708          14.947         9.04754 
       0.895864         14.8195         8.90541 
       0.902008           14.71         8.76665 
       0.908149         14.5468         8.63095 
       0.914301         14.4537         8.49792 
       0.920448         14.1784         8.36784 
       0.926574         14.0489         8.24096 
       0.932687         13.8909           8.117 
       0.938823           13.71         7.99516 
       0.944975         13.5646         7.87556 
       0.951105         13.4358         7.75886 
       0.957225         13.3117         7.64474 
       0.963368         13.2001         7.53255 
       0.969511         13.0711         7.42262 
       0.975621          12.945          7.3155 
       0.981748         12.7657         7.21023 
       0.987916         12.6908         7.10639 
        0.99406         12.5141           7.005 
        1.00019         12.3401         6.90581 
        1.00632         12.2997         6.80865 
        1.01246         12.1831         6.71322 
        1.01859         11.9835          6.6198 
        1.02471         11.9393         6.52828 
        1.03085         11.8167          6.4382 
        1.03698           11.63         6.35001 
        1.04314         11.5679         6.26312 
        1.04929         11.4246         6.17807 
        1.05541         11.2978         6.09495 
        1.06154         11.2293         6.01317 
        1.06769         11.1704         5.93277 
        1.07382         11.0152         5.85413 
        1.07993         10.9314         5.77709 
        1.08607         10.8233         5.70113 
        1.09222         10.7454         5.62647 
        1.09836         10.6129         5.55325 
        1.10449         10.5361         5.48142 
        1.11063         10.4168         5.41078 
        1.11677         10.3748         5.34142 
         1.1229         10.3079         5.27341 
        1.12903         10.1697         5.20652 
        1.13518         10.0477         5.14074 
        1.14131         10.0067         5.07615 
        1.14745          9.9136          5.0127 
        1.15359         9.84747         4.95034 
        1.15973         9.74919         4.88901 
        1.16584         9.61273         4.82901 
        1.17197         9.57024         4.76993 
        1.17811         9.50856         4.71166 
        1.18424         9.42124         4.65455 
        1.19038         9.38164         4.59822 
        1.19652         9.27683         4.54285 
        1.20267         9.19073         4.48839 
        1.20881         9.15678         4.43485 
        1.21495         9.08566         4.38227 
        1.22108         8.97433         4.33055 
         1.2272         8.90975          4.2798 
        1.23334         8.83198         4.22975 
        1.23949         8.75146         4.18038 
        1.24562         8.71484         4.13195 
        1.25174          8.6526         4.08436 
        1.25789         8.57976         4.03738 
        1.26402         8.54369         3.99123 
        1.27014         8.46298         3.94592 
        1.27628         8.35871         3.90117 
        1.28244         8.29807         3.85705 
        1.28858         8.29379         3.81366 
        1.29471         8.19822         3.77105 
        1.30084         8.11802         3.72913 
        1.30697         8.09883         3.68778 
        1.31312         7.98828         3.64701 
        1.31925         7.93045         3.60699 
        1.32537         7.89463         3.56761 
        1.33151         7.85036         3.52868 
        1.33765         7.78137         3.49035 
        1.34378         7.72425         3.45268 
        1.34992         7.66103         3.41553 
        1.35606         7.62132         3.37886 
         1.3622         7.57646         3.34279 
        1.36833         7.49989         3.30734 
        1.37445         7.46414         3.27242 
        1.38059         7.42809         3.23789 
        1.38675         7.35449         3.20379 
        1.39288         7.33118         3.17031 
        1.39901         7.24867         3.13733 
        1.40515         7.21788         3.10475 
         1.4113         7.16626         3.07264 
        1.41742         7.11519         3.04111 
        1.42355         7.05686         3.00997 
         1.4297          7.0275         2.97917 
        1.43585         6.99242         2.94881 
        1.44198         6.95345           2.919 
        1.44809          6.8972         2.88966 
        1.45423         6.84491         2.86061 
        1.46036         6.79532         2.83202 
        1.46649         6.76706         2.80381 
        1.47263         6.70216         2.77596 
        1.47877         6.66326         2.74851 
        1.48491         6.63256         2.72138 
        1.49104         6.58761         2.69469 
        1.49718         6.55106         2.66833 
        1.50333         6.51371         2.64228 
        1.50947         6.46051         2.61664 
         1.5156         6.42861         2.59138 
        1.52172         6.39885         2.56645 
        1.52787         6.35073          2.5418 
          1.534         6.30395         2.51751 
        1.54013         6.27362         2.49356 
        1.54627         6.22232         2.46988 
        1.55241         6.19307          2.4465 
        1.55855         6.16726         2.42347 
        1.56467           6.118         2.40079 
         1.5708         6.10194         2.37834 
        1.57695          6.0484         2.35615 
        1.58308         6.00226         2.33429 
        1.58922         5.98867         2.31269 
        1.59535         5.96061         2.29137 
         1.6015         5.90518          2.2703 
        1.60764         5.86437          2.2495 
        1.61376         5.85077         2.22902 
        1.61989         5.81196         2.20878 
        1.62604         5.77939         2.18874 
        1.63218         5.76143         2.16897 
        1.63831         5.72045         2.14949 
        1.64444         5.68961         2.13024 
        1.65059         5.63234         2.11118 
        1.65673         5.63705         2.09238 
        1.66285         5.57663         2.07386 
        1.66898         5.55098         2.05555 
        1.67512         5.52909         2.03744 
        1.68127         5.49292         2.01952 
         1.6874         5.47277         2.00187 
        1.69353         5.42579         1.98443 
        1.69967         5.41048         1.96716 
        1.70581         5.38556         1.95011 
        1.71193         5.34371         1.93332 
        1.71806         5.32637          1.9167 
        1.72421         5.29177         1.90024 
        1.73035         5.27421         1.88399 
        1.73649         5.24381         1.86794 
        1.74262          5.2099         1.85208 
        1.74876          5.1936          1.8364 
        1.75489         5.16506         1.82094 
        1.76101         5.12671         1.80566 
        1.76715         5.11249         1.79053 
        1.77329         5.07669         1.77556 
        1.77943          5.0451         1.76076 
        1.78557         5.03574         1.74614 
        1.79171          5.0064         1.73169 
        1.79785          4.9753          1.7174 
        1.80399         4.94874         1.70328 
        1.81012         4.92801         1.68933 
        1.81625         4.90299         1.67555 
        1.82239          4.8834          1.6619 
        1.82853         4.85068         1.64841 
        1.83466         4.82959         1.63508 
        1.84078         4.80976         1.62191 
        1.84692         4.79773         1.60887 
        1.85306         4.76003         1.59596 
         1.8592          4.7318         1.58321 
        1.86533         4.71439          1.5706 
        1.87147         4.69378         1.55812 
        1.87761         4.67164         1.54577 
        1.88375          4.6403         1.53357 
        1.88988         4.63056         1.52151 
        1.89601         4.60492         1.50958 
        1.90215         4.58166         1.49776 
        1.90829         4.55677         1.48608 
        1.91442         4.53632         1.47452 
        1.92056         4.52219          1.4631 
         1.9267         4.49113         1.45178 
        1.93284         4.47211         1.44058 
        1.93897         4.44831         1.42952 
        1.94509         4.43796          1.4186 
        1.95123          4.4136         1.40776 
        1.95737         4.38489         1.39704 
        1.96349         4.37485         1.38645 
        1.96964         4.35236         1.37594 
        1.97578         4.32568         1.36553 
        1.98192         4.31587         1.35526 
        1.98805         4.29598         1.34509 
        1.99419         4.27059         1.33502 
        2.00033         4.26316         1.32505 
        2.00647         4.23601         1.31519 
         2.0126         4.22311         1.30544 
        2.01874         4.19852         1.29578 
        2.02488          4.1855          1.2862 
        2.03101         4.15838         1.27675 
        2.03714         4.13555         1.26739 
        2.04328         4.12295         1.25812 
        2.04941         4.09895         1.24895 
        2.05554         4.08819         1.23988 
        2.06167         4.06699         1.23089 
        2.06781         4.05416         1.22198 
        2.07396         4.04317         1.21315 
        2.08009         4.02088         1.20443 
        2.08622         3.99891          1.1958 
        2.09237         3.98132         1.18723 
        2.09851         3.97424         1.17875 
        2.10464         3.95453         1.17037 
        2.11077         3.92792         1.16208 
        2.11691         3.91229         1.15385 
        2.12305         3.90218          1.1457 
        2.12918         3.89167         1.13765 
        2.13531         3.87292         1.12967 
        2.14145         3.85536         1.12176 
         2.1476         3.83634         1.11391 
        2.15372         3.81939         1.10617 
        2.15985         3.81906          1.0985 
        2.16599          3.7864         1.09089 
        2.17213         3.77559         1.08335 
        2.17827          3.7662         1.07588 
         2.1844         3.74766          1.0685 
        2.19054         3.72468         1.06118 
        2.19666         3.71246         1.05393 
         2.2028         3.69881         1.04676 
        2.20893         3.68591         1.03964 
        2.21508         3.66908         1.03258 
        2.22122         3.65163         1.02559 
        2.22736         3.64052         1.01867 
        2.23349         3.63226         1.01182 
        2.23962         3.61572         1.00503 
        2.24577         3.59969        0.998299 
         2.2519         3.59207        0.991637 
        2.25802          3.5701        0.985046 
        2.26417         3.56028        0.978497 
        2.27031         3.54264        0.972002 
        2.27644         3.52537        0.965585 
        2.28257         3.50972        0.959226 
        2.28872         3.50815        0.952912 
        2.29486         3.49126        0.946657 
        2.30099         3.47312        0.940471 
        2.30712         3.46074        0.934338 
        2.31326         3.44249        0.928248 
         2.3194         3.43384        0.922217 
        2.32553         3.42603         0.91625 
        2.33166         3.41394        0.910338 
         2.3378         3.39619        0.904471 
        2.34394         3.38516        0.898653 
        2.35007          3.3689        0.892895 
        2.35619         3.36075        0.887195 
        2.36233         3.34642        0.881531 
        2.36848         3.33177        0.875904 
        2.37462         3.32771        0.870339 
        2.38075         3.31074        0.864828 
        2.38689         3.30331         0.85936 
        2.39303         3.28392        0.853941 
        2.39916         3.27341        0.848573 
        2.40529         3.26192        0.843253 
        2.41143         3.24996        0.837974 
        2.41757         3.24661        0.832738 
         2.4237         3.23143        0.827557 
        2.42983         3.21177        0.822421 
        2.43598         3.20326        0.817314 
        2.44211         3.18936        0.812259 
        2.44823         3.18055        0.807259 
        2.45437         3.16906        0.802287 
        2.46052         3.16071        0.797352 
        2.46665         3.14933        0.792468 
        2.47279         3.13314        0.787627 
        2.47892         3.12358        0.782823 
        2.48507         3.11544        0.778054 
         2.4912         3.10026        0.773335 
