# k  (h/Mpc)    P(k)  (Mpc/h)^3    P_linear(k)  (Mpc/h)^3
     0.00783031         12060.3         12245.2 
       0.013688         14132.4         14039.2 
       0.019231         13297.8         13260.3 
      0.0249154         11230.9         11404.5 
      0.0312784         9111.65         9152.32 
      0.0375637         7399.32         7352.91 
      0.0433917          6168.7          6210.3 
      0.0492413            5501         5495.29 
      0.0555754         4935.33         5026.08 
      0.0619321         4712.95         4671.91 
       0.067871         4250.29         4312.46 
      0.0738098         3827.93         3876.26 
      0.0800417         3307.87          3363.7 
      0.0862327         2868.07         2870.46 
      0.0921407         2524.24         2476.64 
      0.0982031         2213.04         2181.22 
       0.104506         2069.45         1986.13 
       0.110769         1938.68         1873.49 
       0.116806         1845.57         1800.24 
       0.122832         1770.09          1724.4 
       0.129052         1634.15         1619.29 
       0.135211            1513          1485.2 
       0.141259         1401.89          1338.6 
       0.147318         1280.41         1197.64 
       0.153489          1153.3         1077.66 
       0.159709         1078.82          989.03 
       0.165845         1032.22         931.292 
       0.171974         981.764         893.953 
       0.178125         944.019         864.785 
       0.184229         907.264         833.295 
        0.19034         846.699         793.012 
       0.196428         818.882         743.798 
       0.202534         779.434         689.665 
       0.208729         728.209         636.299 
       0.214876         684.532         590.357 
       0.220989         655.909         554.296 
       0.227147         625.366         527.399 
        0.23329         600.758         507.408 
       0.239377         588.002         490.737 
       0.245482         548.817         473.851 
       0.251667         542.605         454.503 
       0.257832         520.314         432.572 
       0.263955         499.354          409.31 
       0.270079         476.865         386.392 
        0.27624          467.87         365.388 
       0.282372         449.012         347.577 
        0.28843         435.613         333.074 
       0.294538          414.11         320.962 
       0.300721         410.669         310.189 
        0.30691          391.84         299.823 
       0.313033         383.118         289.219 
       0.319153         369.532         278.044 
       0.325316         358.957         266.412 
        0.33145         346.658         254.961 
       0.337538         340.639         244.221 
       0.343633         328.913         234.489 
       0.349808         317.212         225.747 
       0.355968         313.208         218.051 
       0.362074         306.713         211.111 
       0.368217         297.944         204.502 
       0.374374         285.561         197.991 
       0.380519          282.69         191.449 
       0.386598         275.077         184.974 
       0.392688         271.677         178.573 
        0.39888         264.211         172.309 
       0.405048         257.526         166.458 
       0.411186           252.4         161.059 
       0.417313         247.227         156.085 
       0.423458         241.826         151.448 
       0.429607         237.092         147.046 
       0.435692         230.221         142.834 
       0.441815         228.003         138.695 
       0.447964         223.247         134.607 
       0.454126         215.468         130.594 
       0.460267         212.308         126.726 
       0.466387         209.606         123.038 
        0.47254         204.708         119.512 
       0.478662         203.988          116.19 
       0.484765         196.751         113.055 
       0.490885           194.2         110.057 
       0.497035         191.073         107.154 
       0.503198         186.758         104.332 
       0.509342         184.718         101.599 
       0.515458         181.955         98.9555 
       0.521598         178.088         96.3784 
       0.527764         175.814         93.8761 
       0.533884         173.449         91.4863 
           0.54         170.543         89.1987 
       0.546137         169.297         86.9978 
       0.552299         165.773         84.8722 
       0.558452         164.038         82.8239 
       0.564573         161.419         80.8509 
       0.570708         157.947         78.9344 
       0.576825         155.966         77.0817 
       0.582926         153.343         75.2891 
       0.589034         151.687         73.5477 
       0.595184         149.884         71.8487 
       0.601379         147.763         70.1933 
       0.607522         145.079         68.6071 
       0.613639         143.993         67.0815 
       0.619772         141.023         65.6022 
       0.625918         139.625         64.1663 
       0.632068         137.804         62.7723 
       0.638161         136.716         61.4303 
         0.6443         134.727         60.1158 
       0.650464         133.388         58.8338 
       0.656582         131.371          57.598 
       0.662703         130.287          56.398 
       0.668861         127.988         55.2266 
       0.675024         126.375         54.0891 
       0.681124         125.628          52.996 
       0.687237         123.491         51.9316 
       0.693381         121.608         50.8918 
       0.699536         120.839         49.8785 
       0.705665          120.22         48.8969 
       0.711789         117.946         47.9424 
       0.717957         117.711         47.0067 
        0.72409         115.769         46.1013 
       0.730186         114.139         45.2253 
       0.736317         113.182         44.3677 
       0.742472         112.387         43.5295 
       0.748622         111.204          42.714 
        0.75476         110.151         41.9215 
       0.760888         108.732         41.1506 
       0.767043         108.207         40.3961 
       0.773185         107.067         39.6622 
       0.779291         105.196         38.9508 
       0.785407         104.724         38.2558 
       0.791564         103.951         37.5734 
       0.797719         101.951         36.9081 
       0.803834         101.518         36.2632 
       0.809972         100.521         35.6314 
       0.816124         100.007         35.0134 
       0.822261         99.0302         34.4118 
       0.828378         98.1493         33.8262 
       0.834502         97.6443         33.2539 
       0.840667         96.1968         32.6912 
       0.846816         95.0857         32.1432 
       0.852925         94.5978         31.6113 
       0.859047         93.4311         31.0904 
       0.865192         92.7692         30.5796 
       0.871341          91.986           30.08 
       0.877463          90.893         29.5939 
       0.883569         90.6254         29.1199 
       0.889708         89.7339         28.6538 
       0.895864         88.9057         28.1968 
       0.902008         88.2253         27.7508 
       0.908149         87.7501         27.3148 
       0.914301         86.8089         26.8875 
       0.920448         86.1266         26.4698 
       0.926574         85.4635         26.0624 
       0.932687         85.4224         25.6646 
       0.938823         84.0383         25.2736 
       0.944975         83.1647           24.89 
       0.951105         82.7321         24.5157 
       0.957225         81.9193         24.1498 
       0.963368          81.179         23.7902 
       0.969511         81.0683         23.4379 
       0.975621         80.5479         23.0946 
       0.981748         79.9002         22.7574 
       0.987916         79.0925         22.4249 
        0.99406         78.5348         22.1002 
        1.00019         78.1455         21.7827 
        1.00632         77.4158         21.4717 
        1.01246         77.0093         21.1663 
        1.01859         76.0907         20.8674 
        1.02471         75.6785         20.5746 
        1.03085          75.015         20.2865 
        1.03698         74.7644         20.0045 
        1.04314         74.0291         19.7267 
        1.04929         73.5674         19.4549 
        1.05541         72.8791         19.1893 
        1.06154         72.7292          18.928 
        1.06769         72.3376         18.6712 
        1.07382         71.8239           18.42 
        1.07993          71.315          18.174 
        1.08607         70.7477         17.9315 
        1.09222         70.5366         17.6932 
        1.09836         69.8669         17.4596 
        1.10449         69.5357         17.2304 
        1.11063         68.9079         17.0051 
        1.11677            68.6          16.784 
         1.1229          67.914         16.5672 
        1.12903         67.3721          16.354 
        1.13518         67.4568         16.1444 
        1.14131          66.962         15.9386 
        1.14745         66.3398         15.7366 
        1.15359         66.0364          15.538 
        1.15973          65.585         15.3428 
        1.16584         65.0737         15.1518 
        1.17197         64.7427         14.9638 
        1.17811         64.4231         14.7785 
        1.18424         63.9037         14.5968 
        1.19038         63.5827         14.4177 
        1.19652         63.2725         14.2416 
        1.20267         62.5864         14.0685 
        1.20881           62.39         13.8983 
        1.21495         61.9219         13.7312 
        1.22108         61.7918         13.5669 
         1.2272         61.0217         13.4057 
        1.23334         60.8277         13.2467 
        1.23949         60.5678           13.09 
        1.24562         60.0865         12.9362 
        1.25174         59.8243         12.7851 
        1.25789         59.6214         12.6359 
        1.26402         59.1433         12.4895 
        1.27014         58.7414         12.3457 
        1.27628          58.434         12.2037 
        1.28244         58.0692         12.0637 
        1.28858         57.9139         11.9261 
        1.29471         57.5827         11.7909 
        1.30084         57.2303          11.658 
        1.30697         56.8533         11.5269 
        1.31312         56.5036         11.3977 
        1.31925         56.2012         11.2708 
        1.32537           56.01         11.1461 
        1.33151         55.4584         11.0227 
        1.33765         55.2746         10.9013 
        1.34378         54.9544          10.782 
        1.34992          54.672         10.6644 
        1.35606         54.3991         10.5483 
         1.3622         53.9767         10.4341 
        1.36833         53.7942         10.3219 
        1.37445         53.4811         10.2114 
        1.38059         53.0852         10.1022 
        1.38675         52.8439          9.9943 
        1.39288          52.549         9.88844 
        1.39901         52.3759         9.78416 
        1.40515         52.0077         9.68115 
         1.4113         51.7937         9.57967 
        1.41742         51.6846         9.48003 
        1.42355         51.2222         9.38163 
         1.4297         51.1041         9.28433 
        1.43585         50.7404         9.18845 
        1.44198         50.3959         9.09429 
        1.44809         50.2386         9.00162 
        1.45423         49.9881         8.90991 
        1.46036         49.7825         8.81964 
        1.46649         49.5234          8.7306 
        1.47263         49.1883         8.64271 
        1.47877         48.9313         8.55608 
        1.48491           48.85          8.4705 
        1.49104         48.4892         8.38627 
        1.49718         48.0828         8.30312 
        1.50333         48.0237         8.22097 
        1.50947         47.7836          8.1401 
         1.5156         47.4841         8.06045 
        1.52172         47.3459         7.98185 
        1.52787         47.2097         7.90415 
          1.534         46.8048         7.82758 
        1.54013          46.562          7.7521 
        1.54627         46.4718         7.67749 
        1.55241         45.9933         7.60384 
        1.55855         45.9047         7.53126 
        1.56467         45.5652         7.45983 
         1.5708         45.5698         7.38913 
        1.57695         45.3352         7.31923 
        1.58308         45.0011          7.2504 
        1.58922         44.8643         7.18241 
        1.59535         44.7313         7.11532 
         1.6015         44.3253           7.049 
        1.60764         44.1438         6.98355 
        1.61376         43.9467         6.91911 
        1.61989         43.7294         6.85544 
        1.62604         43.5424         6.79242 
        1.63218         43.4807         6.73024 
        1.63831         43.1396         6.66898 
        1.64444         42.9587         6.60846 
        1.65059         42.7943         6.54855 
        1.65673         42.5585         6.48945 
        1.66285         42.2593         6.43124 
        1.66898         42.1519         6.37373 
        1.67512         41.8455         6.31681 
        1.68127         41.6973         6.26053 
         1.6874         41.5305         6.20506 
        1.69353         41.2918          6.1503 
        1.69967         41.1398         6.09608 
        1.70581          41.051         6.04253 
        1.71193         40.8578         5.98982 
        1.71806         40.4417         5.93764 
        1.72421         40.4075         5.88597 
        1.73035         40.2286         5.83498 
        1.73649         39.8941          5.7846 
        1.74262         39.7977         5.73486 
        1.74876         39.6288         5.68566 
        1.75489         39.4705         5.63715 
        1.76101         39.3137         5.58922 
        1.76715         39.0802         5.54178 
        1.77329         38.9106         5.49484 
        1.77943         38.7147         5.44841 
        1.78557          38.549         5.40259 
        1.79171         38.3887         5.35729 
        1.79785         38.1713          5.3125 
        1.80399         38.1476         5.26823 
        1.81012         37.8296         5.22453 
        1.81625         37.6201         5.18134 
        1.82239         37.5479         5.13857 
        1.82853         37.3192         5.09631 
        1.83466         37.1046         5.05457 
        1.84078         36.8988         5.01333 
        1.84692         36.7811         4.97249 
        1.85306         36.5837         4.93206 
         1.8592         36.3822         4.89213 
        1.86533         36.2898         4.85268 
        1.87147         36.1699         4.81361 
        1.87761         36.0111         4.77495 
        1.88375         35.8226         4.73677 
        1.88988         35.7292         4.69904 
        1.89601          35.531         4.66171 
        1.90215         35.3963         4.62475 
        1.90829         35.3058         4.58821 
        1.91442         35.0765         4.55206 
        1.92056         34.8467         4.51633 
         1.9267         34.7422         4.48095 
        1.93284         34.5335         4.44592 
        1.93897         34.4917         4.41134 
        1.94509         34.2588          4.3772 
        1.95123         34.1431         4.34333 
        1.95737         33.9521          4.3098 
        1.96349            33.8         4.27671 
        1.96964         33.7454         4.24387 
        1.97578         33.4833         4.21136 
        1.98192         33.3795         4.17926 
        1.98805         33.3108         4.14749 
        1.99419         33.1186         4.11604 
        2.00033         32.9479         4.08491 
        2.00647         32.8008         4.05411 
         2.0126          32.595         4.02368 
        2.01874         32.5881         3.99351 
        2.02488         32.4189         3.96363 
        2.03101         32.2561         3.93411 
        2.03714         32.1159         3.90491 
        2.04328         31.9567         3.87598 
        2.04941          31.807         3.84737 
        2.05554         31.6628         3.81906 
        2.06167         31.5942         3.79101 
        2.06781         31.3744         3.76322 
        2.07396         31.3126         3.73568 
        2.08009         31.1774         3.70846 
        2.08622         30.9718         3.68155 
        2.09237         30.8718         3.65484 
        2.09851         30.7366          3.6284 
        2.10464         30.6194         3.60226 
        2.11077         30.5472         3.57642 
        2.11691         30.3216         3.55077 
        2.12305         30.1981         3.52536 
        2.12918         30.0808         3.50027 
        2.13531         29.9694         3.47542 
        2.14145         29.8321         3.45076 
         2.1476         29.7024          3.4263 
        2.15372         29.5537         3.40221 
        2.15985         29.4649         3.37832 
        2.16599         29.3801         3.35459 
        2.17213         29.2868         3.33112 
        2.17827         29.0381         3.30788 
         2.1844         28.9866         3.28487 
        2.19054         28.8673         3.26208 
        2.19666          28.726         3.23954 
         2.2028         28.5548         3.21719 
        2.20893         28.5189         3.19504 
        2.21508          28.418         3.17308 
        2.22122         28.2171         3.15131 
        2.22736         28.1644         3.12979 
        2.23349          28.018         3.10848 
        2.23962         27.8794         3.08735 
        2.24577          27.752         3.06641 
         2.2519          27.662         3.04568 
        2.25802         27.5598         3.02518 
        2.26417          27.434         3.00482 
        2.27031         27.3186         2.98462 
        2.27644         27.1819         2.96466 
        2.28257         27.1194         2.94489 
        2.28872         26.9957         2.92526 
        2.29486         26.9025         2.90582 
        2.30099         26.7414         2.88659 
        2.30712          26.667         2.86752 
        2.31326         26.5524          2.8486 
         2.3194         26.4699         2.82986 
        2.32553          26.354         2.81132 
        2.33166         26.2454         2.79295 
         2.3378          26.061         2.77472 
        2.34394         26.0036         2.75665 
        2.35007         25.9085         2.73876 
        2.35619         25.7811         2.72106 
        2.36233         25.6908         2.70346 
        2.36848         25.6025         2.68599 
        2.37462         25.4591         2.66871 
        2.38075         25.4236          2.6516 
        2.38689         25.2938         2.63462 
        2.39303         25.1668          2.6178 
        2.39916          25.028         2.60113 
        2.40529         24.9521         2.58462 
        2.41143         24.8864         2.56824 
        2.41757         24.7891         2.55199 
         2.4237         24.6853         2.53591 
        2.42983         24.5065         2.51997 
        2.43598         24.4587         2.50413 
        2.44211         24.3416         2.48844 
        2.44823         24.2696         2.47293 
        2.45437         24.1401         2.45751 
        2.46052         23.9945         2.44221 
        2.46665          23.971         2.42706 
        2.47279         23.8798         2.41205 
        2.47892         23.7774         2.39715 
        2.48507         23.6428         2.38236 
         2.4912         23.6044         2.36773 
