# k  (h/Mpc)    P(k)  (Mpc/h)^3    P_linear(k)  (Mpc/h)^3
     0.00783031         10102.3         10167.5 
       0.013688         12091.6         12365.7 
       0.019231         12297.2         12453.7 
      0.0249154         11548.6           11529 
      0.0312784         9982.93         10062.9 
      0.0375637         8549.05         8673.37 
      0.0433917         7604.25         7637.91 
      0.0492413         6786.66         6867.06 
      0.0555754         6233.05         6261.59 
      0.0619321         5599.91         5778.91 
       0.067871         5258.64          5351.1 
      0.0738098         4850.38         4900.27 
      0.0800417         4377.15         4402.09 
      0.0862327         3882.15          3915.3 
      0.0921407         3490.68         3497.59 
      0.0982031         3179.98          3144.2 
       0.104506          2860.2         2865.08 
       0.110769         2671.72         2663.18 
       0.116806         2562.26         2514.58 
       0.122832         2402.34         2384.41 
       0.129052         2270.01         2247.31 
       0.135211         2165.19         2098.66 
       0.141259         1989.57         1942.58 
       0.147318         1821.61         1786.52 
       0.153489         1701.97         1640.35 
       0.159709         1618.21         1515.39 
       0.165845            1482         1417.06 
       0.171974         1448.15         1340.53 
       0.178125         1394.26         1278.51 
       0.184229         1296.16         1223.56 
        0.19034         1266.81         1168.55 
       0.196428         1220.67         1110.31 
       0.202534         1135.72         1048.52 
       0.208729         1107.48         985.139 
       0.214876         1054.77         925.294 
       0.220989          989.39         871.883 
       0.227147          964.44         825.763 
        0.23329          927.26         787.151 
       0.239377         914.428         754.526 
       0.245482         868.351         725.136 
       0.251667         835.102         696.605 
       0.257832         823.425         667.982 
       0.263955         779.342         638.948 
       0.270079          752.28         609.784 
        0.27624         720.033         581.269 
       0.282372         705.181         554.685 
        0.28843         697.709         530.819 
       0.294538         662.207         509.303 
       0.300721         643.874         489.853 
        0.30691         632.095         472.086 
       0.313033          604.72          455.54 
       0.319153         595.313         439.478 
       0.325316         584.811         423.527 
        0.33145         571.033         407.835 
       0.337538          550.28         392.643 
       0.343633         534.577         378.057 
       0.349808         521.333         364.149 
       0.355968         511.443         351.253 
       0.362074         494.669         339.411 
       0.368217         491.405         328.319 
       0.374374          482.12         317.826 
       0.380519          462.89         307.807 
       0.386598         457.783         298.206 
       0.392688         447.217         288.837 
        0.39888         435.445         279.583 
       0.405048         427.452         270.678 
       0.411186         425.581          262.19 
       0.417313         419.883         254.136 
       0.423458         407.569         246.478 
       0.429607          396.66         239.219 
       0.435692         390.672         232.389 
       0.441815         383.961         225.807 
       0.447964         375.518         219.441 
       0.454126         370.987         213.279 
       0.460267         365.032         207.333 
       0.466387         358.456         201.598 
        0.47254          353.39         196.037 
       0.478662         345.263         190.718 
       0.484765         341.211         185.627 
       0.490885         337.389         180.731 
       0.497035         331.177         176.014 
       0.503198         330.033         171.472 
       0.509342         321.782         167.107 
       0.515458         316.868         162.909 
       0.521598         311.364         158.832 
       0.527764         307.207         154.871 
       0.533884         305.762         151.066 
           0.54         300.731         147.389 
       0.546137          294.24         143.824 
       0.552299         293.048         140.369 
       0.558452          288.21         137.041 
       0.564573         285.826         133.843 
       0.570708         281.014         130.743 
       0.576825         276.344         127.751 
       0.582926         274.054          124.86 
       0.589034         270.031         122.055 
       0.595184         268.231         119.316 
       0.601379          263.74         116.642 
       0.607522         258.512         114.071 
       0.613639         257.298         111.588 
       0.619772         255.852         109.175 
       0.625918         252.206         106.831 
       0.632068         248.175         104.556 
       0.638161         246.441         102.369 
         0.6443         244.114          100.23 
       0.650464         240.124         98.1442 
       0.656582          238.18         96.1324 
       0.662703         236.551         94.1762 
       0.668861         232.164         92.2635 
       0.675024         231.448         90.4028 
       0.681124         228.521         88.6127 
       0.687237         226.457         86.8683 
       0.693381         223.649         85.1634 
       0.699536         221.747         83.5017 
       0.705665          219.52          81.892 
       0.711789         217.268         80.3266 
       0.717957         215.066         78.7915 
        0.72409         212.582         77.3053 
       0.730186         213.616         75.8667 
       0.736317         209.949         74.4571 
       0.742472         207.241         73.0784 
       0.748622         204.532         71.7361 
        0.75476         205.092         70.4308 
       0.760888          202.43         69.1601 
       0.767043         199.587         67.9161 
       0.773185         198.277         66.7054 
       0.779291         195.585         65.5314 
       0.785407         194.839         64.3841 
       0.791564         192.984         63.2573 
       0.797719         189.972         62.1581 
       0.803834          191.02         61.0922 
       0.809972         188.932         60.0476 
       0.816124         186.018         59.0252 
       0.822261         184.722         58.0296 
       0.828378         184.455         57.0601 
       0.834502         181.818          56.112 
       0.840667         181.566         55.1795 
       0.846816          178.73         54.2709 
       0.852925         177.893         53.3887 
       0.859047         176.192         52.5243 
       0.865192         175.738         51.6763 
       0.871341          173.49         50.8465 
       0.877463         172.028         50.0389 
       0.883569         171.935          49.251 
       0.889708          170.28          48.476 
       0.895864         168.716         47.7159 
       0.902008         167.058         46.9737 
       0.908149         165.465         46.2478 
       0.914301         164.932         45.5362 
       0.920448         164.447         44.8403 
       0.926574          162.13         44.1615 
       0.932687         161.789         43.4982 
       0.938823         160.523         42.8463 
       0.944975         159.341         42.2063 
       0.951105         157.885         41.5817 
       0.957225         157.153         40.9709 
       0.963368         155.971         40.3704 
       0.969511         154.265         39.7819 
       0.975621         152.988         39.2084 
       0.981748         152.139         38.6448 
       0.987916         151.502         38.0888 
        0.99406         150.475         37.5459 
        1.00019         149.411         37.0146 
        1.00632         148.467         36.4942 
        1.01246         147.525         35.9831 
        1.01859          146.41         35.4826 
        1.02471          145.32         34.9923 
        1.03085         144.256         34.5096 
        1.03698         143.271          34.037 
        1.04314         142.916         33.5714 
        1.04929         142.154         33.1155 
        1.05541         141.155           32.67 
        1.06154         139.935         32.2317 
        1.06769         139.084         31.8007 
        1.07382         138.447         31.3791 
        1.07993         137.312         30.9661 
        1.08607         136.535         30.5588 
        1.09222         135.683         30.1585 
        1.09836         134.777         29.7658 
        1.10449         133.811         29.3806 
        1.11063         132.988         29.0018 
        1.11677         132.361         28.6299 
         1.1229         131.246         28.2651 
        1.12903         130.619         27.9064 
        1.13518         129.753         27.5537 
        1.14131         129.064         27.2072 
        1.14745          128.31          26.867 
        1.15359         126.986         26.5325 
        1.15973         126.675         26.2036 
        1.16584         125.943         25.8817 
        1.17197         125.304         25.5649 
        1.17811         124.166         25.2524 
        1.18424         123.632          24.946 
        1.19038         122.968         24.6438 
        1.19652         122.219         24.3468 
        1.20267         121.389         24.0547 
        1.20881         120.585         23.7675 
        1.21495         120.178         23.4854 
        1.22108         119.409          23.208 
         1.2272         118.499         22.9357 
        1.23334          118.21         22.6672 
        1.23949         117.603         22.4023 
        1.24562         116.682         22.1424 
        1.25174          116.03         21.8871 
        1.25789         115.287          21.635 
        1.26402         114.976         21.3873 
        1.27014         114.161         21.1441 
        1.27628         113.137          20.904 
        1.28244             113         20.6671 
        1.28858         111.992         20.4343 
        1.29471         111.382         20.2055 
        1.30084         110.678         19.9805 
        1.30697         110.256         19.7586 
        1.31312         109.516         19.5397 
        1.31925         108.732         19.3249 
        1.32537         108.386         19.1135 
        1.33151         108.099         18.9045 
        1.33765         107.063         18.6987 
        1.34378          106.84         18.4965 
        1.34992          106.39          18.297 
        1.35606         105.593         18.1001 
         1.3622          105.43         17.9065 
        1.36833         104.236         17.7161 
        1.37445         104.051         17.5287 
        1.38059         103.502         17.3433 
        1.38675         102.703         17.1602 
        1.39288         102.148         16.9805 
        1.39901         101.503         16.8035 
        1.40515         101.192         16.6285 
         1.4113         100.628         16.4562 
        1.41742         99.9896         16.2869 
        1.42355         99.7189         16.1197 
         1.4297         98.9262         15.9544 
        1.43585         98.4178         15.7914 
        1.44198         97.7276         15.6314 
        1.44809         97.1591         15.4739 
        1.45423         97.0379         15.3179 
        1.46036         96.1918         15.1644 
        1.46649         95.6557          15.013 
        1.47263          95.309         14.8635 
        1.47877         94.6929         14.7161 
        1.48491         94.2868         14.5705 
        1.49104         93.3686         14.4271 
        1.49718         93.2449         14.2856 
        1.50333          92.828         14.1458 
        1.50947         92.4085         14.0081 
         1.5156          91.997         13.8725 
        1.52172         91.2466         13.7386 
        1.52787         90.8671         13.6063 
          1.534         90.3869         13.4759 
        1.54013         90.0597         13.3473 
        1.54627         89.2948         13.2201 
        1.55241         89.1134         13.0946 
        1.55855         88.4261         12.9709 
        1.56467         87.7715         12.8492 
         1.5708         87.4091         12.7286 
        1.57695         87.1402         12.6094 
        1.58308         86.6397         12.4921 
        1.58922         86.5039         12.3761 
        1.59535         86.1213         12.2616 
         1.6015         85.4436         12.1485 
        1.60764         84.9517         12.0368 
        1.61376         84.5771         11.9268 
        1.61989         84.0193         11.8182 
        1.62604         83.6883         11.7106 
        1.63218         83.4128         11.6044 
        1.63831         82.8794         11.4998 
        1.64444         82.4694         11.3965 
        1.65059         81.9993         11.2942 
        1.65673         81.6323         11.1932 
        1.66285         81.0869         11.0938 
        1.66898         80.6497         10.9955 
        1.67512         80.2409         10.8983 
        1.68127         80.0182         10.8021 
         1.6874         79.4467         10.7073 
        1.69353         79.0133         10.6137 
        1.69967         78.7351          10.521 
        1.70581         78.4049         10.4294 
        1.71193         77.8931         10.3393 
        1.71806         77.5226         10.2501 
        1.72421         77.1716         10.1617 
        1.73035         76.8874         10.0745 
        1.73649         76.3584         9.98831 
        1.74262          75.907         9.90322 
        1.74876         75.5808         9.81905 
        1.75489         75.1764         9.73604 
        1.76101         74.7596         9.65401 
        1.76715         74.4622         9.57282 
        1.77329         74.0501         9.49246 
        1.77943         73.8246         9.41298 
        1.78557         73.4806         9.33454 
        1.79171         73.0134         9.25697 
        1.79785         72.5543         9.18027 
        1.80399         72.3713         9.10446 
        1.81012         71.8986          9.0296 
        1.81625         71.5716         8.95561 
        1.82239         71.2787         8.88235 
        1.82853         70.7544         8.80993 
        1.83466         70.4332          8.7384 
        1.84078         70.2163         8.66773 
        1.84692          70.052         8.59773 
        1.85306         69.5595         8.52842 
         1.8592         69.2674         8.45998 
        1.86533         68.8817         8.39233 
        1.87147           68.51         8.32534 
        1.87761         68.0445         8.25906 
        1.88375         67.8002         8.19357 
        1.88988         67.3415         8.12887 
        1.89601         67.1836         8.06482 
        1.90215         66.6957         8.00142 
        1.90829          66.439         7.93873 
        1.91442         66.1101         7.87671 
        1.92056         65.9479          7.8154 
         1.9267          65.471         7.75469 
        1.93284         65.2529         7.69458 
        1.93897         64.9246         7.63522 
        1.94509         64.5494         7.57662 
        1.95123         64.2948         7.51848 
        1.95737         63.9801         7.46091 
        1.96349         63.7101         7.40409 
        1.96964          63.345          7.3477 
        1.97578         62.9853         7.29187 
        1.98192         62.6422         7.23674 
        1.98805         62.2146         7.18217 
        1.99419         62.1139         7.12816 
        2.00033         61.6966         7.07468 
        2.00647         61.4755         7.02176 
         2.0126         61.1652         6.96947 
        2.01874         61.0828         6.91764 
        2.02488         60.6912         6.86628 
        2.03101          60.341         6.81555 
        2.03714         60.1235         6.76537 
        2.04328         59.7627         6.71564 
        2.04941         59.2897         6.66645 
        2.05554         59.2305         6.61779 
        2.06167         58.9609         6.56955 
        2.06781          58.621         6.52178 
        2.07396         58.3284         6.47442 
        2.08009         58.0484         6.42761 
        2.08622         57.7775         6.38132 
        2.09237         57.5253         6.33539 
        2.09851         57.1028          6.2899 
        2.10464         56.9492         6.24494 
        2.11077         56.7134         6.20047 
        2.11691         56.4146         6.15633 
        2.12305         56.0925         6.11262 
        2.12918         55.8194         6.06944 
        2.13531         55.5722         6.02668 
        2.14145         55.2778         5.98422 
         2.1476         55.1749         5.94213 
        2.15372          54.838         5.90065 
        2.15985         54.5031         5.85953 
        2.16599         54.2267         5.81868 
        2.17213         53.9835         5.77826 
        2.17827         53.7577         5.73824 
         2.1844         53.4385         5.69863 
        2.19054         53.3172         5.65938 
        2.19666         53.0475         5.62056 
         2.2028         52.7169         5.58206 
        2.20893         52.4497         5.54391 
        2.21508         52.1168         5.50607 
        2.22122         51.9349         5.46857 
        2.22736         51.6891          5.4315 
        2.23349         51.4939         5.39478 
        2.23962         51.2776         5.35838 
        2.24577         50.9692         5.32228 
         2.2519          50.743         5.28657 
        2.25802         50.4984         5.25124 
        2.26417         50.2559         5.21613 
        2.27031         50.0688         5.18132 
        2.27644         49.8877         5.14692 
        2.28257         49.4982         5.11283 
        2.28872         49.4281         5.07899 
        2.29486         49.1502         5.04546 
        2.30099         48.7861         5.01231 
        2.30712         48.6742         4.97943 
        2.31326         48.4583          4.9468 
         2.3194         48.1896         4.91448 
        2.32553         48.0334          4.8825 
        2.33166         47.7359         4.85081 
         2.3378         47.4947         4.81937 
        2.34394         47.2806         4.78819 
        2.35007         47.0529         4.75734 
        2.35619         46.8517         4.72679 
        2.36233         46.5934         4.69644 
        2.36848         46.4563         4.66629 
        2.37462         46.1034         4.63647 
        2.38075         46.0016         4.60694 
        2.38689         45.7964         4.57764 
        2.39303         45.5555          4.5486 
        2.39916         45.3406         4.51985 
        2.40529         45.1708         4.49134 
        2.41143         44.9473         4.46306 
        2.41757         44.7862         4.43501 
         2.4237         44.5958         4.40725 
        2.42983         44.3065         4.37973 
        2.43598         44.1388         4.35237 
        2.44211         43.8631         4.32529 
        2.44823         43.6804          4.2985 
        2.45437         43.5117         4.27187 
        2.46052         43.2291         4.24544 
        2.46665         43.0572         4.21928 
        2.47279         42.8457         4.19334 
        2.47892         42.6903         4.16761 
        2.48507         42.5694         4.14207 
         2.4912         42.2079          4.1168 
