# k  (h/Mpc)    P(k)  (Mpc/h)^3    P_linear(k)  (Mpc/h)^3
     0.00783031         2426.65            2454 
       0.013688         3244.13          3242.6 
       0.019231         3492.45         3494.08 
      0.0249154         3405.96         3439.26 
      0.0312784         3166.31         3180.54 
      0.0375637         2860.86         2860.74 
      0.0433917         2564.32         2583.93 
      0.0492413         2350.08         2356.54 
      0.0555754         2143.35          2169.8 
      0.0619321         2032.01         2027.31 
       0.067871         1892.31         1912.91 
      0.0738098         1776.73         1798.69 
      0.0800417         1638.37         1668.77 
      0.0862327         1509.77         1529.62 
      0.0921407         1383.47         1395.07 
      0.0982031         1250.56         1265.69 
       0.104506          1152.3         1149.89 
       0.110769          1060.4         1058.31 
       0.116806         985.878         991.248 
       0.122832         941.103          940.23 
       0.129052         888.657         897.112 
       0.135211          848.24         856.863 
       0.141259         812.592         814.803 
       0.147318         770.454         768.295 
       0.153489         715.401          717.53 
       0.159709         669.326         666.125 
       0.165845         632.107         618.865 
       0.171974         586.618         577.906 
       0.178125         555.122         544.294 
       0.184229         531.664         517.913 
        0.19034         501.285         496.755 
       0.196428         490.264         478.577 
       0.202534         476.952         461.002 
       0.208729         455.195         442.205 
       0.214876         431.404         421.966 
       0.220989         417.837         400.635 
       0.227147         391.246         378.976 
        0.23329         373.085         358.444 
       0.239377         359.715         340.164 
       0.245482         338.189         324.396 
       0.251667         331.399         310.993 
       0.257832         320.187         299.701 
       0.263955         309.581         289.751 
       0.270079         300.134          280.27 
        0.27624         294.524         270.616 
       0.282372         283.198         260.589 
        0.28843         272.438          250.33 
       0.294538         261.693         239.912 
       0.300721         256.353         229.699 
        0.30691         244.491         220.184 
       0.313033         237.428         211.699 
       0.319153         227.068         204.186 
       0.325316         222.832         197.469 
        0.33145         215.682         191.396 
       0.337538         211.988         185.706 
       0.343633         205.453         180.116 
       0.349808          199.75         174.434 
       0.355968         195.068         168.703 
       0.362074         189.337         163.037 
       0.368217         184.369         157.459 
       0.374374         178.974         152.125 
       0.380519         174.633          147.15 
       0.386598         170.182         142.606 
       0.392688         167.289         138.422 
        0.39888         162.961         134.467 
       0.405048         159.681         130.747 
       0.411186          156.39         127.177 
       0.417313         152.062         123.675 
       0.423458         148.934         120.205 
       0.429607         145.163         116.777 
       0.435692         140.653         113.451 
       0.441815         139.408         110.215 
       0.447964         137.261         107.112 
       0.454126         131.644         104.164 
       0.460267         129.826         101.396 
       0.466387         127.178         98.7907 
        0.47254         125.365         96.2941 
       0.478662         123.485         93.9048 
       0.484765         120.418         91.5951 
       0.490885         118.134         89.3327 
       0.497035         116.663         87.1028 
       0.503198          113.72          84.921 
       0.509342         111.214         82.8083 
       0.515458         109.583         80.7755 
       0.521598          108.23         78.8111 
       0.527764         106.389         76.9205 
       0.533884         104.529         75.1259 
           0.54         102.851         73.4043 
       0.546137         101.687         71.7375 
       0.552299         100.294         70.1156 
       0.558452         97.5945         68.5426 
       0.564573         95.9974         67.0193 
       0.570708         95.0717         65.5302 
       0.576825         93.1699         64.0831 
       0.582926         91.6487         62.6804 
       0.589034         89.5622         61.3196 
       0.595184         88.6832         59.9957 
       0.601379         87.7147         58.7078 
       0.607522         85.6527         57.4724 
       0.613639         85.4906         56.2806 
       0.619772         83.3576         55.1214 
       0.625918         83.0034         53.9931 
       0.632068         81.7908         52.8953 
       0.638161         80.5712         51.8362 
         0.6443         79.3439         50.7961 
       0.650464         78.2115         49.7787 
       0.656582         77.6266         48.7956 
       0.662703         76.1021         47.8392 
       0.668861         75.2882         46.9046 
       0.675024         74.2511         45.9966 
       0.681124         73.1154         45.1237 
       0.687237          71.989         44.2728 
       0.693381         71.4358         43.4404 
       0.699536         70.1239         42.6277 
       0.705665         70.3693         41.8386 
       0.711789         68.6686         41.0697 
       0.717957         68.1187         40.3145 
        0.72409         67.1398         39.5826 
       0.730186          66.192         38.8735 
       0.736317         65.8905         38.1784 
       0.742472          64.784         37.4983 
       0.748622          64.366         36.8358 
        0.75476         63.5216         36.1911 
       0.760888         62.6997          35.563 
       0.767043         62.0977         34.9475 
       0.773185         61.2418         34.3478 
       0.779291         60.9545         33.7657 
       0.785407         60.3404         33.1962 
       0.791564         59.3491         32.6364 
       0.797719         58.4823         32.0899 
       0.803834         58.3925         31.5595 
       0.809972         57.6041         31.0394 
       0.816124         56.5899           30.53 
       0.822261         56.4415         30.0337 
       0.828378         55.8873           29.55 
       0.834502         55.2334         29.0767 
       0.840667          54.812         28.6108 
       0.846816         54.0851         28.1566 
       0.852925         53.6398         27.7152 
       0.859047         52.9539         27.2823 
       0.865192          52.719         26.8574 
       0.871341         52.4082         26.4413 
       0.877463         51.3995          26.036 
       0.883569         51.0533         25.6402 
       0.889708         50.7082         25.2507 
       0.895864         50.2767         24.8684 
       0.902008         49.8832         24.4949 
       0.908149         49.4587         24.1294 
       0.914301         49.2191         23.7708 
       0.920448          48.314         23.4199 
       0.926574         48.1736         23.0774 
       0.932687         47.6814         22.7425 
       0.938823         47.0933         22.4131 
       0.944975          46.861         22.0896 
       0.951105         46.5008         21.7737 
       0.957225         45.9572         21.4645 
       0.963368         45.7018         21.1604 
       0.969511         45.3997         20.8622 
       0.975621         45.0768         20.5714 
       0.981748         44.5052         20.2854 
       0.987916          44.312         20.0032 
        0.99406         43.9374         19.7274 
        1.00019         43.3875         19.4573 
        1.00632         43.2853         19.1927 
        1.01246         42.8846         18.9326 
        1.01859         42.4236         18.6778 
        1.02471         42.3936          18.428 
        1.03085         41.9711         18.1819 
        1.03698         41.4051          17.941 
        1.04314         41.1191         17.7033 
        1.04929         40.8764         17.4706 
        1.05541         40.4741          17.243 
        1.06154         40.3029          17.019 
        1.06769         40.0198         16.7986 
        1.07382          39.696         16.5829 
        1.07993         39.5541         16.3715 
        1.08607         39.0917         16.1629 
        1.09222         38.9106         15.9578 
        1.09836         38.4685         15.7565 
        1.10449         38.3803          15.559 
        1.11063         37.8989         15.3646 
        1.11677          37.788         15.1737 
         1.1229         37.6506         14.9863 
        1.12903         37.1732          14.802 
        1.13518         36.9052         14.6207 
        1.14131         36.8423         14.4425 
        1.14745         36.5629         14.2674 
        1.15359         36.3507         14.0952 
        1.15973         35.9706         13.9257 
        1.16584         35.6612         13.7599 
        1.17197         35.7116         13.5965 
        1.17811          35.254         13.4353 
        1.18424         34.9706         13.2772 
        1.19038         34.9092         13.1212 
        1.19652          34.649         12.9678 
        1.20267         34.4171         12.8169 
        1.20881         34.2633         12.6684 
        1.21495         33.9896         12.5225 
        1.22108         33.7417          12.379 
         1.2272         33.4219          12.238 
        1.23334         33.2793         12.0989 
        1.23949         33.0327         11.9617 
        1.24562         32.9953          11.827 
        1.25174         32.7755         11.6946 
        1.25789         32.6114         11.5639 
        1.26402         32.4193         11.4353 
        1.27014         32.1301         11.3091 
        1.27628         31.8659         11.1844 
        1.28244         31.8092         11.0613 
        1.28858         31.6496         10.9403 
        1.29471         31.3706         10.8213 
        1.30084         31.1869         10.7043 
        1.30697         31.0075         10.5888 
        1.31312         30.7456         10.4748 
        1.31925         30.6151         10.3629 
        1.32537         30.5343         10.2528 
        1.33151         30.2593         10.1439 
        1.33765         30.1502         10.0366 
        1.34378         30.0462         9.93111 
        1.34992         29.6484         9.82707 
        1.35606         29.6236          9.7243 
         1.3622         29.4783         9.62319 
        1.36833         29.2809         9.52377 
        1.37445         29.1842         9.42581 
        1.38059         29.0515         9.32894 
        1.38675         28.7598         9.23321 
        1.39288         28.6787          9.1392 
        1.39901         28.4403         9.04656 
        1.40515         28.3395           8.955 
         1.4113         28.1975         8.86475 
        1.41742         27.9792          8.7761 
        1.42355         27.9137          8.6885 
         1.4297         27.7247         8.60183 
        1.43585         27.6619         8.51639 
        1.44198         27.3738         8.43244 
        1.44809         27.3353         8.34979 
        1.45423         27.1883         8.26795 
        1.46036         27.0949         8.18735 
        1.46649         26.9306         8.10781 
        1.47263         26.7333         8.02927 
        1.47877          26.628          7.9518 
        1.48491         26.4829         7.87524 
        1.49104         26.4288         7.79985 
        1.49718         26.2006          7.7254 
        1.50333         26.0907          7.6518 
        1.50947         26.0083         7.57932 
         1.5156          25.812         7.50789 
        1.52172         25.6211         7.43739 
        1.52787         25.5704         7.36765 
          1.534         25.4473          7.2989 
        1.54013         25.2715          7.2311 
        1.54627         25.1718         7.16404 
        1.55241         25.0125         7.09782 
        1.55855          24.954         7.03254 
        1.56467         24.8449         6.96827 
         1.5708         24.7408         6.90462 
        1.57695          24.511         6.84167 
        1.58308         24.4867         6.77966 
        1.58922         24.3569         6.71837 
        1.59535         24.2149         6.65787 
         1.6015         24.0803         6.59803 
        1.60764         24.0346         6.53896 
        1.61376          23.946         6.48078 
        1.61989         23.7042         6.42326 
        1.62604         23.7185         6.36631 
        1.63218         23.5458          6.3101 
        1.63831          23.463         6.25469 
        1.64444         23.3057         6.19993 
        1.65059         23.2291          6.1457 
        1.65673         23.1303         6.09219 
        1.66285         22.9886         6.03946 
        1.66898         22.9262         5.98734 
        1.67512         22.8166         5.93573 
        1.68127         22.6457         5.88469 
         1.6874         22.5835         5.83437 
        1.69353         22.5532         5.78467 
        1.69967         22.3527         5.73543 
        1.70581         22.2181         5.68679 
        1.71193         22.1435         5.63889 
        1.71806         22.1066         5.59145 
        1.72421         21.9732         5.54446 
        1.73035         21.9201         5.49807 
        1.73649         21.7787         5.45222 
        1.74262         21.7218         5.40694 
        1.74876         21.6001         5.36213 
        1.75489         21.5134         5.31794 
        1.76101         21.3933         5.27425 
        1.76715         21.3926           5.231 
        1.77329         21.2674         5.18818 
        1.77943         21.1237         5.14582 
        1.78557          21.031           5.104 
        1.79171         20.9881         5.06264 
        1.79785         20.8829         5.02174 
        1.80399         20.8034         4.98129 
        1.81012         20.6895         4.94135 
        1.81625         20.5919         4.90186 
        1.82239         20.5345         4.86275 
        1.82853         20.3747         4.82408 
        1.83466         20.3416         4.78587 
        1.84078         20.2011         4.74812 
        1.84692         20.1623         4.71072 
        1.85306         20.0695         4.67367 
         1.8592         20.0063         4.63708 
        1.86533         19.9205         4.60091 
        1.87147         19.8229         4.56508 
        1.87761         19.7492         4.52962 
        1.88375         19.6428         4.49458 
        1.88988         19.5885         4.45995 
        1.89601         19.5212         4.42566 
        1.90215         19.4088         4.39171 
        1.90829         19.3555         4.35814 
        1.91442         19.2542         4.32491 
        1.92056         19.2032         4.29206 
         1.9267         19.1187         4.25952 
        1.93284         19.0285          4.2273 
        1.93897         18.9185         4.19547 
        1.94509         18.8752         4.16404 
        1.95123         18.8047         4.13285 
        1.95737         18.7036         4.10197 
        1.96349         18.6294         4.07147 
        1.96964         18.5656          4.0412 
        1.97578          18.486         4.01123 
        1.98192         18.4035         3.98162 
        1.98805         18.3393         3.95231 
        1.99419         18.2521         3.92329 
        2.00033         18.1935         3.89455 
        2.00647         18.1558         3.86611 
         2.0126         17.9977           3.838 
        2.01874         17.9589         3.81012 
        2.02488         17.8664          3.7825 
        2.03101         17.8487         3.75521 
        2.03714         17.7614         3.72821 
        2.04328           17.68         3.70145 
        2.04941         17.6167         3.67497 
        2.05554         17.5756         3.64878 
        2.06167         17.4952          3.6228 
        2.06781         17.4235         3.59707 
        2.07396         17.3449         3.57156 
        2.08009         17.2729         3.54634 
        2.08622          17.195         3.52139 
        2.09237         17.1483         3.49663 
        2.09851         17.0938         3.47211 
        2.10464         17.0188         3.44786 
        2.11077         16.9529         3.42388 
        2.11691         16.8549         3.40007 
        2.12305         16.8182         3.37649 
        2.12918         16.7786         3.35319 
        2.13531          16.682          3.3301 
        2.14145         16.6343         3.30719 
         2.1476         16.5578         3.28446 
        2.15372         16.5145         3.26206 
        2.15985         16.4426         3.23984 
        2.16599         16.3762         3.21777 
        2.17213         16.3464         3.19593 
        2.17827         16.2784          3.1743 
         2.1844         16.2113         3.15289 
        2.19054         16.1166         3.13167 
        2.19666         16.0764         3.11068 
         2.2028         16.0015         3.08986 
        2.20893         15.9691         3.06922 
        2.21508         15.9026         3.04875 
        2.22122         15.8068         3.02845 
        2.22736         15.7748         3.00839 
        2.23349         15.7064         2.98851 
        2.23962         15.6848          2.9688 
        2.24577         15.5907         2.94925 
         2.2519         15.5359         2.92991 
        2.25802         15.4799         2.91077 
        2.26417         15.4157         2.89175 
        2.27031         15.3812         2.87288 
        2.27644           15.34         2.85423 
        2.28257         15.2842         2.83576 
        2.28872         15.1936         2.81741 
        2.29486         15.1663         2.79922 
        2.30099         15.1262         2.78124 
        2.30712          15.074         2.76341 
        2.31326         14.9895          2.7457 
         2.3194         14.8991         2.72816 
        2.32553          14.901          2.7108 
        2.33166         14.8192          2.6936 
         2.3378         14.7864         2.67652 
        2.34394         14.7129         2.65959 
        2.35007         14.6351         2.64283 
        2.35619         14.6072         2.62624 
        2.36233         14.5501         2.60975 
        2.36848         14.5247         2.59336 
        2.37462         14.4453         2.57716 
        2.38075         14.3911          2.5611 
        2.38689         14.3481         2.54517 
        2.39303         14.3023         2.52938 
        2.39916         14.2497         2.51374 
        2.40529          14.218         2.49824 
        2.41143         14.1371         2.48285 
        2.41757         14.1091         2.46759 
         2.4237         14.0368         2.45248 
        2.42983         14.0221          2.4375 
        2.43598         13.9534         2.42261 
        2.44211         13.8851         2.40786 
        2.44823         13.8671         2.39327 
        2.45437          13.808         2.37877 
        2.46052         13.7672         2.36437 
        2.46665         13.7076         2.35011 
        2.47279         13.6679         2.33598 
        2.47892         13.6109         2.32196 
        2.48507         13.5559         2.30804 
         2.4912         13.5254         2.29426 
