# k  (h/Mpc)    P(k)  (Mpc/h)^3    P_linear(k)  (Mpc/h)^3
     0.00783031         2046.93         2073.14 
       0.013688         2488.84         2492.67 
       0.019231         2448.93         2449.25 
      0.0249154         2170.16         2185.65 
      0.0312784          1810.7         1812.45 
      0.0375637         1486.85         1481.39 
      0.0433917         1250.05         1251.74 
      0.0492413         1099.87          1097.3 
      0.0555754         988.614         994.425 
      0.0619321         933.097         927.379 
       0.067871         867.356         871.655 
      0.0738098          802.49         806.736 
      0.0800417         718.199         724.276 
      0.0862327          632.88         634.311 
      0.0921407         553.324         551.816 
      0.0982031         480.358         480.248 
       0.104506         430.706         425.135 
       0.110769          394.24         389.432 
       0.116806         370.473          368.62 
       0.122832         358.157         354.995 
       0.129052         341.867         341.948 
       0.135211         325.198         325.307 
       0.141259         305.793         303.702 
       0.147318         281.836         278.087 
       0.153489         253.994          251.04 
       0.159709         230.499         226.256 
       0.165845         213.099         206.561 
       0.171974         196.976         192.333 
       0.178125          187.94         182.823 
       0.184229         181.647         176.497 
        0.19034         173.716         171.322 
       0.196428         169.589          165.63 
       0.202534         163.773          158.39 
       0.208729         153.887         149.374 
       0.214876         143.404         139.432 
       0.220989           135.2         129.581 
       0.227147         125.407         120.657 
        0.23329         118.334         113.344 
       0.239377         113.523         107.791 
       0.245482         107.716         103.623 
       0.251667         105.654          100.29 
       0.257832         102.388         97.2521 
       0.263955          98.957         94.0258 
       0.270079         95.1818         90.3428 
        0.27624          92.071         86.2021 
       0.282372         87.8521         81.8603 
        0.28843         83.3148         77.6646 
       0.294538         79.4319          73.796 
       0.300721         76.9499         70.4243 
        0.30691         73.3652         67.6183 
       0.313033         71.1191          65.307 
       0.319153         68.0603         63.2904 
       0.325316         67.0973          61.372 
        0.33145         64.7006          59.429 
       0.337538         62.9592         57.4011 
       0.343633         60.5714         55.2738 
       0.349808         58.6206         53.0905 
       0.355968         56.6779         50.9694 
       0.362074         54.6325          49.011 
       0.368217         52.8793         47.2286 
       0.374374         51.1691         45.6422 
       0.380519         49.8858         44.2285 
       0.386598         48.5749         42.9431 
       0.392688         47.5411         41.7182 
        0.39888         46.1414         40.4886 
       0.405048         44.9799         39.2562 
       0.411186          43.828         38.0257 
       0.417313         42.3588         36.8053 
       0.423458          41.203         35.6175 
       0.429607         40.0378         34.4906 
       0.435692         38.7502         33.4469 
       0.441815         38.0311         32.4726 
       0.447964          37.352         31.5648 
       0.454126          35.886         30.7075 
       0.460267         35.2793         29.8882 
       0.466387          34.238         29.0951 
        0.47254         33.6771         28.3117 
       0.478662         33.0694         27.5423 
       0.484765         32.0296         26.7916 
       0.490885         31.2857         26.0619 
       0.497035         30.8749         25.3571 
       0.503198         30.0189         24.6828 
       0.509342         29.2395         24.0448 
       0.515458         28.6239         23.4423 
       0.521598         28.1118         22.8641 
       0.527764         27.4971         22.3044 
       0.533884         27.0375         21.7657 
           0.54         26.4179         21.2421 
       0.546137         25.9865         20.7299 
       0.552299         25.5399         20.2282 
       0.558452         24.7519         19.7413 
       0.564573          24.379         19.2727 
       0.570708         23.9571         18.8207 
       0.576825         23.3674         18.3876 
       0.582926         22.9167         17.9717 
       0.589034         22.3318         17.5697 
       0.595184         22.0353          17.178 
       0.601379         21.5915         16.7958 
       0.607522         21.2172         16.4279 
       0.613639         20.9808         16.0717 
       0.619772         20.4246         15.7241 
       0.625918         20.3015          15.385 
       0.632068         19.9661         15.0555 
       0.638161          19.519         14.7387 
         0.6443         19.1302         14.4296 
       0.650464          18.776         14.1294 
       0.656582           18.65         13.8406 
       0.662703         18.2966         13.5602 
       0.668861          17.946         13.2861 
       0.675024         17.6185         13.0191 
       0.681124         17.3158         12.7617 
       0.687237         17.0377         12.5106 
       0.693381         16.8664          12.265 
       0.699536         16.4148         12.0256 
       0.705665         16.3248         11.7938 
       0.711789         15.9872         11.5686 
       0.717957          15.752         11.3479 
        0.72409         15.5099         11.1343 
       0.730186         15.2963         10.9277 
       0.736317         15.1246         10.7252 
       0.742472         14.8719         10.5271 
       0.748622         14.6903         10.3342 
        0.75476         14.4152         10.1465 
       0.760888         14.2118         9.96382 
       0.767043         14.0372         9.78496 
       0.773185         13.7762         9.61091 
       0.779291         13.6947         9.44216 
       0.785407         13.5095         9.27729 
       0.791564         13.2802          9.1154 
       0.797719         12.9951          8.9575 
       0.803834          12.964         8.80441 
       0.809972         12.8363         8.65439 
       0.816124         12.5535         8.50758 
       0.822261         12.3949         8.36459 
       0.828378         12.2551         8.22534 
       0.834502         12.1536         8.08916 
       0.840667         11.9584          7.9552 
       0.846816         11.7451         7.82468 
       0.852925         11.6354         7.69793 
       0.859047         11.5029         7.57375 
       0.865192          11.399         7.45192 
       0.871341         11.2923         7.33272 
       0.877463         11.0943          7.2167 
       0.883569         10.9424         7.10351 
       0.889708         10.7694         6.99219 
       0.895864         10.6762           6.883 
       0.902008         10.5892         6.77639 
       0.908149         10.4738         6.67213 
       0.914301          10.368         6.56991 
       0.920448         10.1928         6.46995 
       0.926574         10.0847         6.37244 
       0.932687         9.97673         6.27716 
       0.938823         9.84591         6.18351 
       0.944975         9.73023         6.09156 
       0.951105         9.63362         6.00184 
       0.957225          9.5705         5.91409 
       0.963368         9.46372         5.82782 
       0.969511         9.36272         5.74328 
       0.975621         9.25828         5.66088 
       0.981748         9.14616         5.57991 
       0.987916         9.08376         5.50003 
        0.99406         8.94001         5.42202 
        1.00019         8.81041          5.3457 
        1.00632         8.79212         5.27093 
        1.01246         8.69341         5.19749 
        1.01859         8.55774         5.12558 
        1.02471         8.50988         5.05514 
        1.03085         8.41785         4.98579 
        1.03698         8.29753         4.91789 
        1.04314         8.24867         4.85099 
        1.04929         8.14309         4.78549 
        1.05541         8.05114         4.72148 
        1.06154         7.99304         4.65849 
        1.06769         7.95557         4.59657 
        1.07382         7.83025         4.53598 
        1.07993         7.76186         4.47663 
        1.08607         7.70552          4.4181 
        1.09222         7.63318         4.36057 
        1.09836         7.54518         4.30414 
        1.10449         7.48156         4.24878 
        1.11063         7.40124         4.19434 
        1.11677         7.36399         4.14088 
         1.1229          7.3079         4.08846 
        1.12903         7.21226          4.0369 
        1.13518         7.12997         3.98619 
        1.14131         7.07593         3.93639 
        1.14745         7.00456         3.88747 
        1.15359          6.9612         3.83938 
        1.15973         6.89181         3.79209 
        1.16584         6.79839         3.74581 
        1.17197          6.7523         3.70024 
        1.17811         6.72334          3.6553 
        1.18424         6.65727         3.61124 
        1.19038         6.62779         3.56779 
        1.19652          6.5477         3.52507 
        1.20267         6.48155         3.48306 
        1.20881          6.4601         3.44175 
        1.21495         6.39929         3.40117 
        1.22108         6.32566         3.36126 
         1.2272         6.28524          3.3221 
        1.23334          6.2145         3.28347 
        1.23949          6.1605         3.24536 
        1.24562         6.13155         3.20798 
        1.25174         6.07707         3.17124 
        1.25789         6.03369         3.13497 
        1.26402         5.99664         3.09933 
        1.27014         5.94449         3.06434 
        1.27628         5.87906          3.0298 
        1.28244         5.81992         2.99572 
        1.28858          5.8148         2.96221 
        1.29471         5.74274         2.92929 
        1.30084         5.68849         2.89691 
        1.30697         5.68747         2.86497 
        1.31312         5.59238         2.83347 
        1.31925         5.55633         2.80255 
        1.32537         5.51922         2.77212 
        1.33151         5.49866         2.74203 
        1.33765         5.43528         2.71242 
        1.34378         5.39994          2.6833 
        1.34992         5.36602         2.65459 
        1.35606         5.31244         2.62624 
         1.3622          5.2872         2.59835 
        1.36833         5.23997         2.57095 
        1.37445         5.20716         2.54395 
        1.38059         5.18982         2.51726 
        1.38675         5.14462         2.49089 
        1.39288         5.11347         2.46501 
        1.39901         5.05216         2.43951 
        1.40515         5.02766         2.41431 
         1.4113         4.99428         2.38948 
        1.41742         4.95799          2.3651 
        1.42355         4.91367         2.34101 
         1.4297         4.88662         2.31719 
        1.43585         4.86371         2.29371 
        1.44198         4.84015         2.27065 
        1.44809         4.79393         2.24795 
        1.45423         4.75624         2.22548 
        1.46036         4.71756         2.20336 
        1.46649         4.69303         2.18153 
        1.47263         4.65325         2.15998 
        1.47877         4.62208         2.13874 
        1.48491         4.59585         2.11775 
        1.49104         4.56744         2.09709 
        1.49718         4.54003         2.07669 
        1.50333         4.51437         2.05653 
        1.50947         4.47444         2.03668 
         1.5156         4.45024         2.01712 
        1.52172         4.42448         1.99782 
        1.52787         4.39703         1.97874 
          1.534         4.35989         1.95992 
        1.54013         4.34257         1.94138 
        1.54627          4.3038         1.92304 
        1.55241         4.27747         1.90494 
        1.55855          4.2608          1.8871 
        1.56467         4.22985         1.86954 
         1.5708         4.20661         1.85215 
        1.57695         4.17099         1.83496 
        1.58308          4.1384         1.81802 
        1.58922         4.13026         1.80129 
        1.59535          4.1069         1.78478 
         1.6015         4.07061         1.76846 
        1.60764         4.04443         1.75234 
        1.61376         4.02718         1.73647 
        1.61989         4.00329         1.72079 
        1.62604          3.9745         1.70527 
        1.63218         3.96716         1.68994 
        1.63831         3.93234         1.67485 
        1.64444         3.91326         1.65993 
        1.65059         3.87318         1.64516 
        1.65673         3.87235         1.63058 
        1.66285         3.83355         1.61623 
        1.66898         3.81466         1.60204 
        1.67512         3.79195         1.58799 
        1.68127         3.77043         1.57411 
         1.6874         3.75813         1.56042 
        1.69353         3.71984          1.5469 
        1.69967         3.70972         1.53351 
        1.70581         3.69079         1.52029 
        1.71193         3.66503         1.50727 
        1.71806          3.6507         1.49438 
        1.72421          3.6257         1.48161 
        1.73035         3.61229         1.46901 
        1.73649         3.58894         1.45656 
        1.74262         3.56517         1.44426 
        1.74876         3.55408          1.4321 
        1.75489         3.53189          1.4201 
        1.76101         3.50387         1.40825 
        1.76715         3.49452         1.39651 
        1.77329         3.47673          1.3849 
        1.77943         3.44318         1.37341 
        1.78557         3.43453         1.36207 
        1.79171         3.41723         1.35086 
        1.79785         3.39739         1.33977 
        1.80399         3.37848         1.32881 
        1.81012         3.36087         1.31799 
        1.81625         3.34574         1.30729 
        1.82239         3.32772          1.2967 
        1.82853         3.30504         1.28623 
        1.83466         3.29484         1.27588 
        1.84078         3.27916         1.26566 
        1.84692         3.26834         1.25554 
        1.85306         3.23925         1.24552 
         1.8592         3.21944         1.23562 
        1.86533         3.20678         1.22583 
        1.87147         3.19488         1.21614 
        1.87761         3.17444         1.20655 
        1.88375         3.15874         1.19708 
        1.88988           3.143         1.18772 
        1.89601         3.12609         1.17845 
        1.90215          3.1099         1.16928 
        1.90829         3.09212          1.1602 
        1.91442         3.08246         1.15123 
        1.92056         3.06346         1.14235 
         1.9267           3.047         1.13357 
        1.93284         3.03707         1.12486 
        1.93897         3.02154         1.11627 
        1.94509         3.00536         1.10779 
        1.95123         2.98997         1.09937 
        1.95737         2.96992         1.09104 
        1.96349         2.96322         1.08281 
        1.96964         2.95234         1.07464 
        1.97578         2.92744         1.06656 
        1.98192         2.92054         1.05857 
        1.98805         2.90752         1.05067 
        1.99419         2.89207         1.04285 
        2.00033         2.88322          1.0351 
        2.00647         2.86515         1.02744 
         2.0126         2.85736         1.01986 
        2.01874          2.8332         1.01235 
        2.02488         2.82804         1.00491 
        2.03101         2.80569         0.99756 
        2.03714         2.79648        0.990289 
        2.04328         2.78389        0.983083 
        2.04941         2.76528        0.975955 
        2.05554         2.75796        0.968902 
        2.06167         2.74793         0.96191 
        2.06781         2.73425        0.954987 
        2.07396         2.72508        0.948122 
        2.08009         2.71135        0.941336 
        2.08622         2.69642        0.934625 
        2.09237         2.68255        0.927967 
        2.09851         2.67497        0.921372 
        2.10464         2.66543        0.914853 
        2.11077         2.64826        0.908405 
        2.11691         2.63707        0.902005 
        2.12305         2.62886        0.895667 
        2.12918         2.62069        0.889405 
        2.13531         2.60668        0.883203 
        2.14145         2.59493        0.877046 
         2.1476          2.5791         0.87094 
        2.15372          2.5677        0.864924 
        2.15985         2.56365        0.858958 
        2.16599         2.54808        0.853032 
        2.17213          2.5328        0.847169 
        2.17827         2.52782        0.841362 
         2.1844         2.51527        0.835614 
        2.19054         2.50651        0.829919 
        2.19666         2.49301        0.824285 
         2.2028         2.48144        0.818698 
        2.20893           2.473        0.813161 
        2.21508         2.46054        0.807669 
        2.22122           2.449        0.802226 
        2.22736         2.44094        0.796845 
        2.23349         2.43234        0.791514 
        2.23962         2.41896         0.78623 
        2.24577         2.41309        0.780989 
         2.2519         2.40385        0.775804 
        2.25802         2.39374        0.770674 
        2.26417         2.38587        0.765576 
        2.27031         2.37249         0.76052 
        2.27644         2.36229        0.755525 
        2.28257         2.34953        0.750575 
        2.28872         2.34715         0.74566 
        2.29486         2.33183         0.74079 
        2.30099         2.32177        0.735974 
        2.30712         2.31272        0.731199 
        2.31326         2.30351        0.726458 
         2.3194         2.29674        0.721762 
        2.32553         2.28824        0.717115 
        2.33166         2.27962        0.712512 
         2.3378         2.26931        0.707942 
        2.34394         2.25956        0.703412 
        2.35007         2.25074        0.698927 
        2.35619         2.24424        0.694488 
        2.36233         2.23445        0.690076 
        2.36848         2.22333        0.685694 
        2.37462         2.21878        0.681359 
        2.38075         2.20695        0.677066 
        2.38689         2.20316        0.672807 
        2.39303          2.1907        0.668585 
        2.39916         2.18313        0.664404 
        2.40529         2.17496        0.660259 
        2.41143         2.16568        0.656146 
        2.41757         2.15806        0.652067 
         2.4237         2.15207         0.64803 
        2.42983         2.13659        0.644028 
        2.43598         2.13494        0.640049 
        2.44211         2.12276         0.63611 
        2.44823         2.11844        0.632214 
        2.45437         2.10833        0.628339 
        2.46052         2.10409        0.624494 
        2.46665         2.09523        0.620688 
        2.47279         2.08507        0.616915 
        2.47892         2.07913        0.613171 
        2.48507         2.07169        0.609455 
         2.4912         2.05775        0.605777 
