# k  (h/Mpc)    P(k)  (Mpc/h)^3    P_linear(k)  (Mpc/h)^3
     0.00783031         13859.5         14091.6 
       0.013688         17547.5         17426.6 
       0.019231         17722.3         17719.8 
      0.0249154         16128.3           16484 
      0.0312784         14246.9         14423.5 
      0.0375637         12436.7         12464.5 
      0.0433917         10805.6         11026.3 
      0.0492413         9876.21         9979.85 
      0.0555754         8863.09         9172.37 
      0.0619321         8491.55         8518.03 
       0.067871         7663.29         7908.65 
      0.0738098         7020.43         7239.06 
      0.0800417         6228.35         6486.04 
      0.0862327         5612.25         5753.55 
      0.0921407         5112.14         5137.35 
      0.0982031         4590.19         4631.78 
       0.104506         4338.41         4247.57 
       0.110769         4046.85          3978.7 
       0.116806         3822.04         3779.78 
       0.122832         3642.83         3594.86 
       0.129052         3366.55         3385.61 
       0.135211         3162.56         3150.01 
       0.141259         2996.17         2902.39 
       0.147318         2802.28         2660.26 
       0.153489         2564.83         2441.82 
       0.159709         2431.15         2263.71 
       0.165845         2350.48         2130.17 
       0.171974         2230.09         2029.34 
       0.178125         2129.65         1946.11 
       0.184229         2042.63          1866.8 
        0.19034         1923.78         1780.88 
       0.196428         1878.92         1685.93 
       0.202534         1801.53         1584.84 
       0.208729          1713.2         1483.63 
       0.214876         1637.45         1391.99 
       0.220989         1583.33          1314.2 
       0.227147         1516.22         1250.19 
        0.23329         1460.15         1198.13 
       0.239377         1438.59         1153.76 
       0.245482         1349.14          1111.7 
       0.251667         1341.12         1068.03 
       0.257832         1287.68         1022.03 
       0.263955         1244.33          974.59 
       0.270079         1201.04         927.446 
        0.27624         1187.22          882.78 
       0.282372         1137.35         842.776 
        0.28843         1128.09         808.292 
       0.294538         1072.26         778.046 
       0.300721         1067.98         750.778 
        0.30691          1024.4         725.243 
       0.313033          1004.9          700.43 
       0.319153         986.266         675.371 
       0.325316         954.239         649.873 
        0.33145         931.996         624.733 
       0.337538         917.099         600.743 
       0.343633         894.707         578.271 
       0.349808         864.667          557.47 
       0.355968         859.445         538.586 
       0.362074         849.933         521.433 
       0.368217         824.331         505.231 
       0.374374         791.794         489.587 
       0.380519         792.546         474.284 
       0.386598         771.296         459.295 
       0.392688         768.811         444.553 
        0.39888         746.486         430.015 
       0.405048         735.675         416.178 
       0.411186         725.368         403.215 
       0.417313         710.586         391.093 
       0.423458         698.526         379.672 
       0.429607         688.882         368.869 
       0.435692         673.661          358.63 
       0.441815         668.841         348.632 
       0.447964         654.937          338.85 
       0.454126         646.359         329.298 
       0.460267         632.447         320.042 
       0.466387         625.678         311.141 
        0.47254         617.839         302.575 
       0.478662          614.42         294.447 
       0.484765         595.803         286.713 
       0.490885         591.777         279.302 
       0.497035         580.264         272.156 
       0.503198         575.336         265.247 
       0.509342         570.177         258.563 
       0.515458         566.261         252.095 
       0.521598         552.591         245.796 
       0.527764         542.369         239.674 
       0.533884         540.975         233.802 
           0.54         534.452         228.143 
       0.546137         531.472         222.673 
       0.552299         522.675         217.388 
       0.558452         520.021         212.303 
       0.564573         512.828         207.412 
       0.570708         506.427         202.659 
       0.576825         493.396         198.056 
       0.582926         494.567           193.6 
       0.589034         490.214         189.272 
       0.595184         485.679         185.048 
       0.601379         479.085         180.927 
       0.607522         472.596         176.968 
       0.613639         472.022         173.148 
       0.619772         460.908         169.436 
       0.625918         459.625          165.83 
       0.632068         453.013         162.331 
       0.638161         451.443         158.966 
         0.6443         443.533         155.672 
       0.650464         441.109         152.458 
       0.656582         438.696         149.355 
       0.662703         436.752         146.336 
       0.668861         429.255         143.384 
       0.675024         425.858         140.512 
       0.681124         422.961         137.749 
       0.687237          419.17         135.057 
       0.693381         413.786         132.427 
       0.699536         408.632         129.864 
       0.705665         406.846         127.381 
       0.711789         404.594         124.965 
       0.717957         401.113         122.596 
        0.72409         398.487           120.3 
       0.730186         393.521         118.077 
       0.736317         390.355         115.899 
       0.742472         388.842         113.767 
       0.748622         384.446         111.691 
        0.75476         380.009         109.672 
       0.760888         376.296         107.707 
       0.767043         377.052         105.782 
       0.773185         372.432         103.909 
       0.779291         367.645         102.093 
       0.785407         366.263         100.317 
       0.791564         361.866         98.5735 
       0.797719         359.713         96.8723 
       0.803834         356.663         95.2223 
       0.809972         355.654          93.605 
       0.816124         354.972          92.022 
       0.822261         349.939         90.4802 
       0.828378         347.722         88.9785 
       0.834502         345.119         87.5099 
       0.840667         341.866         86.0653 
       0.846816         340.323         84.6575 
       0.852925          337.96         83.2904 
       0.859047         336.247         81.9508 
       0.865192         332.488         80.6365 
       0.871341         330.013         79.3503 
       0.877463         328.908         78.0983 
       0.883569          326.93         76.8766 
       0.889708         323.997          75.675 
       0.895864         321.448         74.4962 
       0.902008         319.633         73.3451 
       0.908149         317.332         72.2192 
       0.914301         314.089         71.1152 
       0.920448         312.356         70.0354 
       0.926574         308.835          68.982 
       0.932687         309.404         67.9526 
       0.938823         305.885         66.9407 
       0.944975         305.401         65.9471 
       0.951105         302.653         64.9774 
       0.957225         300.541         64.0289 
       0.963368         297.039         63.0962 
       0.969511         296.034         62.1822 
       0.975621         293.637         61.2912 
       0.981748          293.45         60.4155 
       0.987916         291.261         59.5515 
        0.99406         286.926         58.7077 
        1.00019         286.789          57.882 
        1.00632         285.162          57.073 
        1.01246         282.827         56.2783 
        1.01859          283.35         55.5002 
        1.02471         279.062         54.7378 
        1.03085         277.219         53.9871 
        1.03698          276.41         53.2522 
        1.04314         273.726         52.5279 
        1.04929         271.919         51.8188 
        1.05541         272.417         51.1258 
        1.06154         268.163         50.4437 
        1.06769         267.721         49.7732 
        1.07382          266.02         49.1171 
        1.07993         264.106         48.4744 
        1.08607         263.458         47.8406 
        1.09222         261.408         47.2176 
        1.09836         259.577         46.6064 
        1.10449         257.004         46.0069 
        1.11063         254.976         45.4172 
        1.11677         254.741         44.8382 
         1.1229         252.962         44.2703 
        1.12903         251.481         43.7118 
        1.13518         249.843         43.1625 
        1.14131         248.045          42.623 
        1.14745          247.83         42.0931 
        1.15359         245.657         41.5721 
        1.15973         244.122         41.0597 
        1.16584          242.33         40.5584 
        1.17197         242.238         40.0647 
        1.17811         239.557         39.5777 
        1.18424         238.209         39.1002 
        1.19038         237.533         38.6293 
        1.19652         235.678         38.1664 
        1.20267         235.307          37.711 
        1.20881         233.138         37.2632 
        1.21495         231.839         36.8233 
        1.22108         230.553         36.3907 
         1.2272         228.938          35.966 
        1.23334         228.018         35.5472 
        1.23949         226.618          35.134 
        1.24562         225.641         34.7286 
        1.25174         223.723         34.3303 
        1.25789         222.244          33.937 
        1.26402           220.8         33.5505 
        1.27014         219.536         33.1711 
        1.27628         218.553         32.7964 
        1.28244         218.386         32.4268 
        1.28858         215.997         32.0634 
        1.29471         214.443         31.7064 
        1.30084         213.727         31.3551 
        1.30697         212.225         31.0087 
        1.31312          210.58         30.6671 
        1.31925         210.206         30.3317 
        1.32537         209.189         30.0016 
        1.33151         207.144         29.6753 
        1.33765         206.002         29.3541 
        1.34378         205.315         29.0383 
        1.34992         204.344         28.7269 
        1.35606         204.308         28.4194 
         1.3622         202.293          28.117 
        1.36833         200.274         27.8197 
        1.37445         199.617         27.5268 
        1.38059         198.164         27.2373 
        1.38675         197.518         26.9513 
        1.39288         196.311         26.6705 
        1.39901          196.06         26.3939 
        1.40515         194.045         26.1206 
         1.4113         193.031         25.8512 
        1.41742          191.83         25.5867 
        1.42355         190.773         25.3254 
         1.4297         189.599          25.067 
        1.43585         188.674         24.8123 
        1.44198           187.7         24.5621 
        1.44809             187         24.3158 
        1.45423         185.845         24.0721 
        1.46036         184.819         23.8321 
        1.46649         183.465         23.5953 
        1.47263         182.355         23.3615 
        1.47877         181.583          23.131 
        1.48491         179.932         22.9032 
        1.49104         179.812         22.6791 
        1.49718         177.922         22.4577 
        1.50333          177.39          22.239 
        1.50947         176.661         22.0236 
         1.5156         175.241         21.8114 
        1.52172         174.461          21.602 
        1.52787         173.048         21.3949 
          1.534          172.73         21.1908 
        1.54013         171.486         20.9896 
        1.54627         170.622         20.7906 
        1.55241         169.537         20.5942 
        1.55855         168.655         20.4006 
        1.56467         167.514         20.2101 
         1.5708         166.902         20.0214 
        1.57695         165.967         19.8349 
        1.58308          165.23         19.6511 
        1.58922         164.221         19.4696 
        1.59535         162.939         19.2904 
         1.6015         162.632         19.1133 
        1.60764          161.52         18.9384 
        1.61376         160.524         18.7663 
        1.61989          159.68         18.5961 
        1.62604         158.719         18.4277 
        1.63218         158.147         18.2614 
        1.63831         157.025         18.0976 
        1.64444         156.503         17.9358 
        1.65059         155.529         17.7755 
        1.65673         154.256         17.6174 
        1.66285         153.976         17.4617 
        1.66898         152.835         17.3077 
        1.67512         152.605         17.1554 
        1.68127         151.089         17.0047 
         1.6874         150.084         16.8562 
        1.69353         149.839         16.7096 
        1.69967         148.746         16.5643 
        1.70581         148.047         16.4209 
        1.71193         147.063         16.2796 
        1.71806         146.621         16.1398 
        1.72421         145.649         16.0013 
        1.73035         145.467         15.8646 
        1.73649         144.442         15.7295 
        1.74262          143.35         15.5961 
        1.74876         142.883         15.4642 
        1.75489         141.777         15.3341 
        1.76101         140.992         15.2055 
        1.76715         140.517         15.0782 
        1.77329         140.151         14.9522 
        1.77943         138.869         14.8276 
        1.78557         138.367         14.7046 
        1.79171         137.568         14.5829 
        1.79785         136.656         14.4627 
        1.80399         135.986         14.3438 
        1.81012         135.304         14.2264 
        1.81625         134.681         14.1104 
        1.82239         134.146         13.9955 
        1.82853         133.368         13.8819 
        1.83466         132.498         13.7697 
        1.84078         132.049         13.6588 
        1.84692         130.878          13.549 
        1.85306         130.727         13.4403 
         1.8592         129.746          13.333 
        1.86533         128.849         13.2268 
        1.87147         128.244         13.1217 
        1.87761           127.7         13.0177 
        1.88375         126.646          12.915 
        1.88988         126.243         12.8134 
        1.89601         125.474          12.713 
        1.90215         124.928         12.6135 
        1.90829         124.337         12.5151 
        1.91442           123.7         12.4177 
        1.92056          122.93         12.3215 
         1.9267         122.564         12.2262 
        1.93284         121.866         12.1319 
        1.93897         121.048         12.0387 
        1.94509         120.599         11.9467 
        1.95123         119.952         11.8555 
        1.95737         119.437         11.7651 
        1.96349         118.725         11.6759 
        1.96964         117.748         11.5874 
        1.97578         117.158         11.4997 
        1.98192          116.97         11.4132 
        1.98805         115.951         11.3275 
        1.99419         115.647         11.2427 
        2.00033         114.907         11.1587 
        2.00647         114.502         11.0756 
         2.0126         113.644         10.9935 
        2.01874         113.094         10.9121 
        2.02488         112.655         10.8314 
        2.03101          111.83         10.7517 
        2.03714         111.273         10.6729 
        2.04328         110.851         10.5948 
        2.04941         110.183         10.5175 
        2.05554         109.497         10.4411 
        2.06167         109.199         10.3653 
        2.06781         108.467         10.2903 
        2.07396         107.857         10.2159 
        2.08009         107.465         10.1423 
        2.08622         106.902         10.0696 
        2.09237         106.157         9.99746 
        2.09851         105.736         9.92599 
        2.10464         105.224         9.85534 
        2.11077         104.843         9.78547 
        2.11691         104.342         9.71611 
        2.12305         103.424         9.64743 
        2.12918           102.9         9.57957 
        2.13531         102.592         9.51236 
        2.14145         101.742         9.44564 
         2.1476         101.186         9.37948 
        2.15372         100.925         9.31429 
        2.15985         100.506         9.24965 
        2.16599         99.8785         9.18544 
        2.17213         99.2654         9.12191 
        2.17827         98.9323         9.05899 
         2.1844         98.2257         8.99673 
        2.19054         97.9765         8.93502 
        2.19666         97.4646         8.87399 
         2.2028         96.9514         8.81347 
        2.20893         96.4288         8.75348 
        2.21508         95.8639         8.69399 
        2.22122         95.3785         8.63503 
        2.22736         95.0151         8.57674 
        2.23349         94.5636           8.519 
        2.23962         93.9658         8.46176 
        2.24577         93.6341           8.405 
         2.2519         93.2218         8.34884 
        2.25802         92.4524         8.29328 
        2.26417         92.1417         8.23807 
        2.27031         91.7137         8.18331 
        2.27644         91.1508         8.12921 
        2.28257         90.6348          8.0756 
        2.28872         90.2797         8.02237 
        2.29486         89.6754         7.96963 
        2.30099         89.3474         7.91748 
        2.30712         88.9833         7.86576 
        2.31326         88.4824         7.81443 
         2.3194         87.9464         7.76358 
        2.32553         87.6243         7.71326 
        2.33166         87.1237         7.66342 
         2.3378         86.6081         7.61395 
        2.34394          86.222         7.56489 
        2.35007         85.8062         7.51634 
        2.35619         85.4343         7.46828 
        2.36233         84.9294         7.42052 
        2.36848         84.4357         7.37308 
        2.37462          84.005         7.32616 
        2.38075         83.7597         7.27968 
        2.38689         83.2353         7.23358 
        2.39303         82.7265         7.18788 
        2.39916         82.3653         7.14262 
        2.40529         82.1276         7.09776 
        2.41143         81.5414         7.05324 
        2.41757         81.2748         7.00909 
         2.4237         80.8979          6.9654 
        2.42983         80.3618         6.92209 
        2.43598         80.0355         6.87903 
        2.44211         79.7538          6.8364 
        2.44823         79.2844         6.79423 
        2.45437         78.6936         6.75231 
        2.46052         78.3721          6.7107 
        2.46665         78.1359         6.66951 
        2.47279         77.6723         6.62868 
        2.47892         77.3424         6.58817 
        2.48507         76.8283         6.54796 
         2.4912         76.5571         6.50816 
