# k  (h/Mpc)    P(k)  (Mpc/h)^3    P_linear(k)  (Mpc/h)^3
     0.00783031         16361.1         16540.6 
       0.013688         18569.3         19107.7 
       0.019231           17886         18181.1 
      0.0249154         15859.4         15800.6 
      0.0312784         12775.4         12865.8 
      0.0375637         10348.4         10487.2 
      0.0433917         8935.89         8947.82 
      0.0492413         7889.06         7954.96 
      0.0555754         7267.66         7270.12 
      0.0619321         6527.17         6731.55 
       0.067871         6102.23         6194.46 
      0.0738098          5543.6         5567.25 
      0.0800417         4871.77         4851.96 
      0.0862327          4195.5         4175.22 
      0.0921407         3707.09          3637.6 
      0.0982031         3351.99          3231.3 
       0.104506         3013.85          2955.1 
       0.110769         2850.56         2784.05 
       0.116806         2755.78          2662.2 
       0.122832         2595.37         2535.68 
       0.129052         2428.15         2372.06 
       0.135211         2299.61         2175.85 
       0.141259          2076.1         1969.46 
       0.147318         1883.22            1775 
       0.153489         1745.04         1610.25 
       0.159709         1664.33         1486.73 
       0.165845         1532.62         1402.47 
       0.171974         1505.33         1343.07 
       0.178125         1455.98         1292.91 
       0.184229          1348.7          1239.7 
        0.19034         1316.74         1176.41 
       0.196428         1263.93         1103.88 
       0.202534         1168.33         1027.39 
       0.208729         1137.95         953.603 
       0.214876         1076.81         890.209 
       0.220989         1015.37         839.439 
       0.227147         988.601         799.735 
        0.23329         950.226         768.103 
       0.239377         942.739         740.298 
       0.245482          893.86         712.289 
       0.251667         859.949         681.734 
       0.257832         843.606         648.966 
       0.263955         798.627         615.611 
       0.270079         769.368         583.459 
        0.27624         736.864         554.079 
       0.282372         723.333         528.709 
        0.28843         712.804         507.288 
       0.294538         677.228         488.553 
       0.300721          661.22         471.272 
        0.30691         646.209         454.563 
       0.313033         617.767         437.887 
       0.319153         609.245          420.95 
       0.325316         599.201         403.883 
        0.33145         583.847         387.424 
       0.337538           562.2         372.067 
       0.343633         547.565         357.998 
       0.349808         534.277         345.073 
       0.355968         524.375         333.345 
       0.362074         504.824         322.529 
       0.368217         502.417         312.133 
       0.374374         494.084         301.978 
       0.380519         474.028          291.98 
       0.386598          469.36         282.281 
       0.392688         457.328         272.852 
        0.39888          446.16         263.682 
       0.405048          436.33         255.079 
       0.411186         435.687         247.052 
       0.417313         429.995         239.532 
       0.423458         417.975         232.413 
       0.429607         405.398         225.606 
       0.435692         400.233           219.1 
       0.441815         392.706         212.749 
       0.447964         384.986         206.551 
       0.454126           380.7         200.531 
       0.460267         374.365         194.756 
       0.466387         366.364         189.249 
        0.47254         361.962         183.962 
       0.478662         354.488         178.943 
       0.484765         349.384         174.163 
       0.490885         346.167         169.565 
       0.497035         338.508         165.108 
       0.503198         338.011         160.788 
       0.509342         330.605         156.618 
       0.515458         324.266         152.603 
       0.521598         320.258         148.706 
       0.527764         315.101         144.929 
       0.533884         312.315         141.317 
           0.54         308.495         137.845 
       0.546137         301.962          134.49 
       0.552299         300.569         131.241 
       0.558452         295.459         128.106 
       0.564573         293.902         125.086 
       0.570708           288.6         122.155 
       0.576825         283.599         119.325 
       0.582926         282.243         116.591 
       0.589034         277.048         113.938 
       0.595184         275.294         111.351 
       0.601379         270.952         108.829 
       0.607522          265.03         106.409 
       0.613639         264.382         104.075 
       0.619772         263.268         101.809 
       0.625918         258.184         99.6068 
       0.632068         255.711         97.4689 
       0.638161         254.137          95.412 
         0.6443         250.199         93.3992 
       0.650464         247.423          91.437 
       0.656582         244.819         89.5457 
       0.662703         243.802         87.7082 
       0.668861         238.758         85.9133 
       0.675024         237.976         84.1684 
       0.681124         234.346         82.4905 
       0.687237         233.271         80.8557 
       0.693381         229.349         79.2581 
       0.699536          228.71         77.7011 
       0.705665         225.994         76.1928 
       0.711789         223.412         74.7263 
       0.717957          221.77         73.2886 
        0.72409          218.61         71.8971 
       0.730186         219.762         70.5507 
       0.736317         216.228         69.2319 
       0.742472         213.936         67.9424 
       0.748622         211.818         66.6875 
        0.75476         211.237         65.4674 
       0.760888          208.58         64.2801 
       0.767043         205.799         63.1178 
       0.773185         204.181         61.9869 
       0.779291         202.383         60.8904 
       0.785407         201.177         59.8191 
       0.791564         199.616          58.767 
       0.797719          196.28          57.741 
       0.803834         197.253         56.7463 
       0.809972         194.646         55.7716 
       0.816124         191.708          54.818 
       0.822261         190.661         53.8894 
       0.828378         189.866         52.9853 
       0.834502          187.68         52.1015 
       0.840667         187.654         51.2322 
       0.846816         184.031         50.3855 
       0.852925         184.012         49.5634 
       0.859047         182.076         48.7581 
       0.865192         181.552         47.9682 
       0.871341         179.546         47.1954 
       0.877463         177.942         46.4433 
       0.883569         177.605         45.7096 
       0.889708         176.066         44.9882 
       0.895864         173.916         44.2806 
       0.902008         172.603         43.5899 
       0.908149          171.14         42.9144 
       0.914301         170.015         42.2523 
       0.920448         169.606         41.6049 
       0.926574         167.608         40.9735 
       0.932687         167.482         40.3566 
       0.938823         165.809         39.7503 
       0.944975         165.316         39.1552 
       0.951105         163.395         38.5746 
       0.957225          162.22         38.0068 
       0.963368         161.948         37.4486 
       0.969511         159.813         36.9017 
       0.975621         157.914         36.3688 
       0.981748         157.831         35.8451 
       0.987916         156.953         35.3286 
        0.99406         155.692         34.8242 
        1.00019           154.9         34.3308 
        1.00632         153.738         33.8475 
        1.01246          152.75         33.3728 
        1.01859         151.368         32.9081 
        1.02471          150.35         32.4528 
        1.03085         149.422         32.0047 
        1.03698          148.76         31.5661 
        1.04314         148.165         31.1339 
        1.04929         147.244         30.7108 
        1.05541         146.645         30.2974 
        1.06154         145.083         29.8906 
        1.06769          144.32         29.4907 
        1.07382         143.291         29.0995 
        1.07993         142.336         28.7163 
        1.08607         142.109         28.3385 
        1.09222         140.569         27.9672 
        1.09836         139.928         27.6029 
        1.10449         139.137         27.2457 
        1.11063          137.93         26.8944 
        1.11677         137.363         26.5494 
         1.1229         136.455         26.2112 
        1.12903         135.263         25.8786 
        1.13518           134.6         25.5515 
        1.14131         134.262         25.2303 
        1.14745         132.995         24.9149 
        1.15359         132.217         24.6048 
        1.15973         131.672         24.2999 
        1.16584         130.778         24.0016 
        1.17197         130.268         23.7079 
        1.17811         129.162         23.4182 
        1.18424          128.49         23.1343 
        1.19038         127.818         22.8543 
        1.19652          126.89          22.579 
        1.20267         126.061         22.3084 
        1.20881         125.235         22.0422 
        1.21495         125.163         21.7809 
        1.22108         124.038         21.5238 
         1.2272         123.563         21.2716 
        1.23334         122.662         21.0228 
        1.23949         122.171         20.7774 
        1.24562         121.237         20.5367 
        1.25174         121.114         20.3002 
        1.25789          119.98         20.0667 
        1.26402           119.5         19.8373 
        1.27014         118.663         19.6121 
        1.27628         118.213         19.3897 
        1.28244         117.511         19.1704 
        1.28858          116.83         18.9547 
        1.29471         115.942         18.7429 
        1.30084         115.305         18.5346 
        1.30697          114.57         18.3291 
        1.31312         114.182         18.1264 
        1.31925         113.158         17.9275 
        1.32537         112.752         17.7318 
        1.33151         112.386         17.5382 
        1.33765         111.598         17.3478 
        1.34378         111.345         17.1605 
        1.34992         110.477         16.9759 
        1.35606         110.124         16.7936 
         1.3622         109.521         16.6143 
        1.36833         108.704         16.4381 
        1.37445         108.413         16.2645 
        1.38059         107.631         16.0929 
        1.38675         107.089         15.9234 
        1.39288          106.43         15.7571 
        1.39901         105.802         15.5932 
        1.40515         105.418         15.4313 
         1.4113         104.798         15.2717 
        1.41742         104.492         15.1151 
        1.42355         103.892         14.9603 
         1.4297          103.21         14.8073 
        1.43585         102.772         14.6565 
        1.44198         101.984         14.5083 
        1.44809         101.628         14.3625 
        1.45423         101.345         14.2182 
        1.46036         100.341         14.0762 
        1.46649         99.9102          13.936 
        1.47263         99.3284         13.7977 
        1.47877         98.9882         13.6613 
        1.48491         98.4653         13.5265 
        1.49104          97.773         13.3939 
        1.49718         97.3445         13.2629 
        1.50333         96.7928         13.1335 
        1.50947         96.6357         13.0061 
         1.5156         95.9258         12.8806 
        1.52172         95.2307         12.7567 
        1.52787         95.0599         12.6343 
          1.534         94.5204         12.5136 
        1.54013         93.9166         12.3946 
        1.54627          93.414         12.2769 
        1.55241         93.2022         12.1607 
        1.55855         92.4484         12.0463 
        1.56467         92.0163         11.9336 
         1.5708         91.2129          11.822 
        1.57695         91.2133         11.7117 
        1.58308         90.5957         11.6031 
        1.58922          90.222         11.4958 
        1.59535         90.1106         11.3899 
         1.6015         89.3065         11.2852 
        1.60764         88.8228         11.1819 
        1.61376         88.6614         11.0801 
        1.61989         88.0672         10.9795 
        1.62604         87.6303           10.88 
        1.63218         87.0998         10.7818 
        1.63831         86.7081          10.685 
        1.64444         86.1689         10.5893 
        1.65059         85.7649         10.4947 
        1.65673         85.6691         10.4012 
        1.66285         85.1739         10.3092 
        1.66898         84.4447         10.2183 
        1.67512         83.9528         10.1283 
        1.68127         83.8076         10.0393 
         1.6874         83.3356         9.95158 
        1.69353         82.8512         9.86497 
        1.69967         82.3748         9.77919 
        1.70581         82.1276         9.69447 
        1.71193         81.6833         9.61107 
        1.71806         81.2272         9.52849 
        1.72421         80.7729         9.44672 
        1.73035          80.384           9.366 
        1.73649         80.0727         9.28625 
        1.74262         79.6277         9.20749 
        1.74876         79.0956          9.1296 
        1.75489         78.9819         9.05277 
        1.76101         78.6647         8.97686 
        1.76715         78.0987         8.90171 
        1.77329          77.682         8.82733 
        1.77943         77.3785         8.75377 
        1.78557         77.1248         8.68117 
        1.79171         76.5622         8.60937 
        1.79785         76.1888         8.53838 
        1.80399         75.9505          8.4682 
        1.81012         75.3634         8.39892 
        1.81625         75.0788         8.33044 
        1.82239         74.6498         8.26262 
        1.82853         74.3386          8.1956 
        1.83466         73.9291         8.12938 
        1.84078         73.6647         8.06397 
        1.84692         73.4013         7.99918 
        1.85306         73.2263         7.93503 
         1.8592          72.753         7.87168 
        1.86533         72.2654         7.80906 
        1.87147         71.9345         7.74705 
        1.87761         71.3327         7.68569 
        1.88375         71.2753         7.62508 
        1.88988         70.8001         7.56518 
        1.89601         70.6764         7.50589 
        1.90215         70.2763          7.4472 
        1.90829         69.7556         7.38917 
        1.91442         69.3586         7.33175 
        1.92056          69.203         7.27499 
         1.9267         68.8694         7.21878 
        1.93284         68.7165         7.16313 
        1.93897         68.1643         7.10818 
        1.94509         67.9217         7.05392 
        1.95123         67.5532          7.0001 
        1.95737         67.3269          6.9468 
        1.96349         67.0945          6.8942 
        1.96964         66.7168         6.84198 
        1.97578         66.2679         6.79029 
        1.98192         65.8876         6.73924 
        1.98805         65.5695         6.68872 
        1.99419         65.5638          6.6387 
        2.00033         64.9979         6.58918 
        2.00647         64.6083         6.54018 
         2.0126          64.487         6.49176 
        2.01874         64.2757         6.44376 
        2.02488         63.9203          6.3962 
        2.03101         63.4693         6.34922 
        2.03714         63.2549         6.30275 
        2.04328         63.0675         6.25669 
        2.04941         62.6883         6.21113 
        2.05554         62.3048         6.16606 
        2.06167         61.9925         6.12138 
        2.06781         61.7638         6.07714 
        2.07396         61.3639         6.03327 
        2.08009         61.2305         5.98991 
        2.08622         60.8127         5.94703 
        2.09237          60.624         5.90448 
        2.09851         60.2209         5.86235 
        2.10464         59.9405          5.8207 
        2.11077         59.7928          5.7795 
        2.11691         59.5091         5.73862 
        2.12305         59.1343         5.69812 
        2.12918         58.8487         5.65812 
        2.13531         58.6543          5.6185 
        2.14145         58.2888         5.57917 
         2.1476         58.2229         5.54017 
        2.15372          57.727         5.50174 
        2.15985         57.5271         5.46364 
        2.16599         57.3191         5.42579 
        2.17213          56.989         5.38835 
        2.17827         56.5761         5.35126 
         2.1844         56.4319         5.31456 
        2.19054         56.2652         5.27819 
        2.19666         55.9607         5.24222 
         2.2028         55.7191         5.20655 
        2.20893         55.3545         5.17119 
        2.21508          55.139         5.13612 
        2.22122         54.7829         5.10137 
        2.22736         54.5498         5.06701 
        2.23349         54.3541         5.03298 
        2.23962          54.164         4.99925 
        2.24577         53.8784         4.96579 
         2.2519         53.5916         4.93269 
        2.25802         53.3469         4.89995 
        2.26417         53.1602         4.86741 
        2.27031         52.9447         4.83514 
        2.27644         52.5188         4.80325 
        2.28257         52.4154         4.77166 
        2.28872         52.0944         4.74029 
        2.29486          51.937         4.70921 
        2.30099         51.5914         4.67848 
        2.30712            51.4           4.648 
        2.31326         51.1788         4.61775 
         2.3194          50.958         4.58779 
        2.32553         50.6668         4.55814 
        2.33166         50.4912         4.52876 
         2.3378         50.2226         4.49961 
        2.34394         50.0196         4.47071 
        2.35007         49.7733         4.44209 
        2.35619         49.5851         4.41377 
        2.36233         49.3987         4.38563 
        2.36848         49.0791         4.35767 
        2.37462         48.8551         4.33002 
        2.38075         48.5795         4.30263 
        2.38689         48.3701         4.27546 
        2.39303         48.2681         4.24853 
        2.39916         47.9804         4.22186 
        2.40529         47.8367         4.19542 
        2.41143         47.6259         4.16919 
        2.41757          47.331         4.14317 
         2.4237         47.1966         4.11743 
        2.42983         46.9564          4.0919 
        2.43598         46.7661         4.06653 
        2.44211          46.485         4.04141 
        2.44823         46.3589         4.01656 
        2.45437          46.007         3.99186 
        2.46052         45.8448         3.96734 
        2.46665         45.5894         3.94307 
        2.47279         45.4264         3.91901 
        2.47892         45.2254         3.89514 
        2.48507         45.0461         3.87144 
         2.4912         44.7974         3.84799 
