# k  (h/Mpc)    Pcb(k)  (Mpc/h)^3    Pcb_linear(k)  (Mpc/h)^3
     0.00783031         4626.49         4666.13 
       0.013688         5080.78         5159.09 
       0.019231         4645.83         4677.42 
      0.0249154         3840.53         3821.32 
      0.0312784         2873.63          2866.1 
      0.0375637         2150.37         2151.08 
      0.0433917         1740.19         1728.67 
      0.0492413         1494.61         1491.85 
      0.0555754         1378.92         1367.38 
      0.0619321         1283.12         1297.11 
       0.067871         1220.98         1221.83 
      0.0738098         1110.49         1109.23 
      0.0800417          961.33         954.972 
      0.0862327         796.815         792.337 
      0.0921407         663.876         656.435 
      0.0982031         566.525         553.544 
       0.104506          494.55         488.713 
       0.110769         465.046         458.409 
       0.116806         457.072         447.889 
       0.122832         445.238         441.283 
       0.129052         431.104         426.276 
       0.135211         405.572         397.496 
       0.141259         363.836         357.876 
       0.147318         319.359         314.082 
       0.153489         281.646          273.42 
       0.159709         253.414          242.09 
       0.165845         229.668         222.299 
       0.171974         223.751         211.948 
       0.178125         217.402          207.42 
       0.184229         211.063         204.474 
        0.19034         207.232          199.41 
       0.196428          198.32         190.307 
       0.202534         182.021         177.274 
       0.208729         170.947         161.943 
       0.214876          157.96         147.107 
       0.220989         143.781         134.703 
       0.227147         136.966         125.538 
        0.23329         130.799         119.621 
       0.239377          127.78         116.051 
       0.245482         123.415         113.492 
       0.251667         119.044         110.702 
       0.257832         117.169          106.88 
       0.263955         110.129         101.832 
       0.270079          104.12         95.9072 
        0.27624          98.203         89.7404 
       0.282372         93.3362         84.0922 
        0.28843         90.5358         79.4504 
       0.294538         86.0638          75.843 
       0.300721         82.4616         73.1465 
        0.30691         81.0048          71.035 
       0.313033         78.0352         69.1305 
       0.319153         76.6588         67.0659 
       0.325316         73.5015          64.669 
        0.33145         70.5486         61.9651 
       0.337538         67.6874          59.138 
       0.343633         65.3421         56.3631 
       0.349808         62.7049         53.8027 
       0.355968         60.5821         51.6067 
       0.362074          59.223         49.7854 
       0.368217         57.4696          48.243 
       0.374374         56.0088         46.8581 
       0.380519         53.7873         45.5235 
       0.386598         52.3366         44.1618 
       0.392688         50.5474         42.7197 
        0.39888         49.5535         41.2022 
       0.405048         48.1634         39.6851 
       0.411186         46.7155         38.2348 
       0.417313         45.2684         36.9019 
       0.423458          43.871         35.6933 
       0.429607         42.9897         34.6099 
       0.435692         42.2889         33.6376 
       0.441815         40.6747         32.7158 
       0.447964           39.39         31.8114 
       0.454126         38.6641         30.9102 
       0.460267         38.1919         30.0071 
       0.466387          37.017         29.1069 
        0.47254         36.4373         28.2221 
       0.478662         35.1395         27.3811 
       0.484765         34.3563           26.59 
       0.490885         33.3118         25.8471 
       0.497035         32.8304         25.1509 
       0.503198         32.1291         24.4954 
       0.509342         31.1932         23.8685 
       0.515458          30.679         23.2599 
       0.521598         29.9054         22.6599 
       0.527764         29.4465         22.0693 
       0.533884         28.8809         21.4957 
           0.54         28.2007         20.9376 
       0.546137         27.3662         20.3971 
       0.552299         26.8083         19.8783 
       0.558452         26.1984         19.3866 
       0.564573         25.9513         18.9201 
       0.570708         25.2678         18.4709 
       0.576825         24.9171         18.0375 
       0.582926         24.4676         17.6171 
       0.589034         23.9341         17.2076 
       0.595184         23.6205         16.8065 
       0.601379          22.997         16.4136 
       0.607522          22.503         16.0351 
       0.613639         22.2099         15.6697 
       0.619772         21.7452         15.3153 
       0.625918         21.3836         14.9727 
       0.632068         21.1145         14.6424 
       0.638161         20.6767         14.3265 
         0.6443         20.3758         14.0185 
       0.650464         19.8303         13.7183 
       0.656582         19.7124         13.4283 
       0.662703         19.3796         13.1454 
       0.668861         18.9029         12.8682 
       0.675024         18.6455         12.5984 
       0.681124         18.5328          12.339 
       0.687237         18.1504         12.0869 
       0.693381         17.7477         11.8413 
       0.699536          17.631         11.6026 
       0.705665         17.2701          11.372 
       0.711789         17.0043          11.148 
       0.717957         16.6448         10.9285 
        0.72409         16.4592          10.716 
       0.730186         16.3547         10.5101 
       0.736317         16.0004         10.3084 
       0.742472         15.8209         10.1112 
       0.748622          15.557         9.91918 
        0.75476         15.1803         9.73264 
       0.760888         15.1374         9.55126 
       0.767043         14.8294         9.37394 
       0.773185         14.6248         9.20162 
       0.779291          14.464         9.03472 
       0.785407         14.2593         8.87181 
       0.791564         14.1442         8.71195 
       0.797719         13.7891         8.55615 
       0.803834         13.7517         8.40516 
       0.809972         13.4668         8.25726 
       0.816124         13.3311         8.11258 
       0.822261         13.1562         7.97175 
       0.828378         13.0205         7.83468 
       0.834502         12.8731         7.70072 
       0.840667         12.7078         7.56904 
       0.846816         12.4476         7.44081 
       0.852925         12.3979         7.31638 
       0.859047         12.2265         7.19455 
       0.865192         12.0584         7.07511 
       0.871341         11.9145         6.95833 
       0.877463         11.7532         6.84473 
       0.883569         11.6583         6.73397 
       0.889708         11.4711         6.62511 
       0.895864         11.3178          6.5184 
       0.902008         11.2089         6.41427 
       0.908149         11.0298         6.31249 
       0.914301         10.9454         6.21277 
       0.920448         10.8124          6.1153 
       0.926574         10.7362         6.02028 
       0.932687          10.557         5.92748 
       0.938823         10.4055         5.83633 
       0.944975         10.3498         5.74689 
       0.951105         10.2362         5.65965 
       0.957225         10.1412         5.57439 
       0.963368         9.98915          5.4906 
       0.969511         9.87699         5.40854 
       0.975621         9.79373          5.3286 
       0.981748         9.66024         5.25009 
       0.987916         9.59237         5.17267 
        0.99406         9.45617         5.09711 
        1.00019         9.38836         5.02322 
        1.00632         9.32574         4.95086 
        1.01246         9.18115         4.87984 
        1.01859         9.10337         4.81032 
        1.02471         8.99843         4.74225 
        1.03085         8.93804         4.67527 
        1.03698         8.86224         4.60973 
        1.04314         8.73582         4.54517 
        1.04929         8.63071         4.48201 
        1.05541         8.56704          4.4203 
        1.06154         8.48943          4.3596 
        1.06769         8.41488         4.29996 
        1.07382         8.30307         4.24163 
        1.07993         8.23288         4.18452 
        1.08607         8.16701         4.12823 
        1.09222         8.07105         4.07293 
        1.09836         8.00778          4.0187 
        1.10449         7.94135         3.96553 
        1.11063         7.88421         3.91326 
        1.11677         7.82766         3.86196 
         1.1229         7.73561         3.81167 
        1.12903         7.66414         3.76223 
        1.13518         7.58915         3.71364 
        1.14131          7.5372         3.66593 
        1.14745         7.42034         3.61908 
        1.15359         7.34757         3.57305 
        1.15973         7.30782         3.52781 
        1.16584         7.22743         3.48355 
        1.17197         7.15461         3.43999 
        1.17811         7.10907         3.39705 
        1.18424         7.05641         3.35497 
        1.19038         7.02517         3.31348 
        1.19652         6.92984         3.27271 
        1.20267         6.90136         3.23263 
        1.20881         6.80292         3.19323 
        1.21495         6.76311         3.15455 
        1.22108         6.70281         3.11652 
         1.2272         6.64392         3.07921 
        1.23334         6.61366         3.04243 
        1.23949         6.54752         3.00616 
        1.24562         6.48588         2.97059 
        1.25174         6.45635         2.93565 
        1.25789         6.38673         2.90116 
        1.26402         6.33383          2.8673 
        1.27014         6.30619         2.83405 
        1.27628         6.23478         2.80124 
        1.28244         6.20893         2.76888 
        1.28858         6.13964         2.73708 
        1.29471         6.07957         2.70585 
        1.30084         6.03642         2.67513 
        1.30697         6.00348         2.64485 
        1.31312         5.95962         2.61499 
        1.31925         5.92148         2.58569 
        1.32537         5.86225         2.55687 
        1.33151          5.8164         2.52838 
        1.33765         5.78188         2.50035 
        1.34378         5.75652          2.4728 
        1.34992         5.70334         2.44564 
        1.35606         5.64478         2.41883 
         1.3622         5.60394         2.39248 
        1.36833         5.58031         2.36658 
        1.37445         5.52994         2.34108 
        1.38059         5.47485         2.31588 
        1.38675         5.45317         2.29099 
        1.39288         5.41655         2.26656 
        1.39901         5.36122          2.2425 
        1.40515         5.33155         2.21874 
         1.4113         5.29443         2.19533 
        1.41742         5.26536         2.17235 
        1.42355         5.21408         2.14966 
         1.4297         5.17567         2.12722 
        1.43585         5.14993         2.10511 
        1.44198         5.12707         2.08341 
        1.44809         5.08411         2.06205 
        1.45423          5.0429         2.04091 
        1.46036         5.01373          2.0201 
        1.46649         4.98188         1.99958 
        1.47263         4.94555         1.97933 
        1.47877         4.90074         1.95937 
        1.48491         4.89177         1.93965 
        1.49104          4.8557         1.92025 
        1.49718         4.82417          1.9011 
        1.50333         4.79005         1.88218 
        1.50947          4.7588         1.86355 
         1.5156          4.7315          1.8452 
        1.52172         4.68777         1.82711 
        1.52787         4.68247         1.80922 
          1.534         4.63213         1.79159 
        1.54013         4.61848         1.77421 
        1.54627         4.57946         1.75703 
        1.55241         4.54076         1.74008 
        1.55855         4.52731         1.72338 
        1.56467          4.5138         1.70694 
         1.5708         4.46315         1.69067 
        1.57695         4.43553         1.67459 
        1.58308         4.41274         1.65875 
        1.58922         4.39134         1.64311 
        1.59535         4.37057         1.62768 
         1.6015         4.31814         1.61242 
        1.60764         4.29962         1.59737 
        1.61376         4.28046         1.58255 
        1.61989         4.25207          1.5679 
        1.62604         4.23757         1.55341 
        1.63218         4.20638         1.53911 
        1.63831         4.18205         1.52503 
        1.64444         4.15201         1.51111 
        1.65059         4.12628         1.49734 
        1.65673         4.11001         1.48375 
        1.66285         4.08299         1.47037 
        1.66898         4.07159         1.45715 
        1.67512         4.04494         1.44407 
        1.68127          4.0017         1.43113 
         1.6874         3.99457         1.41838 
        1.69353         3.95889          1.4058 
        1.69967         3.94446         1.39334 
        1.70581         3.91883         1.38104 
        1.71193          3.8942         1.36893 
        1.71806         3.87553         1.35694 
        1.72421         3.85177         1.34507 
        1.73035         3.84186         1.33336 
        1.73649         3.81951         1.32179 
        1.74262         3.78732         1.31036 
        1.74876         3.77582         1.29906 
        1.75489         3.75833         1.28792 
        1.76101         3.72158         1.27692 
        1.76715         3.72235         1.26602 
        1.77329         3.68965         1.25524 
        1.77943          3.6614         1.24459 
        1.78557         3.66031         1.23407 
        1.79171         3.63192         1.22367 
        1.79785         3.62033         1.21339 
        1.80399         3.60126         1.20323 
        1.81012         3.57522          1.1932 
        1.81625         3.55755         1.18329 
        1.82239         3.54091         1.17347 
        1.82853         3.51365         1.16378 
        1.83466         3.49305          1.1542 
        1.84078         3.47525         1.14474 
        1.84692         3.46213         1.13537 
        1.85306         3.44568         1.12609 
         1.8592         3.42919         1.11693 
        1.86533         3.41127         1.10788 
        1.87147         3.39894         1.09892 
        1.87761         3.37674         1.09005 
        1.88375         3.36281          1.0813 
        1.88988         3.34707         1.07264 
        1.89601         3.31827         1.06408 
        1.90215          3.3102         1.05561 
        1.90829          3.2997         1.04723 
        1.91442         3.28216         1.03894 
        1.92056         3.26795         1.03075 
         1.9267         3.24822         1.02263 
        1.93284         3.23021         1.01461 
        1.93897         3.21326         1.00668 
        1.94509          3.1837        0.998852 
        1.95123         3.18649        0.991089 
        1.95737         3.17186        0.983404 
        1.96349         3.15547        0.975819 
        1.96964         3.13148        0.968293 
        1.97578         3.11931        0.960843 
        1.98192         3.10564        0.953486 
        1.98805         3.09226        0.946206 
        1.99419         3.07822        0.939001 
        2.00033         3.05685        0.931867 
        2.00647         3.05373         0.92481 
         2.0126         3.03686        0.917837 
        2.01874         3.01838        0.910926 
        2.02488         3.01154         0.90408 
        2.03101         2.98944        0.897317 
        2.03714         2.97441         0.89063 
        2.04328         2.96358        0.884003 
        2.04941         2.94526        0.877449 
        2.05554         2.93659        0.870966 
        2.06167         2.92939         0.86454 
        2.06781          2.9128        0.858178 
        2.07396         2.89558        0.851871 
        2.08009         2.88525        0.845638 
        2.08622         2.87713        0.839475 
        2.09237         2.85993        0.833361 
        2.09851          2.8457        0.827307 
        2.10464         2.83716        0.821323 
        2.11077          2.8176        0.815406 
        2.11691         2.80927        0.809534 
        2.12305         2.80013        0.803719 
        2.12918         2.78488        0.797975 
        2.13531         2.77537        0.792287 
        2.14145         2.76069        0.786642 
         2.1476         2.74564        0.781044 
        2.15372         2.73261         0.77553 
        2.15985          2.7267        0.770062 
        2.16599          2.7138        0.764632 
        2.17213         2.70867        0.759261 
        2.17827         2.68694        0.753942 
         2.1844         2.68552        0.748679 
        2.19054         2.67136        0.743464 
        2.19666         2.65902        0.738306 
         2.2028         2.64197        0.733193 
        2.20893         2.63961        0.728125 
        2.21508         2.62167          0.7231 
        2.22122         2.61144        0.718121 
        2.22736         2.59744        0.713199 
        2.23349         2.58613        0.708324 
        2.23962         2.57592        0.703492 
        2.24577         2.56781        0.698701 
         2.2519         2.56478        0.693961 
        2.25802         2.54099        0.689273 
        2.26417         2.53463        0.684615 
        2.27031         2.52139        0.679996 
        2.27644         2.51691        0.675433 
        2.28257         2.50419        0.670912 
        2.28872         2.49049        0.666423 
        2.29486         2.48378        0.661977 
        2.30099         2.47504         0.65758 
        2.30712         2.46301        0.653222 
        2.31326         2.45582        0.648895 
         2.3194         2.44272         0.64461 
        2.32553         2.43485        0.640371 
        2.33166         2.42204        0.636172 
         2.3378         2.41622        0.632004 
        2.34394          2.4029        0.627873 
        2.35007         2.39696        0.623785 
        2.35619         2.39047        0.619737 
        2.36233         2.38017        0.615717 
        2.36848         2.36817        0.611723 
        2.37462         2.36111        0.607774 
        2.38075          2.3496        0.603863 
        2.38689         2.34297        0.599983 
        2.39303          2.3331        0.596138 
        2.39916         2.32426         0.59233 
        2.40529          2.3135        0.588557 
        2.41143         2.31202        0.584813 
        2.41757         2.29999          0.5811 
         2.4237         2.29066        0.577426 
        2.42983          2.2791        0.573785 
        2.43598         2.27345        0.570165 
        2.44211         2.26202        0.566582 
        2.44823         2.25295        0.563038 
        2.45437         2.24708        0.559515 
        2.46052         2.24178        0.556019 
        2.46665         2.23026        0.552559 
        2.47279         2.22264        0.549129 
        2.47892          2.2132        0.545727 
        2.48507         2.20408        0.542349 
         2.4912         2.19654        0.539007 
