# k  (h/Mpc)    P(k)  (Mpc/h)^3    P_linear(k)  (Mpc/h)^3
     0.00783031         3013.41         3049.27 
       0.013688         3993.66         3990.97 
       0.019231         4232.02         4233.21 
      0.0249154         4037.84         4080.25 
      0.0312784         3655.24         3671.77 
      0.0375637         3215.26         3212.78 
      0.0433917         2817.47         2837.71 
      0.0492413          2541.7         2546.21 
      0.0555754         2294.66         2322.92 
      0.0619321         2174.24         2166.13 
       0.067871         2024.92          2046.9 
      0.0738098          1903.5         1926.82 
      0.0800417         1751.17         1783.87 
      0.0862327         1604.08         1623.98 
      0.0921407          1456.1         1465.42 
      0.0982031          1298.9         1311.86 
       0.104506         1183.53         1175.83 
       0.110769         1079.33         1071.54 
       0.116806         999.568         999.393 
       0.122832         954.802         948.838 
       0.129052         904.363         909.499 
       0.135211         867.739         873.455 
       0.141259         834.324         833.646 
       0.147318         791.228         786.277 
       0.153489         732.036          731.51 
       0.159709         681.107         674.075 
       0.165845         638.482         620.548 
       0.171974         588.601         574.479 
       0.178125         554.743         537.777 
       0.184229         530.033         510.559 
        0.19034         499.728         490.422 
       0.196428           490.7          474.36 
       0.202534         479.034         459.086 
       0.208729         458.138          441.96 
       0.214876          434.68         422.209 
       0.220989         420.043          400.15 
       0.227147         392.791         376.875 
        0.23329         373.049         354.386 
       0.239377          358.59         334.369 
       0.245482         335.675         317.471 
       0.251667          328.83         303.719 
       0.257832         317.878         292.804 
       0.263955         307.707         283.732 
       0.270079         298.499         275.298 
        0.27624         293.555         266.535 
       0.282372         282.522          257.03 
        0.28843         271.794         246.813 
       0.294538         260.539         236.055 
       0.300721         255.038         225.259 
        0.30691         242.709         215.144 
       0.313033          235.53         206.214 
       0.319153         225.113         198.523 
       0.325316         220.716         191.909 
        0.33145         213.624         186.166 
       0.337538         210.187         180.916 
       0.343633         203.748         175.775 
       0.349808         198.074         170.424 
       0.355968         193.654         164.877 
       0.362074         187.894         159.212 
       0.368217         182.766         153.524 
       0.374374         177.283         148.023 
       0.380519         173.012         142.896 
       0.386598         168.489         138.289 
       0.392688          165.62         134.124 
        0.39888         161.349         130.298 
       0.405048         158.027         126.771 
       0.411186         154.703         123.409 
       0.417313         150.632         120.106 
       0.423458         147.499          116.78 
       0.429607           143.8         113.427 
       0.435692         139.276         110.131 
       0.441815         138.055         106.884 
       0.447964         135.814         103.753 
       0.454126         130.085         100.801 
       0.460267         128.395         98.0575 
       0.466387         125.901         95.5042 
        0.47254         123.954         93.0967 
       0.478662         122.206         90.8171 
       0.484765         119.047         88.6134 
       0.490885          116.86         86.4415 
       0.497035         115.407         84.2906 
       0.503198         112.413         82.1651 
       0.509342         109.974         80.0835 
       0.515458         108.369         78.0704 
       0.521598         106.983         76.1294 
       0.527764         105.211          74.271 
       0.533884         103.407         72.5126 
           0.54         101.636         70.8367 
       0.546137         100.553         69.2286 
       0.552299         99.1308         67.6728 
       0.558452         96.5433         66.1634 
       0.564573         94.9015         64.6925 
       0.570708         93.9442         63.2479 
       0.576825         92.1986         61.8412 
       0.582926         90.5829         60.4748 
       0.589034         88.6332         59.1462 
       0.595184          87.723         57.8509 
       0.601379         86.7236         56.5915 
       0.607522         84.6518         55.3894 
       0.613639         84.4917         54.2371 
       0.619772         82.4235         53.1205 
       0.625918         81.9743         52.0346 
       0.632068         80.8281         50.9755 
       0.638161         79.6642         49.9504 
         0.6443         78.4812         48.9423 
       0.650464          77.366          47.956 
       0.656582          76.707         47.0034 
       0.662703         75.1887          46.077 
       0.668861          74.384         45.1715 
       0.675024         73.3953         44.2909 
       0.681124         72.2793         43.4443 
       0.687237         71.1329         42.6198 
       0.693381         70.5801         41.8145 
       0.699536         69.3251         41.0298 
       0.705665         69.6285         40.2692 
       0.711789         67.8435         39.5287 
       0.717957         67.3078         38.8012 
        0.72409         66.3779          38.095 
       0.730186         65.3743         37.4097 
       0.736317          65.129         36.7372 
       0.742472         64.0647         36.0786 
       0.748622         63.6191          35.437 
        0.75476         62.8133         34.8132 
       0.760888         61.9468         34.2062 
       0.767043         61.3477         33.6122 
       0.773185          60.528         33.0342 
       0.779291         60.2641         32.4735 
       0.785407          59.672         31.9252 
       0.791564         58.7038         31.3862 
       0.797719         57.8243         30.8598 
       0.803834         57.7185         30.3486 
       0.809972         56.8788          29.847 
       0.816124         55.9917         29.3556 
       0.822261          55.761         28.8766 
       0.828378         55.2709         28.4099 
       0.834502         54.6288         27.9532 
       0.840667         54.2001         27.5038 
       0.846816         53.4671         27.0657 
       0.852925         53.0126         26.6402 
       0.859047         52.3401         26.2232 
       0.865192         52.0853         25.8138 
       0.871341         51.8042         25.4131 
       0.877463         50.7768         25.0228 
       0.883569         50.4542         24.6419 
       0.889708         50.1376          24.267 
       0.895864         49.6845         23.8989 
       0.902008          49.284         23.5394 
       0.908149         48.8674         23.1875 
       0.914301         48.6208         22.8424 
       0.920448         47.8047         22.5046 
       0.926574         47.5997          22.175 
       0.932687         47.1297         21.8527 
       0.938823         46.5076         21.5357 
       0.944975         46.3387         21.2243 
       0.951105         45.9372         20.9203 
       0.957225         45.3935         20.6229 
       0.963368         45.2108         20.3303 
       0.969511         44.8841         20.0434 
       0.975621          44.539         19.7636 
       0.981748         43.9713         19.4886 
       0.987916         43.7923          19.217 
        0.99406         43.4393         18.9518 
        1.00019         42.8909         18.6921 
        1.00632         42.7447         18.4376 
        1.01246         42.3881         18.1875 
        1.01859         41.9048         17.9425 
        1.02471         41.9049         17.7023 
        1.03085         41.4772         17.4658 
        1.03698         40.9344         17.2341 
        1.04314          40.625         17.0057 
        1.04929         40.4129          16.782 
        1.05541         39.9856         16.5632 
        1.06154         39.8606         16.3479 
        1.06769         39.5528         16.1361 
        1.07382         39.2406         15.9288 
        1.07993         39.1142         15.7256 
        1.08607         38.6256         15.5252 
        1.09222         38.4844         15.3281 
        1.09836         38.0653         15.1347 
        1.10449         37.9271         14.9448 
        1.11063         37.4325         14.7581 
        1.11677         37.3232         14.5746 
         1.1229         37.2026         14.3946 
        1.12903         36.7101         14.2176 
        1.13518         36.4872         14.0433 
        1.14131         36.4359         13.8722 
        1.14745         36.1095          13.704 
        1.15359          35.945         13.5386 
        1.15973         35.5486         13.3758 
        1.16584         35.2365         13.2165 
        1.17197         35.2954         13.0596 
        1.17811         34.8291         12.9048 
        1.18424         34.5499          12.753 
        1.19038         34.5132         12.6032 
        1.19652         34.2699         12.4559 
        1.20267         34.0341         12.3109 
        1.20881         33.8324         12.1683 
        1.21495         33.5815         12.0282 
        1.22108         33.3565         11.8904 
         1.2272         33.0194         11.7551 
        1.23334         32.9053         11.6216 
        1.23949         32.6695         11.4898 
        1.24562         32.5923         11.3605 
        1.25174         32.3953         11.2334 
        1.25789         32.2019         11.1078 
        1.26402          32.032         10.9844 
        1.27014         31.7248         10.8633 
        1.27628         31.5036         10.7435 
        1.28244         31.4154         10.6254 
        1.28858         31.2744         10.5092 
        1.29471         31.0176         10.3951 
        1.30084         30.8329         10.2827 
        1.30697         30.6356         10.1719 
        1.31312         30.3795         10.0625 
        1.31925          30.262         9.95512 
        1.32537         30.1711         9.84942 
        1.33151         29.9087         9.74487 
        1.33765         29.8295         9.64192 
        1.34378         29.7063         9.54067 
        1.34992         29.2926         9.44082 
        1.35606         29.2574         9.34219 
         1.3622         29.0969         9.24515 
        1.36833         28.9211         9.14973 
        1.37445         28.8626         9.05573 
        1.38059         28.6988         8.96276 
        1.38675         28.4075         8.87089 
        1.39288         28.3484         8.78068 
        1.39901         28.1112         8.69178 
        1.40515          28.011         8.60391 
         1.4113         27.8587         8.51731 
        1.41742         27.6145         8.43224 
        1.42355          27.577         8.34817 
         1.4297         27.3967         8.26501 
        1.43585         27.3424         8.18303 
        1.44198          27.051         8.10248 
        1.44809         26.9965         8.02317 
        1.45423         26.8668         7.94464 
        1.46036         26.7736         7.86731 
        1.46649         26.5988         7.79099 
        1.47263         26.4162         7.71563 
        1.47877         26.3072         7.64131 
        1.48491         26.1642         7.56785 
        1.49104         26.1211         7.49553 
        1.49718         25.8812          7.4241 
        1.50333         25.7983          7.3535 
        1.50947          25.706         7.28396 
         1.5156         25.4976         7.21544 
        1.52172         25.3152          7.1478 
        1.52787          25.297         7.08089 
          1.534         25.1374         7.01493 
        1.54013         24.9482         6.94988 
        1.54627         24.8836         6.88555 
        1.55241         24.7186         6.82202 
        1.55855         24.6335         6.75939 
        1.56467         24.5442         6.69772 
         1.5708          24.433         6.63666 
        1.57695         24.2017         6.57626 
        1.58308         24.2159         6.51677 
        1.58922         24.0662         6.45797 
        1.59535         23.9212         6.39992 
         1.6015         23.8015         6.34252 
        1.60764         23.7476         6.28584 
        1.61376         23.6394         6.23003 
        1.61989         23.4097         6.17485 
        1.62604         23.4179         6.12021 
        1.63218         23.2462         6.06628 
        1.63831         23.1857         6.01313 
        1.64444         23.0141          5.9606 
        1.65059         22.9296         5.90857 
        1.65673         22.8508         5.85723 
        1.66285         22.7097         5.80664 
        1.66898         22.6449         5.75664 
        1.67512         22.5417         5.70713 
        1.68127         22.3789         5.65817 
         1.6874         22.2985         5.60989 
        1.69353         22.2712         5.56221 
        1.69967         22.0774         5.51497 
        1.70581         21.9686         5.46831 
        1.71193         21.8652         5.42237 
        1.71806         21.8234         5.37686 
        1.72421         21.7006         5.33178 
        1.73035         21.6467         5.28728 
        1.73649         21.4959          5.2433 
        1.74262         21.4646         5.19985 
        1.74876         21.3321         5.15687 
        1.75489         21.2458         5.11447 
        1.76101         21.1402         5.07256 
        1.76715         21.1232         5.03107 
        1.77329         20.9959         4.98999 
        1.77943         20.8691         4.94935 
        1.78557         20.7826         4.90923 
        1.79171         20.7334         4.86955 
        1.79785         20.6052          4.8303 
        1.80399         20.5325          4.7915 
        1.81012         20.4474         4.75317 
        1.81625         20.3425         4.71529 
        1.82239         20.2915         4.67776 
        1.82853           20.13         4.64066 
        1.83466         20.0818           4.604 
        1.84078         19.9361         4.56778 
        1.84692         19.9187          4.5319 
        1.85306         19.8155         4.49635 
         1.8592         19.7537         4.46125 
        1.86533         19.6702         4.42654 
        1.87147         19.5753         4.39217 
        1.87761          19.521         4.35814 
        1.88375         19.3832         4.32452 
        1.88988          19.356         4.29129 
        1.89601         19.2705          4.2584 
        1.90215         19.1632         4.22582 
        1.90829         19.1157          4.1936 
        1.91442         19.0171         4.16172 
        1.92056         18.9601          4.1302 
         1.9267         18.8829         4.09898 
        1.93284         18.7822         4.06806 
        1.93897         18.6896         4.03752 
        1.94509         18.6347         4.00736 
        1.95123         18.5588         3.97744 
        1.95737          18.469          3.9478 
        1.96349         18.4023         3.91854 
        1.96964         18.3287          3.8895 
        1.97578         18.2638         3.86074 
        1.98192         18.1578         3.83233 
        1.98805         18.1138          3.8042 
        1.99419         18.0249         3.77636 
        2.00033         17.9591         3.74878 
        2.00647         17.9247         3.72149 
         2.0126          17.763         3.69451 
        2.01874         17.7263         3.66777 
        2.02488         17.6389         3.64126 
        2.03101         17.6361         3.61507 
        2.03714         17.5406         3.58917 
        2.04328         17.4483         3.56348 
        2.04941          17.381         3.53807 
        2.05554          17.363         3.51293 
        2.06167          17.274           3.488 
        2.06781         17.2042         3.46331 
        2.07396         17.1306         3.43883 
        2.08009         17.0617         3.41462 
        2.08622         16.9849         3.39068 
        2.09237         16.9311         3.36692 
        2.09851         16.8652         3.34338 
        2.10464         16.7931         3.32011 
        2.11077         16.7321         3.29709 
        2.11691         16.6543         3.27424 
        2.12305         16.5897         3.25161 
        2.12918         16.5436         3.22924 
        2.13531         16.4777         3.20709 
        2.14145         16.4085         3.18509 
         2.1476         16.3512         3.16327 
        2.15372         16.3024         3.14177 
        2.15985         16.2169         3.12045 
        2.16599         16.1699         3.09927 
        2.17213         16.1343          3.0783 
        2.17827         16.0654         3.05754 
         2.1844         16.0001         3.03699 
        2.19054         15.9127         3.01662 
        2.19666         15.8706         2.99647 
         2.2028         15.8059         2.97648 
        2.20893         15.7549         2.95667 
        2.21508            15.7         2.93701 
        2.22122         15.6046         2.91753 
        2.22736          15.563         2.89827 
        2.23349         15.4937         2.87918 
        2.23962         15.4685         2.86026 
        2.24577         15.3838          2.8415 
         2.2519         15.3414         2.82292 
        2.25802         15.2837         2.80455 
        2.26417         15.2239         2.78629 
        2.27031         15.1809         2.76817 
        2.27644         15.1249         2.75027 
        2.28257         15.0764         2.73253 
        2.28872         14.9937         2.71492 
        2.29486         14.9723         2.69746 
        2.30099          14.924         2.68019 
        2.30712         14.8668         2.66307 
        2.31326         14.8062         2.64607 
         2.3194         14.7086         2.62923 
        2.32553         14.7039         2.61256 
        2.33166         14.6056         2.59604 
         2.3378         14.5809         2.57965 
        2.34394         14.5151         2.56339 
        2.35007         14.4429          2.5473 
        2.35619         14.4114         2.53137 
        2.36233         14.3507         2.51553 
        2.36848         14.3352          2.4998 
        2.37462         14.2725         2.48423 
        2.38075         14.1957         2.46882 
        2.38689         14.1602         2.45352 
        2.39303         14.1183         2.43836 
        2.39916         14.0613         2.42334 
        2.40529         14.0281         2.40844 
        2.41143         13.9542         2.39367 
        2.41757         13.9312         2.37901 
         2.4237         13.8457          2.3645 
        2.42983         13.8265         2.35011 
        2.43598         13.7693         2.33581 
        2.44211         13.6977         2.32165 
        2.44823         13.6679         2.30764 
        2.45437         13.6296         2.29371 
        2.46052         13.5866         2.27988 
        2.46665         13.5193         2.26619 
        2.47279         13.4831         2.25262 
        2.47892         13.4257         2.23915 
        2.48507         13.3826         2.22578 
         2.4912         13.3484         2.21254 
