# k  (h/Mpc)    P(k)  (Mpc/h)^3    P_linear(k)  (Mpc/h)^3
     0.00783031         6581.22         6666.25 
       0.013688         8756.21         8722.29 
       0.019231         9249.96         9250.19 
      0.0249154         8777.23         8915.01 
      0.0312784         7954.22         8021.91 
      0.0375637         7008.68         7018.78 
      0.0433917         6112.06         6199.17 
      0.0492413         5527.13         5562.23 
      0.0555754         4958.62         5074.34 
      0.0619321         4732.47         4731.77 
       0.067871         4374.77         4471.25 
      0.0738098         4110.81          4208.9 
      0.0800417         3767.48         3896.62 
      0.0862327         3460.38         3547.33 
      0.0921407         3155.61         3200.97 
      0.0982031          2813.9         2865.52 
       0.104506          2586.1         2568.37 
       0.110769         2361.16         2340.58 
       0.116806         2189.81         2182.97 
       0.122832         2090.76         2072.54 
       0.129052         1968.17         1986.61 
       0.135211         1889.68         1907.87 
       0.141259         1822.01         1820.92 
       0.147318         1729.75         1717.45 
       0.153489         1597.24         1597.82 
       0.159709          1498.4         1472.36 
       0.165845         1417.34         1355.44 
       0.171974         1315.31         1254.81 
       0.178125         1242.52         1174.64 
       0.184229         1189.29         1115.19 
        0.19034         1117.25         1071.21 
       0.196428         1102.57         1036.12 
       0.202534         1073.96         1002.76 
       0.208729         1027.93         965.352 
       0.214876         978.055         922.211 
       0.220989         948.691         874.028 
       0.227147         894.346         823.188 
        0.23329         854.412         774.068 
       0.239377         831.346         730.345 
       0.245482         775.471         693.434 
       0.251667         766.658         663.397 
       0.257832         740.478         639.555 
       0.263955         717.786         619.739 
       0.270079         695.304         601.318 
        0.27624          688.19         582.178 
       0.282372         660.241         561.416 
        0.28843         643.622           539.1 
       0.294538         613.819           515.6 
       0.300721         608.874          492.02 
        0.30691         580.545         469.926 
       0.313033         568.196         450.421 
       0.319153         549.663         433.622 
       0.325316         534.373         419.174 
        0.33145         519.708         406.631 
       0.337538         513.839         395.163 
       0.343633         498.051         383.934 
       0.349808          482.97         372.247 
       0.355968         477.884         360.131 
       0.362074         467.555         347.756 
       0.368217         455.175         335.332 
       0.374374         438.685         323.316 
       0.380519         433.314         312.119 
       0.386598         423.279         302.055 
       0.392688         419.986         292.959 
        0.39888         408.432         284.602 
       0.405048         400.636         276.898 
       0.411186         392.608         269.553 
       0.417313         385.767         262.339 
       0.423458         379.077         255.074 
       0.429607         370.826          247.75 
       0.435692         361.746         240.551 
       0.441815         359.431         233.458 
       0.447964         352.759         226.621 
       0.454126         340.285         220.172 
       0.460267         336.518          214.18 
       0.466387         332.728         208.603 
        0.47254         326.003         203.345 
       0.478662         324.384         198.365 
       0.484765         315.446         193.552 
       0.490885          311.52         188.808 
       0.497035          306.87          184.11 
       0.503198         300.151         179.468 
       0.509342         297.517         174.921 
       0.515458         293.848         170.524 
       0.521598         289.405         166.284 
       0.527764         284.611         162.225 
       0.533884         281.365         158.384 
           0.54         277.612         154.724 
       0.546137         276.342         151.211 
       0.552299          271.13         147.813 
       0.558452         267.792         144.516 
       0.564573         263.441         141.303 
       0.570708         259.268         138.148 
       0.576825         256.048         135.075 
       0.582926         253.102         132.091 
       0.589034         249.854         129.189 
       0.595184         247.633          126.36 
       0.601379         245.372         123.609 
       0.607522         240.438         120.983 
       0.613639         239.651         118.466 
       0.619772         234.218         116.027 
       0.625918         232.616         113.655 
       0.632068          229.83         111.342 
       0.638161         228.689         109.103 
         0.6443         225.047         106.901 
       0.650464         222.982         104.747 
       0.656582         221.367         102.666 
       0.662703         218.521         100.643 
       0.668861         215.487         98.6648 
       0.675024         213.234         96.7415 
       0.681124         212.302         94.8922 
       0.687237          208.87         93.0913 
       0.693381         206.194         91.3323 
       0.699536         204.777         89.6184 
       0.705665         204.679         87.9572 
       0.711789         200.551         86.3397 
       0.717957         199.788         84.7506 
        0.72409          197.37         83.2081 
       0.730186         194.455         81.7114 
       0.736317         193.452         80.2423 
       0.742472         192.322         78.8038 
       0.748622         190.914         77.4025 
        0.75476          189.29         76.0399 
       0.760888         186.669         74.7142 
       0.767043         185.656         73.4167 
       0.773185         183.753         72.1542 
       0.779291         181.156         70.9295 
       0.785407         180.422         69.7319 
       0.791564          178.74         68.5546 
       0.797719         176.562         67.4048 
       0.803834         175.837         66.2882 
       0.809972         173.767         65.1926 
       0.816124         173.757         64.1193 
       0.822261         171.458         63.0731 
       0.828378          170.02         62.0536 
       0.834502         169.628          61.056 
       0.840667         167.177         60.0744 
       0.846816         166.115         59.1177 
       0.852925         164.728         58.1883 
       0.859047         163.086         57.2773 
       0.865192         162.383         56.3833 
       0.871341         160.659          55.508 
       0.877463         159.563         54.6556 
       0.883569         158.216         53.8234 
       0.889708         157.318         53.0045 
       0.895864         155.787         52.2007 
       0.902008         154.854         51.4154 
       0.908149         154.105         50.6469 
       0.914301         152.423         49.8929 
       0.920448         151.546         49.1552 
       0.926574         150.691         48.4351 
       0.932687         149.811         47.7312 
       0.938823         147.959         47.0388 
       0.944975         146.951         46.3588 
       0.951105         146.142         45.6948 
       0.957225         144.393          45.045 
       0.963368          143.63         44.4059 
       0.969511         143.074         43.7792 
       0.975621         142.474         43.1682 
       0.981748         141.519         42.5674 
       0.987916         139.932         41.9744 
        0.99406         139.387          41.395 
        1.00019         138.346         40.8278 
        1.00632         137.477         40.2719 
        1.01246         136.465         39.7256 
        1.01859         134.978         39.1904 
        1.02471         135.162         38.6658 
        1.03085         133.781         38.1492 
        1.03698          132.69         37.6431 
        1.04314         131.721         37.1442 
        1.04929         130.985         36.6556 
        1.05541         130.213         36.1778 
        1.06154         129.391         35.7075 
        1.06769         129.063         35.2449 
        1.07382         128.384         34.7921 
        1.07993         127.439         34.3483 
        1.08607          126.39         33.9105 
        1.09222         125.756           33.48 
        1.09836         124.788         33.0575 
        1.10449         124.075         32.6429 
        1.11063           123.4          32.235 
        1.11677         122.805         31.8343 
         1.1229          121.58         31.4411 
        1.12903         120.711         31.0544 
        1.13518         120.909         30.6738 
        1.14131         119.734         30.2999 
        1.14745         118.846         29.9326 
        1.15359         118.209         29.5713 
        1.15973         117.866         29.2158 
        1.16584         116.914         28.8679 
        1.17197         116.202         28.5252 
        1.17811         115.567          28.187 
        1.18424          114.71         27.8554 
        1.19038         114.209         27.5282 
        1.19652         113.625         27.2064 
        1.20267         112.755         26.8898 
        1.20881          112.17         26.5784 
        1.21495         111.398         26.2724 
        1.22108         110.787         25.9713 
         1.2272         110.113         25.6758 
        1.23334         109.586         25.3841 
        1.23949         108.617         25.0964 
        1.24562         108.516         24.8139 
        1.25174         107.651         24.5362 
        1.25789         107.119          24.262 
        1.26402         106.697         23.9925 
        1.27014         105.742         23.7278 
        1.27628         105.484         23.4663 
        1.28244         104.616         23.2083 
        1.28858         104.133         22.9545 
        1.29471         103.522         22.7052 
        1.30084          102.94         22.4598 
        1.30697         102.321         22.2177 
        1.31312         101.952         21.9788 
        1.31925         101.445         21.7442 
        1.32537         100.976         21.5133 
        1.33151         100.011          21.285 
        1.33765         99.5221         21.0601 
        1.34378         98.9169          20.839 
        1.34992         98.7082         20.6209 
        1.35606         98.1387         20.4054 
         1.3622         97.2746         20.1935 
        1.36833          97.137         19.9851 
        1.37445         96.3774         19.7797 
        1.38059         95.7913         19.5767 
        1.38675         95.2748          19.376 
        1.39288         94.7417          19.179 
        1.39901         94.6262         18.9848 
        1.40515         94.1255         18.7929 
         1.4113         93.2152         18.6037 
        1.41742         93.0654         18.4179 
        1.42355         92.3378         18.2343 
         1.4297         91.9139         18.0527 
        1.43585         91.3159         17.8736 
        1.44198         91.0949         17.6976 
        1.44809         90.4084         17.5244 
        1.45423         89.9946         17.3529 
        1.46036         89.6232          17.184 
        1.46649         89.1004         17.0173 
        1.47263         88.6946         16.8527 
        1.47877         88.3636         16.6903 
        1.48491         87.7891         16.5299 
        1.49104         87.2745         16.3719 
        1.49718         86.8365         16.2159 
        1.50333         86.3613         16.0617 
        1.50947         85.7718         15.9098 
         1.5156          85.633         15.7601 
        1.52172         85.0511         15.6124 
        1.52787         84.8327         15.4663 
          1.534         84.4064         15.3222 
        1.54013         83.7432         15.1801 
        1.54627         83.3955         15.0396 
        1.55241         82.9002         14.9008 
        1.55855         82.5248          14.764 
        1.56467         81.9614         14.6293 
         1.5708         81.7105         14.4959 
        1.57695         81.4232          14.364 
        1.58308         80.7939         14.2341 
        1.58922         80.6348         14.1057 
        1.59535         80.3046         13.9789 
         1.6015         79.6535         13.8535 
        1.60764         79.4482         13.7297 
        1.61376         78.9101         13.6078 
        1.61989         78.5006         13.4873 
        1.62604         78.1894         13.3679 
        1.63218         77.9714         13.2501 
        1.63831         77.4475          13.134 
        1.64444         77.1312         13.0193 
        1.65059         76.4446         12.9056 
        1.65673          76.274         12.7935 
        1.66285         75.9236          12.683 
        1.66898         75.5142         12.5738 
        1.67512         75.0199         12.4657 
        1.68127         74.6731         12.3587 
         1.6874         74.3969         12.2533 
        1.69353         74.0256         12.1491 
        1.69967         73.6334         12.0459 
        1.70581         73.4403          11.944 
        1.71193         73.0823         11.8437 
        1.71806          72.445         11.7443 
        1.72421         72.3707         11.6458 
        1.73035         71.8541         11.5486 
        1.73649         71.4655         11.4525 
        1.74262         71.2256         11.3576 
        1.74876         70.9164         11.2638 
        1.75489         70.4458         11.1712 
        1.76101          70.235         11.0796 
        1.76715         69.7709          10.989 
        1.77329         69.5063         10.8993 
        1.77943         69.2035         10.8105 
        1.78557         68.9228         10.7229 
        1.79171         68.5075         10.6362 
        1.79785         68.3057         10.5505 
        1.80399         67.8547         10.4657 
        1.81012         67.6815          10.382 
        1.81625         67.1015         10.2992 
        1.82239          66.834         10.2173 
        1.82853          66.431         10.1362 
        1.83466         66.2329         10.0562 
        1.84078         65.7119         9.97706 
        1.84692         65.5276         9.89868 
        1.85306         65.2759         9.82104 
         1.8592         64.8518         9.74437 
        1.86533         64.5588         9.66856 
        1.87147         64.2661         9.59347 
        1.87761         64.0082         9.51916 
        1.88375         63.8396         9.44572 
        1.88988         63.6202         9.37314 
        1.89601         63.0634         9.30129 
        1.90215         62.8329         9.23014 
        1.90829         62.6199         9.15977 
        1.91442         62.2451         9.09013 
        1.92056         61.9532         9.02129 
         1.9267         61.5568         8.95309 
        1.93284         61.2746         8.88555 
        1.93897         61.0406         8.81885 
        1.94509          60.627         8.75298 
        1.95123         60.5043         8.68762 
        1.95737         60.2489         8.62288 
        1.96349         59.9251         8.55898 
        1.96964         59.7028         8.49554 
        1.97578          59.335         8.43271 
        1.98192          59.124         8.37066 
        1.98805         58.9093         8.30922 
        1.99419         58.5076         8.24841 
        2.00033         58.2208         8.18817 
        2.00647         58.0454         8.12856 
         2.0126         57.6724         8.06964 
        2.01874         57.3916         8.01122 
        2.02488         57.2487         7.95333 
        2.03101         56.8824         7.89613 
        2.03714         56.6038         7.83954 
        2.04328         56.3173         7.78344 
        2.04941         56.0341         7.72795 
        2.05554         55.7088         7.67303 
        2.06167         55.6686         7.61858 
        2.06781         55.3129         7.56465 
        2.07396         54.9886         7.51117 
        2.08009         54.8329          7.4583 
        2.08622         54.4376           7.406 
        2.09237         54.2598          7.3541 
        2.09851         53.9514         7.30269 
        2.10464         53.7293         7.25187 
        2.11077         53.5708         7.20159 
        2.11691         53.2171         7.15167 
        2.12305         52.8838         7.10224 
        2.12918         52.7026         7.05339 
        2.13531         52.4807         7.00499 
        2.14145         52.2616         6.95695 
         2.1476          52.055          6.9093 
        2.15372         51.7173         6.86233 
        2.15985         51.5655         6.81576 
        2.16599          51.357         6.76949 
        2.17213         51.2462          6.7237 
        2.17827          50.835         6.67835 
         2.1844         50.4898         6.63346 
        2.19054         50.3088         6.58897 
        2.19666          50.142         6.54495 
         2.2028         49.9452         6.50129 
        2.20893         49.7275         6.45802 
        2.21508         49.5123         6.41509 
        2.22122         49.2269         6.37254 
        2.22736         48.9491         6.33046 
        2.23349         48.8097         6.28878 
        2.23962         48.4998         6.24745 
        2.24577         48.2766         6.20646 
         2.2519         48.0696          6.1659 
        2.25802         48.0016         6.12576 
        2.26417         47.6369         6.08587 
        2.27031         47.4617         6.04631 
        2.27644         47.1091         6.00721 
        2.28257         47.0126         5.96846 
        2.28872         46.6718         5.92998 
        2.29486         46.5318         5.89185 
        2.30099          46.352         5.85413 
        2.30712         46.1237         5.81674 
        2.31326         45.9426          5.7796 
         2.3194         45.6976         5.74281 
        2.32553         45.5097         5.70641 
        2.33166         45.2689         5.67034 
         2.3378         45.0541         5.63453 
        2.34394          44.732         5.59902 
        2.35007         44.6024         5.56387 
        2.35619         44.5559         5.52907 
        2.36233         44.3179         5.49448 
        2.36848         43.9805         5.46012 
        2.37462         43.9424         5.42612 
        2.38075         43.6189         5.39245 
        2.38689         43.5106         5.35904 
        2.39303         43.3147         5.32591 
        2.39916          43.101         5.29311 
        2.40529         42.8007         5.26058 
        2.41143         42.6733          5.2283 
        2.41757         42.5025         5.19629 
         2.4237         42.3223          5.1646 
        2.42983         42.1206         5.13317 
        2.43598         41.8949         5.10193 
        2.44211         41.7746           5.071 
        2.44823         41.5335          5.0404 
        2.45437         41.3961         5.00997 
        2.46052         41.1408         4.97976 
        2.46665         41.0007         4.94986 
        2.47279         40.8324         4.92022 
        2.47892         40.5634          4.8908 
        2.48507         40.4189         4.86159 
         2.4912         40.2252         4.83268 
