# k  (h/Mpc)    P(k)  (Mpc/h)^3    P_linear(k)  (Mpc/h)^3
     0.00783031         4148.47         4203.05 
       0.013688         5207.36         5199.06 
       0.019231         5268.37         5265.59 
      0.0249154         4805.36         4857.11 
      0.0312784         4172.53         4187.39 
      0.0375637         3561.52         3552.09 
      0.0433917         3070.74         3088.56 
      0.0492413         2757.46         2758.89 
      0.0555754         2489.94         2519.66 
      0.0619321         2357.38         2344.66 
       0.067871         2170.19         2191.48 
      0.0738098         1999.33         2020.42 
      0.0800417            1789         1817.09 
      0.0862327         1594.54         1606.69 
      0.0921407         1421.48         1420.07 
      0.0982031          1257.4         1260.82 
       0.104506         1155.27         1137.93 
       0.110769         1069.56         1055.25 
       0.116806         1006.72         1001.53 
       0.122832         968.909         959.334 
       0.129052         912.291         914.629 
       0.135211         860.226         861.249 
       0.141259         807.824          799.11 
       0.147318         746.955         731.921 
       0.153489         677.963         665.818 
       0.159709         626.831         608.308 
       0.165845         591.192         564.046 
       0.171974         553.685         532.084 
       0.178125         530.844         509.319 
       0.184229          513.08         491.508 
        0.19034         484.489         474.048 
       0.196428         472.175         453.978 
       0.202534         453.943         430.187 
       0.208729         425.728         403.363 
       0.214876         397.453          376.39 
       0.220989         379.686         351.657 
       0.227147         355.548         330.572 
        0.23329         339.758         313.918 
       0.239377         330.104         301.195 
       0.245482         311.542         290.935 
       0.251667         307.163         281.508 
       0.257832         297.018         271.751 
       0.263955         285.766         260.996 
       0.270079         274.224         249.149 
        0.27624         266.972         236.727 
       0.282372         255.073         224.674 
        0.28843         244.193         213.809 
       0.294538         233.455         204.341 
       0.300721         229.431         196.317 
        0.30691         219.219         189.575 
       0.313033         213.615         183.662 
       0.319153         204.685         178.006 
       0.325316         200.622         172.164 
        0.33145         193.354         166.058 
       0.337538         189.481         159.753 
       0.343633         182.575         153.428 
       0.349808         176.611         147.278 
       0.355968         172.494         141.621 
       0.362074         167.244         136.616 
       0.368217         162.546         132.145 
       0.374374           157.7         128.129 
       0.380519          154.33         124.398 
       0.386598         150.238         120.812 
       0.392688         147.619         117.227 
        0.39888         143.582         113.527 
       0.405048         140.114         109.835 
       0.411186          136.83         106.228 
       0.417313         133.151         102.773 
       0.423458         130.063         99.5301 
       0.429607         126.772         96.5361 
       0.435692         122.659         93.7951 
       0.441815         121.562         91.2249 
       0.447964         119.473         88.7741 
       0.454126         114.235         86.3857 
       0.460267         112.816         84.0385 
       0.466387         110.625         81.7305 
        0.47254         108.573         79.4434 
       0.478662          107.08         77.2231 
       0.484765         104.027         75.0951 
       0.490885         102.072         73.0706 
       0.497035         100.726         71.1449 
       0.503198         97.9317         69.3161 
       0.509342         95.8164         67.5825 
       0.515458         94.3392         65.9272 
       0.521598         93.0022         64.3154 
       0.527764         91.4243         62.7301 
       0.533884         89.8747         61.1888 
           0.54         88.1122         59.6876 
       0.546137         87.1569         58.2258 
       0.552299         85.8043         56.8077 
       0.558452         83.5923         55.4442 
       0.564573         82.0807         54.1415 
       0.570708         81.0744         52.8906 
       0.576825         79.6736         51.6924 
       0.582926          78.101         50.5379 
       0.589034         76.4883         49.4147 
       0.595184         75.5771         48.3109 
       0.601379          74.589         47.2272 
       0.607522         72.7637         46.1818 
       0.613639         72.5752         45.1716 
       0.619772         70.8198         44.1906 
       0.625918         70.2358          43.239 
       0.632068         69.2966         42.3168 
       0.638161         68.2671         41.4315 
         0.6443         67.2251         40.5668 
       0.650464         66.2536         39.7249 
       0.656582         65.5609         38.9136 
       0.662703         64.2495         38.1249 
       0.668861         63.4878         37.3531 
       0.675024         62.6365         36.6011 
       0.681124         61.6623         35.8762 
       0.687237         60.5999         35.1687 
       0.693381         60.0899         34.4767 
       0.699536         59.0143         33.8023 
       0.705665         59.2481         33.1494 
       0.711789         57.6381         32.5153 
       0.717957         57.1342         31.8944 
        0.72409         56.3477         31.2937 
       0.730186         55.4473         30.7125 
       0.736317         55.2052         30.1431 
       0.742472         54.3409         29.5859 
       0.748622          53.858         29.0431 
        0.75476         53.1721         28.5148 
       0.760888         52.3708         28.0002 
       0.767043         51.8303         27.4962 
       0.773185         51.1354         27.0056 
       0.779291         50.8849         26.5298 
       0.785407          50.374         26.0649 
       0.791564         49.5697         25.6084 
       0.797719         48.7303         25.1632 
       0.803834         48.6156         24.7316 
       0.809972         47.8537         24.3087 
       0.816124         47.1757         23.8948 
       0.822261         46.8639         23.4919 
       0.828378         46.5129         23.0995 
       0.834502         45.9517         22.7158 
       0.840667         45.5216         22.3383 
       0.846816         44.8579         21.9706 
       0.852925         44.4877         21.6135 
       0.859047         43.9042         21.2636 
       0.865192         43.6001         20.9203 
       0.871341          43.399         20.5845 
       0.877463         42.5173         20.2576 
       0.883569         42.2119         19.9386 
       0.889708          41.923         19.6249 
       0.895864         41.5176         19.3172 
       0.902008         41.1555         19.0168 
       0.908149         40.7778          18.723 
       0.914301          40.567         18.4349 
       0.920448          39.945         18.1532 
       0.926574         39.6566         17.8784 
       0.932687         39.2817         17.6099 
       0.938823         38.7189          17.346 
       0.944975         38.5902         17.0869 
       0.951105         38.2113          16.834 
       0.957225         37.7402         16.5867 
       0.963368         37.6621         16.3436 
       0.969511         37.3185         16.1053 
       0.975621         37.0016         15.8731 
       0.981748         36.5209         15.6448 
       0.987916         36.3304         15.4197 
        0.99406         36.0492         15.1998 
        1.00019         35.5979         14.9847 
        1.00632         35.4183         14.7739 
        1.01246         35.1766         14.5669 
        1.01859         34.6853         14.3643 
        1.02471         34.6835         14.1657 
        1.03085           34.34         13.9702 
        1.03698         33.8687         13.7788 
        1.04314         33.6106         13.5903 
        1.04929         33.4034         13.4057 
        1.05541          33.038         13.2253 
        1.06154         32.9458         13.0478 
        1.06769         32.6677         12.8732 
        1.07382         32.4049         12.7025 
        1.07993         32.2809         12.5353 
        1.08607         31.8459         12.3704 
        1.09222         31.7493         12.2083 
        1.09836         31.4146         12.0493 
        1.10449         31.2241         11.8933 
        1.11063         30.8196           11.74 
        1.11677         30.7139         11.5894 
         1.1229         30.6006         11.4417 
        1.12903         30.1797         11.2965 
        1.13518         30.0356         11.1537 
        1.14131         29.9567         11.0134 
        1.14745         29.6302         10.8757 
        1.15359         29.5455         10.7403 
        1.15973         29.2012         10.6071 
        1.16584         28.9271         10.4768 
        1.17197          28.956         10.3485 
        1.17811          28.571         10.2219 
        1.18424          28.335         10.0979 
        1.19038         28.2956         9.97553 
        1.19652         28.1157         9.85525 
        1.20267         27.9073         9.73697 
        1.20881         27.6848         9.62065 
        1.21495         27.4972         9.50643 
        1.22108         27.3174         9.39407 
         1.2272         27.0213         9.28381 
        1.23334         26.9415         9.17506 
        1.23949         26.7611          9.0678 
        1.24562         26.6277         8.96255 
        1.25174         26.4922         8.85914 
        1.25789          26.283         8.75704 
        1.26402          26.163         8.65674 
        1.27014         25.8778         8.55826 
        1.27628         25.7294         8.46101 
        1.28244         25.6195          8.3651 
        1.28858          25.514          8.2708 
        1.29471         25.3307         8.17817 
        1.30084         25.1624         8.08705 
        1.30697         24.9769         7.99718 
        1.31312          24.757         7.90856 
        1.31925         24.6614         7.82155 
        1.32537         24.5712         7.73595 
        1.33151         24.3612         7.65132 
        1.33765         24.3027         7.56801 
        1.34378         24.1679         7.48611 
        1.34992         23.8511         7.40537 
        1.35606         23.7963         7.32564 
         1.3622         23.6547         7.24724 
        1.36833         23.5025         7.17017 
        1.37445         23.4871         7.09426 
        1.38059         23.3019         7.01922 
        1.38675         23.0581         6.94509 
        1.39288          23.022         6.87232 
        1.39901         22.8311         6.80064 
        1.40515         22.7457         6.72981 
         1.4113         22.6058         6.66002 
        1.41742         22.3933         6.59149 
        1.42355         22.3638          6.5238 
         1.4297         22.2314         6.45685 
        1.43585         22.1772         6.39087 
        1.44198         21.9429         6.32606 
        1.44809         21.8627         6.26228 
        1.45423         21.7687         6.19914 
        1.46036         21.6882         6.13698 
        1.46649         21.5353         6.07565 
        1.47263         21.3888         6.01511 
        1.47877         21.2992         5.95542 
        1.48491         21.1869         5.89645 
        1.49104         21.1412         5.83841 
        1.49718         20.9386          5.7811 
        1.50333         20.8806         5.72447 
        1.50947         20.7951         5.66872 
         1.5156         20.6144         5.61379 
        1.52172         20.4772         5.55959 
        1.52787         20.4765           5.506 
          1.534         20.3037         5.45318 
        1.54013         20.1411         5.40111 
        1.54627         20.1036         5.34963 
        1.55241         19.9747          5.2988 
        1.55855         19.8668         5.24871 
        1.56467         19.7927         5.19941 
         1.5708         19.7267          5.1506 
        1.57695         19.5331         5.10235 
        1.58308         19.5577         5.05482 
        1.58922         19.4105         5.00787 
        1.59535         19.2948         4.96153 
         1.6015          19.196         4.91572 
        1.60764          19.147          4.8705 
        1.61376         19.0297         4.82598 
        1.61989         18.8686         4.78198 
        1.62604         18.8617         4.73843 
        1.63218         18.7274         4.69545 
        1.63831         18.6898         4.65311 
        1.64444         18.5301         4.61126 
        1.65059         18.4517         4.56984 
        1.65673         18.3972         4.52897 
        1.66285         18.2739         4.48871 
        1.66898         18.2313         4.44892 
        1.67512         18.1546         4.40955 
        1.68127           18.03         4.37061 
         1.6874         17.9383         4.33222 
        1.69353         17.8921         4.29433 
        1.69967          17.758         4.25679 
        1.70581         17.6878         4.21972 
        1.71193         17.5926         4.18323 
        1.71806         17.5298          4.1471 
        1.72421         17.4421         4.11132 
        1.73035          17.378           4.076 
        1.73649         17.2823         4.04111 
        1.74262         17.2562         4.00665 
        1.74876         17.1487         3.97257 
        1.75489         17.0732         3.93896 
        1.76101         16.9857         3.90575 
        1.76715         16.9537         3.87287 
        1.77329          16.847         3.84033 
        1.77943         16.7538         3.80816 
        1.78557         16.7017         3.77639 
        1.79171         16.6534         3.74499 
        1.79785         16.5167         3.71393 
        1.80399         16.4596         3.68324 
        1.81012         16.4319         3.65293 
        1.81625         16.3251         3.62297 
        1.82239         16.2948         3.59331 
        1.82853         16.1545           3.564 
        1.83466          16.085         3.53503 
        1.84078          15.984         3.50643 
        1.84692         15.9835         3.47809 
        1.85306         15.8855         3.45003 
         1.8592         15.8284         3.42232 
        1.86533         15.7709         3.39494 
        1.87147         15.6926         3.36782 
        1.87761         15.6577         3.34098 
        1.88375         15.5313         3.31447 
        1.88988         15.5087         3.28828 
        1.89601         15.4272         3.26235 
        1.90215         15.3509         3.23669 
        1.90829         15.3166         3.21131 
        1.91442         15.2455          3.1862 
        1.92056         15.1833         3.16138 
         1.9267         15.1225          3.1368 
        1.93284         15.0308         3.11247 
        1.93897         14.9695         3.08844 
        1.94509         14.9145         3.06472 
        1.95123         14.8473         3.04118 
        1.95737         14.7948         3.01787 
        1.96349         14.7323         2.99487 
        1.96964         14.6656         2.97204 
        1.97578         14.6181         2.94944 
        1.98192         14.5227         2.92712 
        1.98805          14.497         2.90503 
        1.99419         14.4164         2.88317 
        2.00033         14.3654         2.86152 
        2.00647         14.3208         2.84009 
         2.0126         14.2221         2.81893 
        2.01874         14.1674         2.79794 
        2.02488         14.1084         2.77715 
        2.03101         14.1005         2.75661 
        2.03714         14.0363          2.7363 
        2.04328         13.9489         2.71617 
        2.04941         13.8775         2.69626 
        2.05554         13.8839         2.67656 
        2.06167         13.7999         2.65703 
        2.06781         13.7559         2.63769 
        2.07396         13.7102         2.61852 
        2.08009         13.6487         2.59957 
        2.08622         13.5628         2.58083 
        2.09237         13.5333         2.56224 
        2.09851         13.4786         2.54383 
        2.10464         13.4141         2.52562 
        2.11077          13.358         2.50762 
        2.11691           13.32         2.48976 
        2.12305         13.2567         2.47206 
        2.12918         13.1983         2.45458 
        2.13531         13.1719         2.43727 
        2.14145         13.0924         2.42009 
         2.1476         13.0714         2.40305 
        2.15372         13.0189         2.38626 
        2.15985         12.9426         2.36961 
        2.16599         12.9139         2.35308 
        2.17213         12.8755         2.33672 
        2.17827         12.8294         2.32052 
         2.1844         12.7761         2.30449 
        2.19054         12.7024          2.2886 
        2.19666         12.6858         2.27289 
         2.2028         12.6333         2.25731 
        2.20893         12.5826         2.24186 
        2.21508         12.5196         2.22655 
        2.22122         12.4647         2.21137 
        2.22736         12.4225         2.19636 
        2.23349         12.3645          2.1815 
        2.23962         12.3304         2.16677 
        2.24577           12.27         2.15216 
         2.2519         12.2601          2.1377 
        2.25802         12.2055          2.1234 
        2.26417         12.1642         2.10919 
        2.27031         12.1066          2.0951 
        2.27644         12.0561         2.08118 
        2.28257         12.0165         2.06738 
        2.28872           11.97         2.05369 
        2.29486         11.9468         2.04012 
        2.30099         11.9107          2.0267 
        2.30712         11.8547         2.01339 
        2.31326         11.8193         2.00018 
         2.3194          11.752          1.9871 
        2.32553         11.7239         1.97416 
        2.33166         11.6402         1.96134 
         2.3378         11.6314         1.94861 
        2.34394         11.5844         1.93599 
        2.35007         11.5276          1.9235 
        2.35619         11.4864         1.91114 
        2.36233         11.4459         1.89886 
        2.36848         11.4347         1.88666 
        2.37462         11.3997         1.87459 
        2.38075         11.3159         1.86263 
        2.38689         11.2919         1.85078 
        2.39303         11.2574         1.83902 
        2.39916         11.2218         1.82739 
        2.40529         11.1805         1.81585 
        2.41143         11.1369          1.8044 
        2.41757         11.1132         1.79305 
         2.4237         11.0553         1.78182 
        2.42983         11.0188         1.77068 
        2.43598         10.9949         1.75961 
        2.44211         10.9324         1.74865 
        2.44823         10.8938         1.73781 
        2.45437         10.8818         1.72703 
        2.46052         10.8278         1.71633 
        2.46665         10.7771         1.70575 
        2.47279         10.7397         1.69525 
        2.47892           10.71         1.68484 
        2.48507         10.6848          1.6745 
         2.4912         10.6471         1.66427 
