# k  (h/Mpc)    Pcb(k)  (Mpc/h)^3    Pcb_linear(k)  (Mpc/h)^3
     0.00783031         10604.8         10665.2 
       0.013688         12646.5         12932.2 
       0.019231         12698.7         12856.6 
      0.0249154         11690.5         11657.8 
      0.0312784         9835.98         9898.87 
      0.0375637         8217.86         8321.09 
      0.0433917         7199.79         7215.13 
      0.0492413         6392.99         6451.09 
      0.0555754          5889.8         5900.58 
      0.0619321         5325.79         5481.38 
       0.067871          5016.7          5092.8 
      0.0738098         4615.21         4651.42 
      0.0800417         4128.37         4137.69 
      0.0862327         3613.04         3626.97 
      0.0921407            3208         3194.36 
      0.0982031         2897.71         2842.34 
       0.104506         2598.31         2582.77 
       0.110769         2437.34         2412.54 
       0.116806         2352.42         2297.55 
       0.122832         2219.63         2195.86 
       0.129052         2101.47         2077.21 
       0.135211         2000.31         1934.93 
       0.141259         1826.43         1777.16 
       0.147318         1660.26         1617.23 
       0.153489         1538.76         1470.14 
       0.159709         1456.18         1350.14 
       0.165845         1334.07         1262.47 
       0.171974         1306.74         1200.25 
       0.178125         1261.83         1153.21 
       0.184229         1177.87         1110.81 
        0.19034         1151.86         1064.17 
       0.196428         1108.22         1009.81 
       0.202534          1026.8         948.671 
       0.208729         998.005         884.762 
       0.214876         946.783          825.25 
       0.220989         885.393         774.233 
       0.227147         862.357         732.825 
        0.23329         829.348         700.559 
       0.239377         818.605         674.717 
       0.245482         777.979         651.486 
       0.251667         748.357         627.685 
       0.257832         737.629         601.955 
       0.263955         696.766         574.326 
       0.270079          670.69         545.808 
        0.27624          641.17         517.946 
       0.282372         626.723         492.635 
        0.28843         619.745         470.837 
       0.294538          588.05         452.144 
       0.300721         571.473         435.916 
        0.30691         561.134         421.307 
       0.313033         536.308         407.424 
       0.319153         527.848         393.378 
       0.325316         517.753         378.807 
        0.33145         504.901         364.057 
       0.337538         486.145         349.629 
       0.343633         471.876          335.91 
       0.349808          459.75         323.115 
       0.355968         450.806         311.629 
       0.362074         435.795         301.364 
       0.368217         432.561         291.912 
       0.374374         423.953         282.962 
       0.380519         406.789         274.256 
       0.386598         401.967         265.722 
       0.392688         392.065         257.199 
        0.39888         381.998         248.671 
       0.405048         374.441         240.459 
       0.411186         372.698          232.69 
       0.417313         367.002         225.436 
       0.423458         356.522         218.663 
       0.429607         346.778         212.316 
       0.435692         341.405         206.379 
       0.441815         335.301         200.643 
       0.447964         327.465         195.033 
       0.454126         323.383         189.529 
       0.460267         318.307         184.174 
       0.466387         311.955         178.981 
        0.47254         307.799         173.943 
       0.478662          300.28         169.154 
       0.484765         296.494         164.617 
       0.490885         292.982         160.284 
       0.497035         287.731         156.126 
       0.503198          286.31          152.13 
       0.509342         279.092         148.285 
       0.515458           274.8         144.568 
       0.521598         269.596         140.932 
       0.527764         266.272         137.384 
       0.533884         264.885         133.975 
           0.54          260.17         130.687 
       0.546137         254.362         127.507 
       0.552299         252.991         124.432 
       0.558452         248.702         121.479 
       0.564573         246.958          118.65 
       0.570708         242.111         115.912 
       0.576825         238.297         113.266 
       0.582926         236.174         110.701 
       0.589034         232.595         108.204 
       0.595184         230.952         105.763 
       0.601379         227.022         103.381 
       0.607522         222.267         101.094 
       0.613639         221.178         98.8886 
       0.619772         219.648         96.7472 
       0.625918         216.784         94.6677 
       0.632068         212.874         92.6502 
       0.638161         211.509         90.7108 
         0.6443         209.396          88.814 
       0.650464         205.811         86.9648 
       0.656582          204.19         85.1812 
       0.662703         202.742         83.4463 
       0.668861         198.745         81.7491 
       0.675024         198.311         80.0975 
       0.681124          195.63         78.5082 
       0.687237         193.788         76.9595 
       0.693381         191.201         75.4464 
       0.699536         189.669         73.9726 
       0.705665         187.698         72.5455 
       0.711789         185.482         71.1582 
       0.717957         183.668         69.7982 
        0.72409         181.471         68.4816 
       0.730186         182.178         67.2069 
       0.736317         179.184         65.9577 
       0.742472         176.736         64.7355 
       0.748622         174.295         63.5455 
        0.75476         174.874          62.388 
       0.760888         172.576         61.2613 
       0.767043         169.855         60.1582 
       0.773185         168.526         59.0848 
       0.779291         166.492         58.0441 
       0.785407         165.679         57.0271 
       0.791564         164.191         56.0284 
       0.797719         161.598         55.0544 
       0.803834         162.279         54.1099 
       0.809972         160.541         53.1844 
       0.816124          157.91         52.2786 
       0.822261         156.935         51.3966 
       0.828378         156.552         50.5377 
       0.834502         154.456         49.6978 
       0.840667          154.09         48.8718 
       0.846816         151.776          48.067 
       0.852925         150.837         47.2855 
       0.859047         149.456         46.5199 
       0.865192         148.887         45.7688 
       0.871341         147.144          45.034 
       0.877463         145.831         44.3187 
       0.883569         145.805         43.6209 
       0.889708         144.356         42.9347 
       0.895864         142.981         42.2615 
       0.902008         141.537         41.6043 
       0.908149         140.083         40.9616 
       0.914301         139.656         40.3315 
       0.920448         139.356         39.7153 
       0.926574         137.065         39.1143 
       0.932687          136.96          38.527 
       0.938823          135.87         37.9498 
       0.944975         134.802         37.3832 
       0.951105         133.555         36.8302 
       0.957225         132.972         36.2894 
       0.963368         131.808         35.7577 
       0.969511         130.651         35.2368 
       0.975621         129.302          34.729 
       0.981748         128.647         34.2301 
       0.987916         127.993         33.7378 
        0.99406         127.266         33.2571 
        1.00019         126.257         32.7868 
        1.00632         125.305          32.326 
        1.01246         124.566         31.8734 
        1.01859         123.754         31.4303 
        1.02471         122.882         30.9963 
        1.03085         121.841         30.5689 
        1.03698         120.963         30.1506 
        1.04314         120.539         29.7383 
        1.04929         119.985         29.3348 
        1.05541         119.102         28.9404 
        1.06154         118.081         28.5524 
        1.06769          117.39         28.1709 
        1.07382         116.746         27.7976 
        1.07993         115.925          27.432 
        1.08607         115.252         27.0715 
        1.09222         114.499         26.7172 
        1.09836         113.651         26.3696 
        1.10449          112.95         26.0287 
        1.11063         112.226         25.6934 
        1.11677         111.601         25.3642 
         1.1229         110.649         25.0414 
        1.12903         110.086          24.724 
        1.13518         109.361         24.4118 
        1.14131          108.81         24.1052 
        1.14745         108.255         23.8041 
        1.15359         107.088          23.508 
        1.15973         106.795          23.217 
        1.16584         106.126         22.9322 
        1.17197         105.618         22.6517 
        1.17811         104.674         22.3752 
        1.18424         104.152          22.104 
        1.19038         103.697         21.8366 
        1.19652         103.082         21.5738 
        1.20267         102.363         21.3153 
        1.20881         101.655         21.0611 
        1.21495         101.227         20.8114 
        1.22108         100.701         20.5658 
         1.2272         99.9012         20.3248 
        1.23334         99.6731         20.0872 
        1.23949         99.0581         19.8527 
        1.24562         98.2485         19.6227 
        1.25174         97.8617         19.3967 
        1.25789         97.1824         19.1735 
        1.26402         96.8332         18.9543 
        1.27014         96.1301         18.7391 
        1.27628         95.4408         18.5265 
        1.28244         95.3028         18.3169 
        1.28858         94.4146         18.1108 
        1.29471         93.9358         17.9083 
        1.30084         93.2555         17.7092 
        1.30697         92.9964         17.5128 
        1.31312         92.3694          17.319 
        1.31925         91.7161         17.1289 
        1.32537         91.3713         16.9418 
        1.33151         91.2065         16.7568 
        1.33765         90.3811         16.5747 
        1.34378         90.0074         16.3957 
        1.34992         89.7072         16.2192 
        1.35606         89.0621         16.0449 
         1.3622         88.8874         15.8735 
        1.36833         87.9795         15.7051 
        1.37445          87.685         15.5391 
        1.38059         87.2798         15.3751 
        1.38675         86.5499         15.2131 
        1.39288          86.158          15.054 
        1.39901         85.6222         14.8973 
        1.40515         85.2879         14.7425 
         1.4113         84.8433           14.59 
        1.41742         84.3409         14.4402 
        1.42355         84.0878         14.2922 
         1.4297         83.4716         14.1458 
        1.43585         83.0681         14.0016 
        1.44198         82.4977           13.86 
        1.44809         81.9507         13.7205 
        1.45423         81.9454         13.5825 
        1.46036         81.2492         13.4466 
        1.46649         80.7304         13.3126 
        1.47263         80.3826         13.1803 
        1.47877         79.9872         13.0498 
        1.48491         79.5633         12.9209 
        1.49104         78.9117          12.794 
        1.49718         78.7303         12.6688 
        1.50333         78.3852          12.545 
        1.50947         78.0589         12.4231 
         1.5156         77.7714          12.303 
        1.52172         77.0638         12.1845 
        1.52787         76.7177         12.0674 
          1.534         76.3292         11.9519 
        1.54013         76.1313         11.8381 
        1.54627         75.4417         11.7255 
        1.55241         75.3327         11.6144 
        1.55855         74.6726         11.5049 
        1.56467         74.1239         11.3971 
         1.5708         73.9105         11.2904 
        1.57695         73.6002         11.1849 
        1.58308         73.2225         11.0809 
        1.58922         73.0229         10.9783 
        1.59535         72.7756          10.877 
         1.6015         72.2949         10.7768 
        1.60764         71.8731         10.6779 
        1.61376         71.5624         10.5806 
        1.61989          70.983         10.4844 
        1.62604         70.8096         10.3891 
        1.63218         70.5326         10.2951 
        1.63831         70.1474         10.2025 
        1.64444         69.8496          10.111 
        1.65059         69.3929         10.0205 
        1.65673         69.0804         9.93108 
        1.66285         68.6193         9.84305 
        1.66898         68.2255         9.75605 
        1.67512         67.9119         9.66994 
        1.68127         67.7648          9.5848 
         1.6874         67.3084         9.50087 
        1.69353         66.9302           9.418 
        1.69967         66.6975         9.33592 
        1.70581         66.3637         9.25486 
        1.71193         65.9693         9.17507 
        1.71806         65.7214         9.09605 
        1.72421         65.4469         9.01781 
        1.73035         65.1167         8.94058 
        1.73649         64.7208         8.86427 
        1.74262         64.3047         8.78891 
        1.74876         64.1311         8.71438 
        1.75489         63.7792         8.64087 
        1.76101         63.4492         8.56822 
        1.76715         63.1719         8.49632 
        1.77329         62.7897         8.42515 
        1.77943          62.694         8.35476 
        1.78557         62.3534         8.28529 
        1.79171         61.9369          8.2166 
        1.79785         61.6341         8.14867 
        1.80399         61.4334         8.08152 
        1.81012         61.0791         8.01523 
        1.81625         60.7859          7.9497 
        1.82239         60.5002         7.88482 
        1.82853         60.1288         7.82069 
        1.83466         59.8801         7.75733 
        1.84078         59.6147         7.69475 
        1.84692         59.5244         7.63275 
        1.85306         59.1098         7.57137 
         1.8592         58.8453         7.51075 
        1.86533         58.5341         7.45084 
        1.87147         58.2231         7.39151 
        1.87761         57.9108          7.3328 
        1.88375         57.7006          7.2748 
        1.88988         57.3102         7.21749 
        1.89601         57.1728         7.16076 
        1.90215         56.7671          7.1046 
        1.90829         56.5637         7.04907 
        1.91442          56.228         6.99413 
        1.92056         56.1332         6.93983 
         1.9267         55.7672         6.88605 
        1.93284         55.5665          6.8328 
        1.93897         55.2245         6.78023 
        1.94509         54.9485         6.72831 
        1.95123         54.7399         6.67681 
        1.95737         54.5514         6.62582 
        1.96349         54.2722         6.57549 
        1.96964         53.9506         6.52553 
        1.97578         53.6721         6.47608 
        1.98192         53.4018         6.42724 
        1.98805         53.0486         6.37889 
        1.99419         52.9732         6.33104 
        2.00033         52.6762         6.28366 
        2.00647         52.4271         6.23678 
         2.0126         52.1976         6.19046 
        2.01874         52.1298         6.14453 
        2.02488           51.76         6.09903 
        2.03101         51.5508         6.05408 
        2.03714         51.2837         6.00962 
        2.04328         51.0283         5.96556 
        2.04941          50.615         5.92198 
        2.05554         50.5706         5.87886 
        2.06167         50.3878         5.83612 
        2.06781         50.1014         5.79379 
        2.07396         49.7987         5.75182 
        2.08009         49.5805         5.71035 
        2.08622         49.3998         5.66933 
        2.09237         49.1526         5.62863 
        2.09851          48.841         5.58832 
        2.10464         48.6541         5.54848 
        2.11077         48.4822         5.50907 
        2.11691         48.2382         5.46996 
        2.12305         47.9981         5.43123 
        2.12918         47.7514         5.39297 
        2.13531         47.4965         5.35507 
        2.14145         47.3263         5.31745 
         2.1476         47.2469         5.28015 
        2.15372         46.9779         5.24339 
        2.15985         46.6551         5.20694 
        2.16599         46.4373         5.17074 
        2.17213          46.259         5.13492 
        2.17827         46.0936         5.09945 
         2.1844         45.7472         5.06435 
        2.19054         45.7385         5.02956 
        2.19666         45.4377         4.99515 
         2.2028         45.1609         4.96103 
        2.20893         44.9888         4.92721 
        2.21508         44.7126         4.89367 
        2.22122         44.5403         4.86044 
        2.22736         44.3178         4.82758 
        2.23349         44.1768         4.79503 
        2.23962         43.9908         4.76276 
        2.24577          43.747         4.73077 
         2.2519         43.5276         4.69911 
        2.25802         43.3374          4.6678 
        2.26417         43.1259         4.63668 
        2.27031          42.963         4.60581 
        2.27644         42.8426         4.57532 
        2.28257         42.4861         4.54511 
        2.28872         42.4622         4.51511 
        2.29486         42.2176         4.48539 
        2.30099         41.9425           4.456 
        2.30712         41.8013         4.42686 
        2.31326          41.625         4.39792 
         2.3194         41.4311         4.36927 
        2.32553         41.2609         4.34092 
        2.33166         41.0427         4.31283 
         2.3378          40.814         4.28495 
        2.34394         40.6716         4.25731 
        2.35007         40.4899         4.22995 
        2.35619         40.3146         4.20287 
        2.36233         40.0658         4.17596 
        2.36848         40.0027         4.14923 
        2.37462         39.6592         4.12279 
        2.38075         39.6215          4.0966 
        2.38689         39.4438         4.07062 
        2.39303         39.2326         4.04488 
        2.39916         39.0257         4.01938 
        2.40529         38.9093          3.9941 
        2.41143         38.7299         3.96902 
        2.41757         38.6015         3.94415 
         2.4237         38.4051         3.91953 
        2.42983         38.1836         3.89513 
        2.43598         38.0415         3.87087 
        2.44211         37.8095         3.84686 
        2.44823         37.6376         3.82311 
        2.45437         37.5198         3.79949 
        2.46052         37.2806         3.77605 
        2.46665         37.1792         3.75285 
        2.47279         36.9141         3.72985 
        2.47892          36.854         3.70703 
        2.48507         36.7367         3.68438 
         2.4912         36.4339         3.66197 
