# k  (h/Mpc)    Pcb(k)  (Mpc/h)^3    Pcb_linear(k)  (Mpc/h)^3
     0.00783031         607.235         612.488 
       0.013688         806.899         808.369 
       0.019231         868.664         869.087 
      0.0249154         850.738         855.202 
      0.0312784         791.241         792.613 
      0.0375637         716.259         715.486 
      0.0433917          646.78         648.266 
      0.0492413         592.294         592.189 
      0.0555754         542.748         544.953 
      0.0619321         509.386           507.8 
       0.067871         475.986         477.526 
      0.0738098         445.826         447.662 
      0.0800417         411.813         414.626 
      0.0862327         378.654         380.192 
      0.0921407         346.712         347.491 
      0.0982031          314.97         316.305 
       0.104506         289.015         288.339 
       0.110769         266.441          265.91 
       0.116806         248.294         249.039 
       0.122832         235.967          235.73 
       0.129052         223.286         224.139 
       0.135211         212.282         213.315 
       0.141259         202.107         202.328 
       0.147318         191.096          190.62 
       0.153489         178.126         178.227 
       0.159709         166.104         165.915 
       0.165845         156.131         154.664 
       0.171974         145.288         144.842 
       0.178125          137.31         136.607 
       0.184229         131.036         129.915 
        0.19034         124.354         124.328 
       0.196428         120.179         119.401 
       0.202534         116.206         114.666 
       0.208729         110.805         109.771 
       0.214876         105.191         104.715 
       0.220989         101.163         99.5615 
       0.227147         95.0523         94.4343 
        0.23329         90.3888         89.5989 
       0.239377         86.4067         85.2502 
       0.245482         82.0968         81.4084 
       0.251667         79.4751         78.0264 
       0.257832          76.402         75.0656 
       0.263955         73.7489         72.3946 
       0.270079         71.2699         69.8549 
        0.27624          69.252          67.334 
       0.282372         66.6494         64.8132 
        0.28843         63.8746          62.316 
       0.294538         61.4445         59.8373 
       0.300721          59.485         57.4267 
        0.30691          56.864         55.1672 
       0.313033         54.9181         53.1118 
       0.319153         52.4688         51.2403 
       0.325316         51.5132          49.516 
        0.33145         49.7556         47.9235 
       0.337538          48.331         46.4236 
       0.343633         46.7529          44.971 
       0.349808         45.4358         43.5276 
       0.355968         44.0438         42.1123 
       0.362074         42.6394         40.7401 
       0.368217         41.3773         39.4051 
       0.374374           39.95         38.1271 
       0.380519          38.919         36.9213 
       0.386598         37.8585         35.8009 
       0.392688         36.9429         34.7457 
        0.39888         35.8581         33.7328 
       0.405048          34.988         32.7721 
       0.411186           34.15         31.8521 
       0.417313         33.0258         30.9623 
       0.423458          32.243         30.0941 
       0.429607         31.3175         29.2489 
       0.435692         30.4439         28.4389 
       0.441815         29.7804         27.6528 
       0.447964         29.2318         26.8953 
       0.454126          28.221           26.17 
       0.460267         27.5985           25.48 
       0.466387         26.8041         24.8222 
        0.47254         26.3396         24.1879 
       0.478662         25.8059         23.5802 
       0.484765         25.1126         22.9944 
       0.490885         24.5111         22.4247 
       0.497035         24.1759         21.8696 
       0.503198         23.5514         21.3303 
       0.509342         23.0015         20.8098 
       0.515458         22.4636          20.309 
       0.521598         22.0415         19.8241 
       0.527764         21.5259         19.3548 
       0.533884         21.1521         18.9055 
           0.54         20.7061         18.4721 
       0.546137         20.3227         18.0518 
       0.552299         19.9447         17.6433 
       0.558452         19.3594         17.2479 
       0.564573         19.1052          16.866 
       0.570708         18.7464         16.4944 
       0.576825         18.2704         16.1349 
       0.582926         17.9813         15.7871 
       0.589034         17.4775         15.4493 
       0.595184         17.2222         15.1196 
       0.601379         16.8791         14.7977 
       0.607522         16.6347         14.4883 
       0.613639         16.4275         14.1895 
       0.619772         16.0012         13.8987 
       0.625918         15.8411         13.6155 
       0.632068         15.5868           13.34 
       0.638161         15.2307         13.0745 
         0.6443         14.9276         12.8143 
       0.650464         14.6361         12.5604 
       0.656582         14.5062         12.3152 
       0.662703         14.2506         12.0767 
       0.668861         14.0083         11.8432 
       0.675024         13.7307         11.6159 
       0.681124         13.4962         11.3969 
       0.687237         13.3062         11.1833 
       0.693381         13.1262         10.9743 
       0.699536         12.7756         10.7704 
       0.705665         12.6341         10.5726 
       0.711789           12.44         10.3801 
       0.717957         12.2371          10.191 
        0.72409         12.0413         10.0077 
       0.730186         11.8787         9.83014 
       0.736317          11.759         9.65594 
       0.742472         11.5748          9.4854 
       0.748622         11.3808         9.31921 
        0.75476         11.1397         9.15745 
       0.760888         11.0245         8.99985 
       0.767043         10.8942          8.8454 
       0.773185         10.6767         8.69497 
       0.779291         10.5819         8.54894 
       0.785407         10.4166          8.4061 
       0.791564         10.2524         8.26567 
       0.797719         10.1078         8.12856 
       0.803834         10.0082         7.99547 
       0.809972         9.90064         7.86494 
       0.816124         9.70274         7.73707 
       0.822261         9.56472         7.61244 
       0.828378         9.45438         7.49097 
       0.834502         9.36464         7.37209 
       0.840667         9.19392         7.25506 
       0.846816         9.05475         7.14094 
       0.852925         8.97623         7.03003 
       0.859047          8.8614         6.92127 
       0.865192         8.77725         6.81449 
       0.871341          8.6741         6.70992 
       0.877463         8.55688         6.60805 
       0.883569         8.41216         6.50857 
       0.889708         8.28143         6.41066 
       0.895864         8.22155         6.31454 
       0.902008         8.11091         6.22061 
       0.908149         8.02319         6.12867 
       0.914301         7.89694         6.03846 
       0.920448         7.79437         5.95018 
       0.926574         7.69794         5.86399 
       0.932687         7.63663         5.77971 
       0.938823         7.54179          5.6968 
       0.944975         7.44233         5.61535 
       0.951105         7.37356         5.53581 
       0.957225         7.33174         5.45796 
       0.963368         7.22743         5.38136 
       0.969511         7.14143         5.30625 
       0.975621         7.04182           5.233 
       0.981748         6.97746         5.16096 
       0.987916         6.90621         5.08984 
        0.99406         6.79683         5.02034 
        1.00019         6.71661          4.9523 
        1.00632         6.67569         4.88559 
        1.01246         6.60539         4.82004 
        1.01859         6.52409          4.7558 
        1.02471         6.45304         4.69284 
        1.03085         6.39144         4.63081 
        1.03698         6.30721         4.57005 
        1.04314         6.25623         4.51013 
        1.04929         6.17442         4.45145 
        1.05541         6.11263         4.39405 
        1.06154         6.05682         4.33754 
        1.06769         6.01786         4.28195 
        1.07382          5.9307         4.22754 
        1.07993         5.86092          4.1742 
        1.08607         5.82955         4.12157 
        1.09222         5.76635         4.06981 
        1.09836         5.72047           4.019 
        1.10449         5.65547         3.96914 
        1.11063         5.59987         3.92007 
        1.11677          5.5476         3.87186 
         1.1229         5.49207         3.82455 
        1.12903         5.43539           3.778 
        1.13518         5.39011         3.73219 
        1.14131         5.31781         3.68717 
        1.14745         5.25044         3.64293 
        1.15359         5.23016         3.59942 
        1.15973         5.16658          3.5566 
        1.16584         5.13163         3.51468 
        1.17197           5.082         3.47338 
        1.17811          5.0361         3.43263 
        1.18424         5.00852         3.39266 
        1.19038         4.95831         3.35321 
        1.19652         4.91174         3.31441 
        1.20267         4.86326         3.27623 
        1.20881         4.81773         3.23867 
        1.21495         4.78352         3.20176 
        1.22108         4.73786         3.16544 
         1.2272         4.71519         3.12977 
        1.23334         4.65273         3.09458 
        1.23949         4.60931         3.05985 
        1.24562         4.58864         3.02575 
        1.25174         4.53085         2.99223 
        1.25789          4.5004         2.95913 
        1.26402         4.45283         2.92659 
        1.27014         4.41231         2.89462 
        1.27628         4.39577         2.86304 
        1.28244         4.33842         2.83187 
        1.28858         4.31723         2.80122 
        1.29471         4.27572         2.77109 
        1.30084         4.23607         2.74144 
        1.30697         4.22356         2.71219 
        1.31312         4.15054         2.68332 
        1.31925         4.13936         2.65497 
        1.32537         4.10588         2.62706 
        1.33151         4.07982         2.59945 
        1.33765          4.0294         2.57226 
        1.34378         3.99676         2.54552 
        1.34992         3.98695         2.51915 
        1.35606         3.93516         2.49309 
         1.3622         3.91835         2.46745 
        1.36833         3.88562         2.44224 
        1.37445         3.85408          2.4174 
        1.38059         3.82945         2.39283 
        1.38675         3.80996         2.36854 
        1.39288         3.76556         2.34469 
        1.39901         3.73526         2.32118 
        1.40515         3.71278         2.29795 
         1.4113         3.68526         2.27504 
        1.41742         3.66053         2.25253 
        1.42355         3.64129         2.23029 
         1.4297         3.59796         2.20829 
        1.43585         3.58552          2.1866 
        1.44198         3.56552         2.16528 
        1.44809         3.51978         2.14428 
        1.45423         3.49771          2.1235 
        1.46036         3.47406         2.10302 
        1.46649         3.44417         2.08282 
        1.47263         3.41918         2.06286 
        1.47877         3.38918         2.04318 
        1.48491         3.36842         2.02372 
        1.49104         3.35359         2.00456 
        1.49718          3.3304         1.98564 
        1.50333          3.3053         1.96694 
        1.50947         3.28541         1.94851 
         1.5156          3.2627         1.93035 
        1.52172         3.24074         1.91243 
        1.52787         3.21547          1.8947 
          1.534         3.19891         1.87721 
        1.54013         3.17188         1.85997 
        1.54627         3.14427         1.84292 
        1.55241         3.12403         1.82607 
        1.55855          3.1108         1.80947 
        1.56467         3.08951         1.79312 
         1.5708         3.05775         1.77692 
        1.57695          3.0472         1.76091 
        1.58308         3.02528         1.74513 
        1.58922         3.01026         1.72953 
        1.59535         2.98907         1.71413 
         1.6015         2.97054          1.6989 
        1.60764         2.95376         1.68386 
        1.61376         2.93319         1.66905 
        1.61989         2.91236         1.65441 
        1.62604         2.89224          1.6399 
        1.63218         2.88411         1.62559 
        1.63831         2.85331         1.61148 
        1.64444         2.83624         1.59753 
        1.65059         2.82408         1.58371 
        1.65673         2.80544         1.57008 
        1.66285         2.78322         1.55664 
        1.66898          2.7729         1.54336 
        1.67512         2.74872         1.53021 
        1.68127          2.7339          1.5172 
         1.6874         2.72262         1.50438 
        1.69353         2.69437         1.49171 
        1.69967         2.68211         1.47916 
        1.70581         2.67577         1.46676 
        1.71193         2.65373         1.45454 
        1.71806         2.64255         1.44245 
        1.72421         2.62426         1.43046 
        1.73035         2.60787         1.41863 
        1.73649         2.59169         1.40694 
        1.74262         2.57696         1.39539 
        1.74876         2.56669         1.38396 
        1.75489         2.54467         1.37268 
        1.76101         2.52988         1.36153 
        1.76715         2.51708          1.3505 
        1.77329         2.50218         1.33957 
        1.77943         2.48524         1.32876 
        1.78557         2.47335         1.31809 
        1.79171         2.46307         1.30753 
        1.79785         2.44494         1.29709 
        1.80399         2.43444         1.28676 
        1.81012         2.42553         1.27656 
        1.81625         2.40407         1.26648 
        1.82239         2.39042         1.25649 
        1.82853         2.37113         1.24661 
        1.83466         2.36594         1.23686 
        1.84078         2.35146         1.22721 
        1.84692         2.34063         1.21766 
        1.85306         2.32408         1.20819 
         1.8592          2.3145         1.19885 
        1.86533         2.30024          1.1896 
        1.87147         2.29112         1.18045 
        1.87761         2.27854         1.17138 
        1.88375         2.25775         1.16243 
        1.88988         2.25318         1.15358 
        1.89601         2.23769         1.14481 
        1.90215         2.22335         1.13613 
        1.90829         2.21318         1.12755 
        1.91442         2.20128         1.11905 
        1.92056         2.19042         1.11065 
         1.9267         2.18107         1.10233 
        1.93284         2.17108         1.09409 
        1.93897         2.15831         1.08595 
        1.94509         2.14376         1.07791 
        1.95123         2.13137         1.06993 
        1.95737         2.12167         1.06203 
        1.96349         2.11114         1.05423 
        1.96964         2.10298         1.04648 
        1.97578         2.09123         1.03881 
        1.98192         2.08328         1.03123 
        1.98805         2.06793         1.02373 
        1.99419         2.05963          1.0163 
        2.00033         2.05591         1.00895 
        2.00647         2.03862         1.00167 
         2.0126         2.03255        0.994469 
        2.01874         2.01813        0.987332 
        2.02488         2.00993         0.98026 
        2.03101         1.99674         0.97327 
        2.03714          1.9836        0.966356 
        2.04328         1.97995        0.959501 
        2.04941         1.96651        0.952719 
        2.05554          1.9611        0.946008 
        2.06167         1.94766        0.939353 
        2.06781         1.94084        0.932762 
        2.07396         1.93043        0.926225 
        2.08009         1.92144        0.919762 
        2.08622         1.90836        0.913369 
        2.09237         1.90788        0.907024 
        2.09851         1.89734        0.900739 
        2.10464         1.88806        0.894524 
        2.11077         1.87641        0.888376 
        2.11691         1.86576        0.882273 
        2.12305         1.86098        0.876226 
        2.12918          1.8505        0.870252 
        2.13531         1.84375        0.864333 
        2.14145         1.83172        0.858455 
         2.1476         1.82415        0.852626 
        2.15372         1.81609        0.846881 
        2.15985         1.80732        0.841183 
        2.16599         1.79717        0.835521 
        2.17213         1.79026        0.829918 
        2.17827         1.78493        0.824368 
         2.1844         1.77639        0.818874 
        2.19054         1.77025        0.813429 
        2.19666          1.7589        0.808041 
         2.2028          1.7526        0.802697 
        2.20893         1.74036          0.7974 
        2.21508         1.73817        0.792144 
        2.22122         1.72572        0.786935 
        2.22736         1.71637        0.781784 
        2.23349         1.71549         0.77668 
        2.23962         1.70345        0.771619 
        2.24577         1.69516          0.7666 
         2.2519         1.68821        0.761632 
        2.25802         1.68489        0.756717 
        2.26417         1.67186        0.751832 
        2.27031         1.66885        0.746985 
        2.27644         1.66079        0.742196 
        2.28257         1.65397        0.737449 
        2.28872         1.64465        0.732735 
        2.29486         1.64087        0.728063 
        2.30099         1.63086        0.723442 
        2.30712         1.62535        0.718859 
        2.31326         1.62069        0.714309 
         2.3194          1.6124        0.709801 
        2.32553         1.60615        0.705339 
        2.33166         1.59722        0.700918 
         2.3378         1.58991        0.696529 
        2.34394         1.58173        0.692176 
        2.35007         1.57654        0.687867 
        2.35619         1.57296        0.683601 
        2.36233         1.56274         0.67936 
        2.36848         1.55845        0.675147 
        2.37462         1.55118        0.670979 
        2.38075         1.54643         0.66685 
        2.38689         1.53881        0.662753 
        2.39303         1.53407        0.658691 
        2.39916         1.52461        0.654668 
        2.40529         1.52256        0.650679 
        2.41143         1.51473         0.64672 
        2.41757         1.50719        0.642793 
         2.4237         1.50243        0.638906 
        2.42983         1.49557        0.635051 
        2.43598         1.49152        0.631219 
        2.44211         1.48453        0.627424 
        2.44823         1.47832         0.62367 
        2.45437         1.47357        0.619935 
        2.46052         1.46945        0.616229 
        2.46665         1.46325         0.61256 
        2.47279         1.45674        0.608922 
        2.47892         1.44927        0.605311 
        2.48507         1.44501        0.601726 
         2.4912         1.43862        0.598177 
