# k  (h/Mpc)    Pcb(k)  (Mpc/h)^3    Pcb_linear(k)  (Mpc/h)^3
     0.00783031         3552.68         3590.32 
       0.013688         4747.01         4735.05 
       0.019231         5090.53          5089.4 
      0.0249154         4951.63         5007.42 
      0.0312784         4614.47         4640.56 
      0.0375637         4185.92         4188.79 
      0.0433917         3755.88         3795.14 
      0.0492413         3450.38         3466.78 
      0.0555754         3137.65         3190.19 
      0.0619321         2975.24         2972.66 
       0.067871         2753.74         2795.41 
      0.0738098         2577.32         2620.57 
      0.0800417         2369.03         2427.16 
      0.0862327         2185.93         2225.58 
      0.0921407         2009.99         2034.15 
      0.0982031         1821.56         1851.58 
       0.104506         1688.86         1687.87 
       0.110769         1556.98         1556.58 
       0.116806         1447.24         1457.81 
       0.122832         1379.43          1379.9 
       0.129052         1295.58         1312.05 
       0.135211         1233.35         1248.69 
       0.141259         1180.62         1184.37 
       0.147318         1119.18         1115.83 
       0.153489         1039.11         1043.29 
       0.159709         977.242         971.217 
       0.165845         928.291         905.356 
       0.171974         864.611         847.862 
       0.178125          819.51         799.657 
       0.184229         785.391         760.483 
        0.19034          737.38         727.774 
       0.196428         721.888         698.934 
       0.202534         700.975          671.22 
       0.208729         668.369         642.566 
       0.214876         633.558         612.966 
       0.220989         615.577           582.8 
       0.227147         578.395         552.787 
        0.23329         553.838         524.482 
       0.239377         537.334         499.026 
       0.245482          503.97         476.537 
       0.251667         495.734          456.74 
       0.257832         478.865         439.409 
       0.263955          462.65         423.774 
       0.270079         448.081         408.907 
        0.27624         440.797          394.15 
       0.282372         423.314         379.394 
        0.28843         409.076         364.777 
       0.294538         392.595         350.267 
       0.300721         387.256         336.156 
        0.30691          369.66          322.93 
       0.313033         360.345         310.898 
       0.319153         345.974         299.943 
       0.325316         338.154          289.85 
        0.33145         327.746         280.528 
       0.337538         323.106         271.747 
       0.343633         313.019         263.245 
       0.349808         304.097         254.795 
       0.355968         298.491         246.511 
       0.362074         290.525         238.478 
       0.368217         283.186         230.663 
       0.374374         274.775         223.183 
       0.380519         269.072         216.125 
       0.386598         262.579         209.566 
       0.392688         258.979         203.389 
        0.39888         252.314          197.46 
       0.405048         247.346         191.836 
       0.411186         242.116         186.451 
       0.417313         236.739         181.242 
       0.423458         232.185          176.16 
       0.429607          226.57         171.213 
       0.435692          219.91         166.471 
       0.441815         218.518          161.87 
       0.447964           215.1         157.436 
       0.454126         206.188          153.19 
       0.460267         203.867         149.151 
       0.466387         200.777           145.3 
        0.47254         197.386         141.587 
       0.478662         195.029          138.03 
       0.484765         190.264         134.601 
       0.490885         187.172         131.266 
       0.497035         184.832         128.017 
       0.503198         180.063          124.86 
       0.509342         177.101         121.813 
       0.515458         174.738         118.882 
       0.521598         172.837         116.043 
       0.527764         170.061         113.296 
       0.533884         167.114         110.666 
           0.54         164.745         108.129 
       0.546137         163.409         105.669 
       0.552299         161.018         103.278 
       0.558452         157.454         100.963 
       0.564573         154.657         98.7275 
       0.570708         153.137         96.5521 
       0.576825         150.708         94.4477 
       0.582926         148.453         92.4119 
       0.589034         145.559         90.4349 
       0.595184         144.309         88.5048 
       0.601379         143.003         86.6206 
       0.607522         139.485         84.8096 
       0.613639         139.489         83.0604 
       0.619772         136.188         81.3577 
       0.625918         135.246            79.7 
       0.632068         133.622         78.0874 
       0.638161         132.093         76.5334 
         0.6443         130.326         75.0106 
       0.650464         128.695          73.524 
       0.656582         127.447         72.0889 
       0.662703         125.044         70.6925 
       0.668861          124.05         69.3259 
       0.675024         122.552         67.9951 
       0.681124         121.145         66.7135 
       0.687237          119.17         65.4633 
       0.693381         118.035         64.2399 
       0.699536         116.527         63.0462 
       0.705665         117.155         61.8885 
       0.711789         114.065         60.7612 
       0.717957         113.553         59.6545 
        0.72409           111.9         58.5817 
       0.730186         110.151         57.5421 
       0.736317         109.995         56.5224 
       0.742472         108.537         55.5241 
       0.748622         107.881         54.5513 
        0.75476         106.647         53.6044 
       0.760888          105.32         52.6819 
       0.767043         104.271         51.7778 
       0.773185         103.152         50.8972 
       0.779291         102.461         50.0424 
       0.785407         101.641         49.2063 
       0.791564         100.223         48.3842 
       0.797719         99.0271         47.5817 
       0.803834         98.7166         46.8026 
       0.809972         97.1024         46.0385 
       0.816124         96.2983           45.29 
       0.822261         95.7728         44.5605 
       0.828378         94.8396         43.8494 
       0.834502         93.8882         43.1535 
       0.840667         93.2313         42.4685 
       0.846816         92.2191         41.8005 
       0.852925         91.2948         41.1512 
       0.859047         90.1838         40.5146 
       0.865192         90.0518         39.8896 
       0.871341         89.3683         39.2775 
       0.877463         87.8774         38.6811 
       0.883569         87.4414         38.0988 
       0.889708          87.038         37.5257 
       0.895864         86.1762          36.963 
       0.902008         85.5628         36.4132 
       0.908149          84.935          35.875 
       0.914301         84.1905          35.347 
       0.920448         83.3204         34.8302 
       0.926574         82.9214         34.3257 
       0.932687          82.256         33.8323 
       0.938823         81.1285          33.347 
       0.944975         81.0214         32.8702 
       0.951105         80.1976         32.4046 
       0.957225         79.2947         31.9489 
       0.963368         78.9904         31.5005 
       0.969511         78.5371         31.0609 
       0.975621         77.9492         30.6321 
       0.981748         77.1031         30.2104 
       0.987916         76.8001          29.794 
        0.99406         76.4055         29.3872 
        1.00019         75.2726         28.9889 
        1.00632         75.1174         28.5985 
        1.01246         74.3793         28.2147 
        1.01859         73.6821         27.8387 
        1.02471         73.8697         27.4702 
        1.03085         73.0187         27.1071 
        1.03698         72.2818         26.7514 
        1.04314         71.5923         26.4007 
        1.04929         71.4731         26.0572 
        1.05541         70.7467         25.7212 
        1.06154         70.5445         25.3904 
        1.06769         69.9167          25.065 
        1.07382         69.5173         24.7465 
        1.07993         69.3231         24.4342 
        1.08607         68.6087         24.1262 
        1.09222         68.3661         23.8232 
        1.09836         67.7469         23.5258 
        1.10449          67.394         23.2339 
        1.11063         66.5523         22.9467 
        1.11677         66.3479         22.6645 
         1.1229         66.1455         22.3875 
        1.12903         65.2783          22.115 
        1.13518         65.1785         21.8469 
        1.14131         65.0099         21.5834 
        1.14745         64.2476         21.3244 
        1.15359         63.9853         21.0697 
        1.15973         63.3442         20.8191 
        1.16584         62.9635         20.5737 
        1.17197         62.8497         20.3319 
        1.17811         62.3178         20.0934 
        1.18424         61.7938         19.8594 
        1.19038         61.7556         19.6285 
        1.19652         61.3275         19.4013 
        1.20267         60.8931         19.1779 
        1.20881         60.4849          18.958 
        1.21495         60.1003         18.7419 
        1.22108         59.7125         18.5293 
         1.2272         59.1651         18.3205 
        1.23334         58.9899         18.1145 
        1.23949         58.7263         17.9112 
        1.24562         58.4639         17.7116 
        1.25174         58.1093         17.5154 
        1.25789         57.8174         17.3216 
        1.26402         57.4374         17.1312 
        1.27014         56.9641          16.944 
        1.27628         56.7435         16.7592 
        1.28244         56.3504         16.5768 
        1.28858         56.1224         16.3973 
        1.29471         55.8592          16.221 
        1.30084         55.5279         16.0474 
        1.30697         55.0833         15.8761 
        1.31312         54.6899         15.7072 
        1.31925         54.5866         15.5412 
        1.32537          54.301         15.3778 
        1.33151          53.956         15.2162 
        1.33765         53.8502         15.0571 
        1.34378         53.5938         14.9006 
        1.34992         52.7792         14.7462 
        1.35606         52.6899         14.5936 
         1.3622         52.3833         14.4436 
        1.36833         52.2007          14.296 
        1.37445         52.0943         14.1506 
        1.38059         51.8652         14.0067 
        1.38675         51.4444         13.8646 
        1.39288         51.2128          13.725 
        1.39901         50.7849         13.5874 
        1.40515         50.5679         13.4513 
         1.4113         50.4855         13.3172 
        1.41742         49.8946         13.1855 
        1.42355         49.9173         13.0553 
         1.4297         49.5252         12.9265 
        1.43585          49.467         12.7995 
        1.44198         49.0447         12.6747 
        1.44809         48.8397         12.5519 
        1.45423         48.6751         12.4302 
        1.46036         48.4331         12.3103 
        1.46649         48.1507          12.192 
        1.47263         47.9173         12.0752 
        1.47877         47.6856           11.96 
        1.48491         47.4228         11.8461 
        1.49104         47.2665          11.734 
        1.49718         46.8608         11.6232 
        1.50333         46.7201         11.5137 
        1.50947          46.452         11.4059 
         1.5156         46.2209         11.2996 
        1.52172         45.9266         11.1946 
        1.52787         45.9148         11.0909 
          1.534         45.5693         10.9885 
        1.54013         45.2814         10.8876 
        1.54627         45.2309         10.7878 
        1.55241         44.9484         10.6892 
        1.55855         44.7305          10.592 
        1.56467         44.4772         10.4963 
         1.5708         44.2997         10.4015 
        1.57695         43.9658         10.3077 
        1.58308          44.018         10.2153 
        1.58922         43.7133          10.124 
        1.59535         43.3777         10.0339 
         1.6015         43.2569         9.94474 
        1.60764         43.1382         9.85671 
        1.61376          42.914         9.77001 
        1.61989          42.519         9.68428 
        1.62604          42.451          9.5994 
        1.63218         42.1359         9.51559 
        1.63831         42.0497         9.43299 
        1.64444         41.8761         9.35134 
        1.65059          41.546         9.27048 
        1.65673         41.4645         9.19066 
        1.66285         41.2776         9.11202 
        1.66898         41.0008         9.03428 
        1.67512         40.8679          8.9573 
        1.68127         40.5809         8.88116 
         1.6874         40.5215         8.80608 
        1.69353         40.3498         8.73191 
        1.69967         40.1218         8.65844 
        1.70581         39.8944         8.58584 
        1.71193         39.6427         8.51436 
        1.71806         39.5942         8.44355 
        1.72421         39.3438         8.37341 
        1.73035         39.2632         8.30415 
        1.73649         39.0051          8.2357 
        1.74262         38.8083         8.16808 
        1.74876         38.6919         8.10118 
        1.75489         38.4384         8.03517 
        1.76101         38.3031         7.96992 
        1.76715         38.1432         7.90531 
        1.77329         38.0146         7.84135 
        1.77943         37.8374         7.77807 
        1.78557         37.6263         7.71559 
        1.79171         37.4602         7.65379 
        1.79785         37.3376         7.59266 
        1.80399         37.1857         7.53221 
        1.81012          37.031         7.47251 
        1.81625         36.8427         7.41349 
        1.82239         36.7021         7.35503 
        1.82853         36.4031         7.29722 
        1.83466         36.2862          7.2401 
        1.84078         36.0514         7.18365 
        1.84692         36.0483         7.12772 
        1.85306         35.7604         7.07232 
         1.8592          35.692          7.0176 
        1.86533          35.469         6.96349 
        1.87147         35.3717          6.9099 
        1.87761         35.3172         6.85685 
        1.88375         35.0405         6.80442 
        1.88988         35.0004          6.7526 
        1.89601         34.7647          6.7013 
        1.90215         34.6292         6.65049 
        1.90829         34.5101         6.60024 
        1.91442         34.3071         6.55051 
        1.92056         34.1848         6.50134 
         1.9267         34.0427         6.45262 
        1.93284         33.8921         6.40438 
        1.93897          33.761         6.35673 
        1.94509         33.6273         6.30967 
        1.95123         33.4552         6.26297 
        1.95737         33.2785         6.21672 
        1.96349         33.1609         6.17105 
        1.96964         32.9603         6.12571 
        1.97578         32.8998         6.08081 
        1.98192         32.6905         6.03646 
        1.98805         32.6014         5.99254 
        1.99419         32.4334         5.94906 
        2.00033         32.2769           5.906 
        2.00647         32.1796         5.86338 
         2.0126         31.9446         5.82125 
        2.01874         31.8888         5.77947 
        2.02488          31.824         5.73807 
        2.03101         31.7179         5.69716 
        2.03714         31.4569         5.65669 
        2.04328         31.3358         5.61656 
        2.04941         31.2214         5.57686 
        2.05554          31.141         5.53758 
        2.06167         30.9837         5.49862 
        2.06781          30.862         5.46004 
        2.07396         30.7062         5.42177 
        2.08009         30.6785         5.38394 
        2.08622         30.4931         5.34652 
        2.09237         30.4042         5.30938 
        2.09851         30.2093         5.27259 
        2.10464         30.1276         5.23621 
        2.11077         29.9523         5.20022 
        2.11691         29.9301         5.16449 
        2.12305         29.7166          5.1291 
        2.12918         29.6426         5.09413 
        2.13531          29.519         5.05948 
        2.14145         29.3786         5.02508 
         2.1476         29.2068         4.99095 
        2.15372         29.1378         4.95732 
        2.15985         28.9435         4.92397 
        2.16599         28.9314         4.89083 
        2.17213           28.79         4.85803 
        2.17827          28.638         4.82554 
         2.1844         28.5225         4.79338 
        2.19054         28.4499         4.76151 
        2.19666         28.3135         4.72997 
         2.2028         28.2102         4.69869 
        2.20893         28.0558         4.66768 
        2.21508         27.9859         4.63692 
        2.22122         27.8068         4.60642 
        2.22736         27.7384         4.57627 
        2.23349         27.6338         4.54639 
        2.23962         27.5222         4.51677 
        2.24577         27.3573         4.48739 
         2.2519         27.2649         4.45831 
        2.25802         27.1877         4.42954 
        2.26417         27.0712         4.40094 
        2.27031         26.9703         4.37257 
        2.27644         26.9051         4.34453 
        2.28257         26.7643         4.31675 
        2.28872          26.617         4.28915 
        2.29486         26.5564         4.26181 
        2.30099         26.4401         4.23476 
        2.30712         26.3697         4.20793 
        2.31326         26.2387         4.18129 
         2.3194         26.0896         4.15491 
        2.32553         25.9999         4.12879 
        2.33166         25.8933         4.10291 
         2.3378         25.7923         4.07722 
        2.34394         25.6688         4.05174 
        2.35007         25.5445         4.02652 
        2.35619         25.4593         4.00154 
        2.36233         25.3677         3.97672 
        2.36848          25.278         3.95206 
        2.37462         25.1918         3.92766 
        2.38075         25.1002         3.90349 
        2.38689         25.0088         3.87951 
        2.39303         24.8779         3.85573 
        2.39916         24.7651         3.83218 
        2.40529          24.669         3.80883 
        2.41143         24.6145         3.78566 
        2.41757         24.5257         3.76267 
         2.4237         24.3743         3.73991 
        2.42983         24.2995         3.71735 
        2.43598         24.2217         3.69492 
        2.44211         24.0615          3.6727 
        2.44823         23.9957         3.65072 
        2.45437          23.903         3.62887 
        2.46052         23.8495         3.60717 
        2.46665         23.7613         3.58569 
        2.47279         23.6625          3.5644 
        2.47892         23.5395         3.54326 
        2.48507         23.4683         3.52228 
         2.4912         23.3879          3.5015 
