# k  (h/Mpc)    Pcb(k)  (Mpc/h)^3    Pcb_linear(k)  (Mpc/h)^3
     0.00783031         9076.48          9197.3 
       0.013688         10084.2         10027.4 
       0.019231         9074.07         9040.03 
      0.0249154         7311.02         7388.69 
      0.0312784         5584.14         5583.92 
      0.0375637         4285.59         4244.99 
      0.0433917         3452.35         3452.92 
      0.0492413         3015.66         3000.11 
      0.0555754         2715.02         2743.48 
      0.0619321         2602.25         2574.22 
       0.067871         2372.04         2391.98 
      0.0738098         2130.02         2144.83 
      0.0800417         1816.43         1832.84 
      0.0862327         1529.43         1522.62 
      0.0921407         1301.43         1273.98 
      0.0982031         1110.41         1091.49 
       0.104506         1018.71         978.743 
       0.110769         955.486         924.394 
       0.116806         919.579         899.235 
       0.122832         894.795         874.544 
       0.129052          836.12         830.315 
       0.135211         772.255         762.456 
       0.141259         704.366         680.486 
       0.147318         629.428         597.488 
       0.153489           555.6         525.406 
       0.159709         508.578         472.811 
       0.165845         480.154         440.852 
       0.171974           456.3         423.756 
       0.178125         443.649         413.903 
       0.184229          430.37         403.764 
        0.19034         404.223         387.947 
       0.196428         389.034         364.992 
       0.202534         367.665         336.812 
       0.208729         338.035          307.13 
       0.214876         312.351         280.735 
       0.220989          294.82          260.06 
       0.227147         278.779         245.397 
        0.23329         267.305         235.772 
       0.239377         261.411         229.047 
       0.245482         245.715         222.796 
       0.251667         242.399         215.147 
       0.257832         232.829          205.46 
       0.263955         221.915         194.142 
       0.270079          210.03         182.195 
        0.27624         203.377         170.829 
       0.282372         194.682         161.088 
        0.28843         185.931           153.4 
       0.294538         177.301         147.411 
       0.300721         174.587         142.587 
        0.30691         166.808         138.269 
       0.313033          162.39         133.876 
       0.319153         155.247         129.017 
       0.325316         151.486          123.63 
        0.33145         144.942         118.018 
       0.337538         141.523         112.562 
       0.343633         135.728         107.525 
       0.349808         130.931          103.07 
       0.355968         128.124         99.2687 
       0.362074         124.468         96.0357 
       0.368217         120.587         93.0951 
       0.374374          116.42         90.2571 
       0.380519         114.188         87.3932 
       0.386598         110.899         84.4541 
       0.392688         108.537         81.4585 
        0.39888         105.459         78.4396 
       0.405048          102.28         75.5607 
       0.411186         99.7597         72.9143 
       0.417313         97.1584         70.5112 
       0.423458         94.7112         68.3217 
       0.429607         92.4089         66.3087 
       0.435692         89.1576         64.4222 
       0.441815         88.1471         62.5671 
       0.447964         86.3276         60.7253 
       0.454126         82.4013         58.8918 
       0.460267         81.3237         57.0864 
       0.466387         79.8382         55.3402 
        0.47254         77.8715         53.6694 
       0.478662         77.0826         52.1026 
       0.484765         74.4427         50.6338 
       0.490885         73.0297         49.2487 
       0.497035         71.9979         47.9299 
       0.503198         69.8196         46.6587 
       0.509342         68.3848         45.4227 
       0.515458         67.1599         44.2189 
       0.521598         65.8981           43.04 
       0.527764         64.8676         41.8895 
       0.533884         63.8485         40.7846 
           0.54         62.2746         39.7226 
       0.546137         61.5581         38.7034 
       0.552299         60.4654         37.7283 
       0.558452         58.9796         36.7971 
       0.564573         57.8945         35.9047 
       0.570708         56.8909         35.0378 
       0.576825         56.0845         34.1973 
       0.582926         54.7268         33.3829 
       0.589034         53.7083         32.5914 
       0.595184          52.918         31.8189 
       0.601379         51.9558         31.0656 
       0.607522         50.8237          30.343 
       0.613639          50.492         29.6477 
       0.619772         49.4028         28.9745 
       0.625918         48.6602         28.3234 
       0.632068         48.0506         27.6935 
       0.638161         47.3776         27.0889 
         0.6443         46.6553         26.4977 
       0.650464         46.0052         25.9206 
       0.656582         45.2499         25.3633 
       0.662703          44.356         24.8213 
       0.668861         43.7186         24.2916 
       0.675024          43.181         23.7772 
       0.681124         42.5235         23.2836 
       0.687237         41.6604         22.8039 
       0.693381         41.2121         22.3362 
       0.699536         40.5805         21.8813 
       0.705665         40.5515         21.4412 
       0.711789         39.5329         21.0135 
       0.717957         39.0664         20.5943 
        0.72409         38.4453         20.1885 
       0.730186         37.8403         19.7958 
       0.736317         37.6731         19.4113 
       0.742472         37.1192         19.0356 
       0.748622         36.5837         18.6702 
        0.75476         36.1663         18.3153 
       0.760888         35.5938         17.9703 
       0.767043         35.1612          17.633 
       0.773185         34.6985         17.3052 
       0.779291         34.3978         16.9877 
       0.785407         34.0644         16.6778 
       0.791564         33.6561         16.3737 
       0.797719          32.941         16.0773 
       0.803834         32.7946         15.7901 
       0.809972         32.1872         15.5089 
       0.816124         31.8824         15.2339 
       0.822261         31.5749         14.9663 
       0.828378         31.3774         14.7059 
       0.834502          30.925         14.4515 
       0.840667         30.5742         14.2015 
       0.846816         30.0758         13.9582 
       0.852925         29.8491          13.722 
       0.859047         29.4217         13.4909 
       0.865192         29.1642         13.2643 
       0.871341         28.9924         13.0428 
       0.877463         28.4355         12.8274 
       0.883569         28.1923         12.6174 
       0.889708         27.9495          12.411 
       0.895864         27.6377         12.2088 
       0.902008         27.3729         12.0114 
       0.908149         27.0993         11.8186 
       0.914301         26.9133         11.6297 
       0.920448         26.6479         11.4451 
       0.926574         26.2663         11.2652 
       0.932687         26.0859         11.0895 
       0.938823          25.707         10.9169 
       0.944975         25.5256         10.7477 
       0.951105         25.2562         10.5826 
       0.957225         24.9403         10.4213 
       0.963368         24.9479         10.2628 
       0.969511         24.6049         10.1076 
       0.975621         24.4654         9.95646 
       0.981748         24.0915         9.80802 
       0.987916         23.8728         9.66168 
        0.99406         23.7268         9.51888 
        1.00019         23.4644         9.37925 
        1.00632         23.2851         9.24255 
        1.01246         23.1684         9.10838 
        1.01859          22.799         8.97709 
        1.02471         22.7039         8.84855 
        1.03085         22.5063         8.72208 
        1.03698         22.1899         8.59836 
        1.04314          22.066          8.4765 
        1.04929         21.8431          8.3573 
        1.05541         21.6221         8.24086 
        1.06154         21.5569         8.12636 
        1.06769         21.3222         8.01386 
        1.07382         21.1831         7.90386 
        1.07993         21.0304         7.79617 
        1.08607         20.8089         7.69005 
        1.09222         20.6591         7.58579 
        1.09836         20.4608          7.4836 
        1.10449         20.3224          7.3834 
        1.11063         20.0493         7.28492 
        1.11677         19.9622         7.18828 
         1.1229         19.8141         7.09355 
        1.12903           19.59         7.00045 
        1.13518          19.574         6.90895 
        1.14131         19.4112         6.81913 
        1.14745         19.1447         6.73096 
        1.15359         19.1103         6.64433 
        1.15973         18.8686         6.55919 
        1.16584         18.7366         6.47593 
        1.17197          18.645         6.39399 
        1.17811          18.476         6.31322 
        1.18424         18.3245         6.23408 
        1.19038         18.2343         6.15607 
        1.19652          18.163         6.07942 
        1.20267         17.9982         6.00408 
        1.20881         17.8307         5.93003 
        1.21495         17.7088         5.85734 
        1.22108         17.5792         5.78589 
         1.2272         17.4158          5.7158 
        1.23334         17.3523          5.6467 
        1.23949          17.255         5.57859 
        1.24562         17.0701         5.51178 
        1.25174         17.0048         5.44617 
        1.25789         16.8607         5.38143 
        1.26402          16.728         5.31785 
        1.27014         16.5725         5.25546 
        1.27628         16.4839         5.19388 
        1.28244         16.4122         5.13316 
        1.28858          16.306         5.07349 
        1.29471         16.2045          5.0149 
        1.30084         16.0896         4.95729 
        1.30697         15.9918          4.9005 
        1.31312         15.8594         4.84451 
        1.31925         15.7455         4.78957 
        1.32537         15.6455         4.73554 
        1.33151         15.5602         4.68215 
        1.33765         15.4835         4.62961 
        1.34378         15.3425         4.57798 
        1.34992         15.2315          4.5271 
        1.35606         15.1687         4.47689 
         1.3622         15.0987         4.42752 
        1.36833         14.9458         4.37902 
        1.37445         14.9197         4.33127 
        1.38059         14.7763         4.28408 
        1.38675         14.6154         4.23748 
        1.39288         14.5961         4.19176 
        1.39901         14.4934         4.14673 
        1.40515         14.4181         4.10226 
         1.4113         14.3242         4.05846 
        1.41742          14.221         4.01547 
        1.42355         14.1825         3.97302 
         1.4297         14.0992         3.93105 
        1.43585          14.032         3.88971 
        1.44198          13.905         3.84912 
        1.44809         13.8114         3.80918 
        1.45423         13.7398         3.76966 
        1.46036         13.7032         3.73077 
        1.46649         13.6041         3.69242 
        1.47263         13.4965         3.65457 
        1.47877         13.4568         3.61727 
        1.48491         13.4359         3.58043 
        1.49104         13.3017         3.54418 
        1.49718         13.2033          3.5084 
        1.50333         13.1659         3.47306 
        1.50947         13.0786         3.43828 
         1.5156         13.0237         3.40402 
        1.52172         12.9482         3.37023 
        1.52787         12.8585         3.33683 
          1.534         12.7817         3.30393 
        1.54013         12.7036          3.2715 
        1.54627         12.6497         3.23944 
        1.55241          12.542         3.20781 
        1.55855         12.4962         3.17665 
        1.56467         12.4161         3.14598 
         1.5708         12.4005         3.11563 
        1.57695         12.2911         3.08564 
        1.58308         12.2395          3.0561 
        1.58922         12.1902         3.02694 
        1.59535         12.1026         2.99816 
         1.6015         12.0439         2.96972 
        1.60764         12.0072         2.94165 
        1.61376         11.8715         2.91403 
        1.61989         11.8441         2.88674 
        1.62604         11.8172         2.85974 
        1.63218         11.7487         2.83309 
        1.63831         11.6892         2.80685 
        1.64444         11.6085         2.78093 
        1.65059         11.5487         2.75528 
        1.65673         11.4739         2.72997 
        1.66285         11.4672         2.70506 
        1.66898         11.4128         2.68044 
        1.67512         11.3409         2.65608 
        1.68127         11.2899         2.63201 
         1.6874         11.2125         2.60828 
        1.69353         11.1568         2.58486 
        1.69967         11.1032         2.56167 
        1.70581         11.0423         2.53878 
        1.71193         11.0102         2.51625 
        1.71806         10.9328         2.49395 
        1.72421         10.8843         2.47187 
        1.73035         10.8158         2.45008 
        1.73649         10.8088         2.42856 
        1.74262         10.7477         2.40732 
        1.74876          10.709         2.38631 
        1.75489         10.6351          2.3656 
        1.76101         10.5784         2.34514 
        1.76715         10.5343         2.32489 
        1.77329         10.5008         2.30485 
        1.77943         10.4393         2.28505 
        1.78557         10.4066          2.2655 
        1.79171         10.3347         2.24618 
        1.79785         10.2718         2.22708 
        1.80399         10.2496         2.20821 
        1.81012         10.2209         2.18957 
        1.81625         10.1669         2.17117 
        1.82239         10.1134         2.15294 
        1.82853         10.0458         2.13493 
        1.83466          9.9997         2.11715 
        1.84078         9.95227         2.09958 
        1.84692         9.93655         2.08219 
        1.85306         9.86887         2.06497 
         1.8592         9.82651         2.04797 
        1.86533         9.78898         2.03117 
        1.87147         9.75012         2.01454 
        1.87761         9.71446         1.99809 
        1.88375         9.66418         1.98184 
        1.88988          9.6033         1.96579 
        1.89601         9.57001         1.94991 
        1.90215         9.53856         1.93419 
        1.90829         9.48404         1.91865 
        1.91442          9.4502         1.90328 
        1.92056         9.41167         1.88809 
         1.9267         9.35754         1.87305 
        1.93284         9.31447         1.85817 
        1.93897         9.28656         1.84347 
        1.94509         9.24483         1.82897 
        1.95123         9.21957         1.81458 
        1.95737          9.1719         1.80034 
        1.96349         9.12704         1.78628 
        1.96964         9.08399         1.77234 
        1.97578         9.04539         1.75854 
        1.98192         9.00339         1.74491 
        1.98805         8.97934         1.73142 
        1.99419         8.93935         1.71808 
        2.00033         8.86326         1.70487 
        2.00647         8.84053          1.6918 
         2.0126         8.82725         1.67889 
        2.01874          8.7766         1.66609 
        2.02488         8.74039         1.65342 
        2.03101         8.70779          1.6409 
        2.03714         8.68199         1.62852 
        2.04328         8.61955         1.61626 
        2.04941         8.59146         1.60413 
        2.05554         8.57236         1.59213 
        2.06167         8.53165         1.58024 
        2.06781         8.50213         1.56847 
        2.07396         8.47009         1.55681 
        2.08009         8.44615         1.54528 
        2.08622         8.37351         1.53388 
        2.09237          8.3695         1.52257 
        2.09851         8.32405         1.51138 
        2.10464         8.27806         1.50031 
        2.11077         8.26072         1.48937 
        2.11691          8.2219         1.47851 
        2.12305         8.21278         1.46776 
        2.12918          8.1513         1.45715 
        2.13531         8.12207         1.44663 
        2.14145         8.09574          1.4362 
         2.1476         8.07622         1.42586 
        2.15372          8.0289         1.41566 
        2.15985         7.99283         1.40556 
        2.16599         7.97748         1.39553 
        2.17213         7.92929         1.38561 
        2.17827         7.90762         1.37578 
         2.1844          7.8755         1.36606 
        2.19054         7.86382         1.35643 
        2.19666          7.8372         1.34691 
         2.2028         7.79246         1.33747 
        2.20893         7.75667         1.32811 
        2.21508         7.71494         1.31883 
        2.22122         7.68281         1.30964 
        2.22736         7.67427         1.30055 
        2.23349         7.63421         1.29156 
        2.23962         7.60641         1.28264 
        2.24577         7.58198          1.2738 
         2.2519         7.54721         1.26505 
        2.25802          7.5372          1.2564 
        2.26417         7.50203          1.2478 
        2.27031         7.45039         1.23928 
        2.27644         7.44385         1.23086 
        2.28257         7.41256         1.22253 
        2.28872         7.39026         1.21425 
        2.29486          7.3607         1.20605 
        2.30099         7.34262         1.19794 
        2.30712         7.31019          1.1899 
        2.31326         7.27231         1.18192 
         2.3194         7.25454         1.17402 
        2.32553         7.22717         1.16621 
        2.33166         7.18762         1.15847 
         2.3378         7.16652         1.15079 
        2.34394         7.14661         1.14317 
        2.35007         7.10982         1.13564 
        2.35619         7.07385         1.12818 
        2.36233         7.06329         1.12077 
        2.36848         7.05059         1.11341 
        2.37462         7.01921         1.10614 
        2.38075         6.97437         1.09893 
        2.38689         6.97506         1.09178 
        2.39303         6.93429          1.0847 
        2.39916         6.91642         1.07769 
        2.40529         6.89527         1.07074 
        2.41143         6.86803         1.06385 
        2.41757         6.84213         1.05701 
         2.4237         6.82395         1.05025 
        2.42983         6.79104         1.04354 
        2.43598         6.77689         1.03688 
        2.44211         6.75057         1.03028 
        2.44823         6.72309         1.02376 
        2.45437         6.70977         1.01728 
        2.46052         6.67292         1.01084 
        2.46665         6.65155         1.00447 
        2.47279         6.61888        0.998163 
        2.47892         6.59895        0.991902 
        2.48507         6.57835        0.985689 
         2.4912          6.5683        0.979541 
