# k  (h/Mpc)    Pcb(k)  (Mpc/h)^3    Pcb_linear(k)  (Mpc/h)^3
     0.00783031         15189.1         15407.3 
       0.013688         16949.4         16798.8 
       0.019231         15224.2         15151.1 
      0.0249154         12209.9         12388.5 
      0.0312784         9347.25         9365.12 
      0.0375637         7200.08         7120.67 
      0.0433917         5783.67         5792.64 
      0.0492413         5064.37         5033.41 
      0.0555754         4537.26         4603.12 
      0.0619321         4375.76         4319.33 
       0.067871         3966.48         4013.67 
      0.0738098         3565.74         3599.05 
      0.0800417         3040.96          3075.6 
      0.0862327         2572.65         2555.08 
      0.0921407         2207.66         2137.86 
      0.0982031         1885.92         1831.65 
       0.104506          1741.2         1642.45 
       0.110769         1629.81         1551.27 
       0.116806         1568.06         1509.06 
       0.122832         1519.95         1467.63 
       0.129052         1413.54         1393.41 
       0.135211         1309.09         1279.54 
       0.141259         1204.51         1141.98 
       0.147318          1084.5          1002.7 
       0.153489         960.947         881.735 
       0.159709         886.242         793.471 
       0.165845         839.597          739.84 
       0.171974         799.692         711.151 
       0.178125         772.654         694.617 
       0.184229         746.048         677.602 
        0.19034         699.902         651.058 
       0.196428         676.481         612.537 
       0.202534         642.084         565.245 
       0.208729         594.961         515.433 
       0.214876         555.196         471.135 
       0.220989         526.486         436.439 
       0.227147         501.216         411.832 
        0.23329         480.072         395.678 
       0.239377         469.836         384.393 
       0.245482          438.59         373.904 
       0.251667         434.598         361.067 
       0.257832         416.643         344.809 
       0.263955         399.147         325.815 
       0.270079         379.065         305.766 
        0.27624         370.412         286.692 
       0.282372          355.38         270.344 
        0.28843         342.751         257.442 
       0.294538         325.234          247.39 
       0.300721         321.724         239.295 
        0.30691         307.183         232.049 
       0.313033         300.072         224.676 
       0.319153         288.745         216.521 
       0.325316         280.795         207.481 
        0.33145         270.237         198.063 
       0.337538         264.772         188.906 
       0.343633         255.065         180.453 
       0.349808          245.46         172.976 
       0.355968         241.715         166.597 
       0.362074          236.68         161.171 
       0.368217         229.636         156.236 
       0.374374         219.831         151.473 
       0.380519         217.319         146.667 
       0.386598         211.295         141.735 
       0.392688         207.856         136.707 
        0.39888         202.323         131.641 
       0.405048         196.694         126.809 
       0.411186         192.546         122.368 
       0.417313         188.281         118.335 
       0.423458         183.665         114.661 
       0.429607         180.117         111.282 
       0.435692         174.549         108.116 
       0.441815         172.552         105.003 
       0.447964         168.674         101.912 
       0.454126         162.706          98.835 
       0.460267         160.042         95.8051 
       0.466387         157.747         92.8745 
        0.47254         153.905         90.0705 
       0.478662         153.323          87.441 
       0.484765         147.565         84.9759 
       0.490885         145.431         82.6514 
       0.497035         142.924         80.4381 
       0.503198         139.598         78.3047 
       0.509342         137.858         76.2305 
       0.515458         135.535         74.2102 
       0.521598         132.382         72.2318 
       0.527764         130.959         70.3009 
       0.533884         128.933         68.4467 
           0.54         126.519         66.6645 
       0.546137         125.335         64.9539 
       0.552299         122.732         63.3176 
       0.558452         121.286         61.7547 
       0.564573         119.222          60.257 
       0.570708         116.549         58.8022 
       0.576825         115.116         57.3917 
       0.582926         112.764         56.0249 
       0.589034         111.459         54.6965 
       0.595184         110.036            53.4 
       0.601379         108.054         52.1358 
       0.607522         106.323         50.9232 
       0.613639         105.276         49.7562 
       0.619772         103.174         48.6264 
       0.625918         101.959         47.5336 
       0.632068         100.529         46.4766 
       0.638161         99.6084          45.462 
         0.6443         98.1739         44.4697 
       0.650464         97.2032         43.5012 
       0.656582         95.2936         42.5659 
       0.662703         94.5304         41.6562 
       0.668861         92.8208         40.7673 
       0.675024         91.5678          39.904 
       0.681124         90.8358         39.0756 
       0.687237         89.2055         38.2706 
       0.693381         87.8263         37.4857 
       0.699536          87.212         36.7222 
       0.705665         86.5978         35.9836 
       0.711789         85.0058         35.2659 
       0.717957         84.7907         34.5623 
        0.72409         83.1541         33.8812 
       0.730186         81.9653         33.2222 
       0.736317         81.3214          32.577 
       0.742472         80.5687         31.9464 
       0.748622         79.6236         31.3331 
        0.75476         78.7779         30.7376 
       0.760888         77.8148         30.1586 
       0.767043         77.2884         29.5926 
       0.773185         76.4645         29.0425 
       0.779291         75.0966         28.5096 
       0.785407         74.6882         27.9895 
       0.791564         74.2474         27.4791 
       0.797719         72.5449         26.9817 
       0.803834         72.2193         26.4997 
       0.809972         71.4096         26.0277 
       0.816124         70.9029         25.5662 
       0.822261         70.2798         25.1171 
       0.828378         69.7497         24.6802 
       0.834502         69.1652         24.2533 
       0.840667         68.1392         23.8337 
       0.846816         67.3022         23.4252 
       0.852925          66.815          23.029 
       0.859047          66.008          22.641 
       0.865192         65.5558         22.2608 
       0.871341         64.9324         21.8891 
       0.877463         64.0356         21.5275 
       0.883569          63.924         21.1751 
       0.889708         63.1513         20.8288 
       0.895864         62.6488         20.4893 
       0.902008         62.0895         20.1582 
       0.908149         61.6797         19.8345 
       0.914301         60.9975         19.5175 
       0.920448         60.5422         19.2077 
       0.926574         59.9348         18.9057 
       0.932687         59.8495         18.6109 
       0.938823         58.9489         18.3213 
       0.944975         58.3023         18.0372 
       0.951105         57.8663         17.7602 
       0.957225         57.3958         17.4895 
       0.963368         56.8008         17.2235 
       0.969511         56.6466          16.963 
       0.975621         56.2721         16.7094 
       0.981748         55.7272         16.4603 
       0.987916         55.1419         16.2147 
        0.99406         54.8173          15.975 
        1.00019         54.4719         15.7407 
        1.00632         53.8956         15.5113 
        1.01246          53.637         15.2861 
        1.01859         53.0089         15.0658 
        1.02471         52.6245           14.85 
        1.03085         52.1841         14.6378 
        1.03698         51.9309         14.4302 
        1.04314         51.4768         14.2257 
        1.04929         51.1024         14.0256 
        1.05541          50.522         13.8302 
        1.06154         50.5255          13.638 
        1.06769         50.0747         13.4492 
        1.07382         49.7397         13.2646 
        1.07993         49.4583         13.0839 
        1.08607         49.0066         12.9058 
        1.09222          48.819         12.7308 
        1.09836         48.2873         12.5593 
        1.10449         48.1303         12.3911 
        1.11063         47.6404         12.2259 
        1.11677         47.3274         12.0637 
         1.1229         46.9423         11.9047 
        1.12903         46.5243         11.7485 
        1.13518         46.4956         11.5949 
        1.14131         46.1854         11.4442 
        1.14745         45.8043         11.2962 
        1.15359          45.509         11.1508 
        1.15973         45.1053         11.0079 
        1.16584         44.7955         10.8682 
        1.17197          44.514         10.7307 
        1.17811         44.3701         10.5951 
        1.18424         43.8938         10.4623 
        1.19038         43.7153         10.3314 
        1.19652         43.4806         10.2027 
        1.20267         42.9732         10.0763 
        1.20881         42.8744         9.95203 
        1.21495         42.4888         9.83005 
        1.22108         42.4931         9.71013 
         1.2272         41.8599          9.5925 
        1.23334         41.6652         9.47654 
        1.23949         41.5752         9.36223 
        1.24562         41.1671         9.25012 
        1.25174         41.0256         9.14001 
        1.25789         40.8608         9.03135 
        1.26402          40.423         8.92466 
        1.27014         40.2618         8.81994 
        1.27628         39.9642         8.71659 
        1.28244         39.7624         8.61469 
        1.28858         39.6022         8.51455 
        1.29471         39.4097         8.41623 
        1.30084          39.156         8.31954 
        1.30697         38.8643         8.22423 
        1.31312         38.6276         8.13027 
        1.31925         38.3777         8.03807 
        1.32537         38.2011         7.94739 
        1.33151         37.9189         7.85779 
        1.33765          37.759         7.76961 
        1.34378         37.5605         7.68297 
        1.34992         37.2814         7.59758 
        1.35606         37.0988          7.5133 
         1.3622          36.894         7.43046 
        1.36833         36.7007         7.34906 
        1.37445         36.4393         7.26891 
        1.38059         36.2109         7.18972 
        1.38675         36.0112         7.11151 
        1.39288         35.8495         7.03478 
        1.39901         35.7102         6.95921 
        1.40515         35.4155         6.88459 
         1.4113         35.2454         6.81108 
        1.41742         35.1697         6.73893 
        1.42355         34.8855         6.66768 
         1.4297           34.76         6.59725 
        1.43585         34.6337         6.52787 
        1.44198         34.3012         6.45975 
        1.44809         34.2032         6.39272 
        1.45423         34.0175          6.3264 
        1.46036         33.8477         6.26113 
        1.46649         33.6875         6.19677 
        1.47263         33.4637         6.13325 
        1.47877         33.2253         6.07065 
        1.48491         33.2331         6.00882 
        1.49104         32.9465         5.94799 
        1.49718         32.6839         5.88794 
        1.50333         32.7353         5.82863 
        1.50947         32.4551         5.77026 
         1.5156          32.297         5.71277 
        1.52172         32.1942         5.65606 
        1.52787         32.0477         5.60001 
          1.534         31.8036         5.54478 
        1.54013         31.6322         5.49035 
        1.54627         31.5641         5.43656 
        1.55241         31.2541         5.38348 
        1.55855         31.1907         5.33117 
        1.56467         30.9335         5.27971 
         1.5708         30.9598         5.22877 
        1.57695         30.7576         5.17844 
        1.58308         30.5808         5.12887 
        1.58922         30.4009         5.07992 
        1.59535         30.3102         5.03163 
         1.6015         30.0918         4.98389 
        1.60764         29.9168          4.9368 
        1.61376         29.8142         4.89044 
        1.61989         29.6708         4.84464 
        1.62604         29.4814         4.79932 
        1.63218          29.484         4.75461 
        1.63831         29.2414         4.71056 
        1.64444         29.1191         4.66706 
        1.65059         29.0916         4.62401 
        1.65673         28.8248         4.58154 
        1.66285         28.6602         4.53972 
        1.66898         28.5894         4.49841 
        1.67512         28.3948         4.45754 
        1.68127         28.2885         4.41713 
         1.6874         28.0965         4.37731 
        1.69353         28.0011         4.33801 
        1.69967         27.8663         4.29909 
        1.70581         27.8216         4.26067 
        1.71193           27.68         4.22286 
        1.71806         27.4159         4.18543 
        1.72421         27.3927         4.14838 
        1.73035         27.2337         4.11181 
        1.73649         27.0559          4.0757 
        1.74262         26.9255         4.04004 
        1.74876         26.8147         4.00479 
        1.75489         26.7278         3.97003 
        1.76101         26.6332         3.93569 
        1.76715         26.5127         3.90171 
        1.77329         26.3877         3.86809 
        1.77943         26.2744         3.83484 
        1.78557         26.1042         3.80204 
        1.79171         26.0277         3.76962 
        1.79785         25.8797         3.73756 
        1.80399         25.8452         3.70589 
        1.81012          25.645         3.67462 
        1.81625         25.5732         3.64372 
        1.82239         25.4164         3.61314 
        1.82853         25.3641         3.58292 
        1.83466         25.1407         3.55307 
        1.84078         25.0007         3.52359 
        1.84692         24.9726          3.4944 
        1.85306         24.8248          3.4655 
         1.8592         24.7215         3.43697 
        1.86533         24.6127         3.40878 
        1.87147         24.5559         3.38087 
        1.87761         24.3943         3.35327 
        1.88375         24.3117           3.326 
        1.88988         24.2143         3.29906 
        1.89601         24.1048          3.2724 
        1.90215         24.0443         3.24602 
        1.90829         23.9226         3.21994 
        1.91442         23.8129         3.19415 
        1.92056         23.6585         3.16866 
         1.9267         23.6358         3.14342 
        1.93284         23.4121         3.11844 
        1.93897         23.3922         3.09378 
        1.94509         23.2778         3.06943 
        1.95123         23.1598         3.04529 
        1.95737         23.0541         3.02139 
        1.96349         22.9995          2.9978 
        1.96964         22.8789          2.9744 
        1.97578         22.7387         2.95123 
        1.98192         22.6765         2.92836 
        1.98805         22.6013         2.90573 
        1.99419         22.5107         2.88333 
        2.00033         22.3742         2.86116 
        2.00647         22.3149         2.83923 
         2.0126         22.1738         2.81756 
        2.01874         22.1188         2.79609 
        2.02488         22.0432         2.77482 
        2.03101         21.9346         2.75381 
        2.03714         21.8524         2.73304 
        2.04328          21.709         2.71245 
        2.04941         21.6652          2.6921 
        2.05554         21.5632         2.67197 
        2.06167         21.4672         2.65201 
        2.06781         21.3671         2.63226 
        2.07396         21.3129         2.61268 
        2.08009         21.1893         2.59333 
        2.08622         21.0711          2.5742 
        2.09237         21.0309         2.55522 
        2.09851         20.9441         2.53644 
        2.10464         20.8403         2.51787 
        2.11077         20.8028          2.4995 
        2.11691         20.6588         2.48128 
        2.12305         20.5846         2.46324 
        2.12918         20.4827         2.44543 
        2.13531         20.4702         2.42778 
        2.14145         20.3305         2.41027 
         2.1476         20.2665         2.39291 
        2.15372         20.1855         2.37581 
        2.15985         20.1299         2.35886 
        2.16599         20.0002         2.34202 
        2.17213         19.9713         2.32537 
        2.17827          19.838         2.30888 
         2.1844          19.794         2.29256 
        2.19054         19.6921          2.2764 
        2.19666         19.6014         2.26042 
         2.2028          19.511         2.24457 
        2.20893         19.4879         2.22887 
        2.21508         19.3959          2.2133 
        2.22122         19.2747         2.19787 
        2.22736         19.2254         2.18262 
        2.23349         19.1171         2.16752 
        2.23962          19.074         2.15256 
        2.24577         18.9822         2.13772 
         2.2519         18.9322         2.12304 
        2.25802         18.8392         2.10852 
        2.26417         18.7596          2.0941 
        2.27031         18.6449          2.0798 
        2.27644         18.5933         2.06567 
        2.28257         18.5295         2.05167 
        2.28872         18.4731         2.03778 
        2.29486         18.3852         2.02402 
        2.30099         18.2981         2.01041 
        2.30712         18.2369         1.99692 
        2.31326         18.1955         1.98353 
         2.3194         18.1004         1.97027 
        2.32553         18.0423         1.95716 
        2.33166         17.9515         1.94417 
         2.3378         17.8927         1.93128 
        2.34394         17.7915          1.9185 
        2.35007         17.7456         1.90585 
        2.35619         17.6845         1.89334 
        2.36233         17.5877          1.8809 
        2.36848         17.5229         1.86856 
        2.37462         17.4482         1.85634 
        2.38075          17.403         1.84425 
        2.38689         17.3226         1.83226 
        2.39303         17.2543         1.82037 
        2.39916         17.1902          1.8086 
        2.40529         17.1656         1.79694 
        2.41143         17.0703         1.78537 
        2.41757         16.9802          1.7739 
         2.4237         16.9185         1.76255 
        2.42983         16.8239         1.75129 
        2.43598         16.7843         1.74011 
        2.44211         16.7176         1.72904 
        2.44823         16.6495          1.7181 
        2.45437         16.5744         1.70721 
        2.46052         16.5055         1.69641 
        2.46665         16.4605         1.68573 
        2.47279         16.4236         1.67514 
        2.47892         16.3404         1.66463 
        2.48507         16.2477          1.6542 
         2.4912         16.2025         1.64389 
