# k  (h/Mpc)    Pcb(k)  (Mpc/h)^3    Pcb_linear(k)  (Mpc/h)^3
     0.00783031         13110.4         13296.7 
       0.013688         15714.8         15594.4 
       0.019231         14886.8         14835.6 
      0.0249154         12510.2         12711.7 
      0.0312784         9999.95           10045 
      0.0375637         7952.56         7891.94 
      0.0433917         6501.59         6537.31 
      0.0492413         5740.96          5724.3 
      0.0555754         5159.74         5251.06 
      0.0619321          5000.7          4954.7 
       0.067871         4583.38         4656.94 
      0.0738098         4186.08         4249.53 
      0.0800417         3639.84         3712.26 
      0.0862327         3138.78         3148.62 
      0.0921407         2726.19         2671.05 
      0.0982031         2343.32          2299.3 
       0.104506         2156.82         2053.14 
       0.110769         2010.04         1924.74 
       0.116806         1927.77         1865.85 
       0.122832         1875.29         1821.91 
       0.129052         1761.62         1750.77 
       0.135211         1653.14         1635.25 
       0.141259         1541.17          1484.8 
       0.147318          1402.8         1321.06 
       0.153489         1249.63          1168.4 
       0.159709         1152.76         1048.52 
       0.165845         1091.39           969.8 
       0.171974         1035.15         924.903 
       0.178125          998.11         900.912 
       0.184229         967.075         882.711 
        0.19034         912.903         857.091 
       0.196428         890.621         817.395 
       0.202534         851.477         764.093 
       0.208729         794.802         702.978 
       0.214876         743.841         644.226 
       0.220989         707.726         594.823 
       0.227147         671.634         557.658 
        0.23329         643.478          532.68 
       0.239377         630.444         516.455 
       0.245482         590.406         503.948 
       0.251667         586.758         490.422 
       0.257832         564.691         472.966 
       0.263955         543.537         451.059 
       0.270079         519.078         426.005 
        0.27624         508.915         400.284 
       0.282372         487.389          376.84 
        0.28843         472.321         357.445 
       0.294538         448.129         342.214 
       0.300721         444.504         330.474 
        0.30691         424.817         321.029 
       0.313033         416.031         312.278 
       0.319153         402.151         302.889 
       0.325316         391.064         292.097 
        0.33145         377.928         280.208 
       0.337538         371.211         267.873 
       0.343633         358.552         255.902 
       0.349808         345.452         244.863 
       0.355968         341.126         235.387 
       0.362074         334.496         227.472 
       0.368217         324.951          220.66 
       0.374374         311.253         214.498 
       0.380519         308.665         208.463 
       0.386598         300.312         202.311 
       0.392688         296.902         195.836 
        0.39888          288.79          189.02 
       0.405048         281.581         182.281 
       0.411186         276.142         175.867 
       0.417313         270.546         169.954 
       0.423458         264.419         164.629 
       0.429607         259.546         159.832 
       0.435692         252.261         155.478 
       0.441815         249.796         151.343 
       0.447964          244.41         147.277 
       0.454126         236.551         143.177 
       0.460267         232.809         139.076 
       0.466387         229.835         135.019 
        0.47254         224.673         131.026 
       0.478662         223.998          127.22 
       0.484765         215.886         123.664 
       0.490885         213.177         120.342 
       0.497035         209.601         117.209 
       0.503198         205.269         114.235 
       0.509342         203.211         111.392 
       0.515458         200.182         108.638 
       0.521598         195.697          105.91 
       0.527764         193.294         103.203 
       0.533884         190.766         100.573 
           0.54         187.668         98.0306 
       0.546137         186.347         95.5802 
       0.552299         182.445         93.2254 
       0.558452          180.77         90.9779 
       0.564573         177.898         88.8424 
       0.570708         174.042          86.791 
       0.576825          171.79         84.8176 
       0.582926         169.078         82.9025 
       0.589034         167.285         81.0248 
       0.595184         165.335         79.1741 
       0.601379         162.938         77.3581 
       0.607522         160.196         75.6132 
       0.613639         158.986         73.9365 
       0.619772         155.679         72.3164 
       0.625918         154.349         70.7494 
       0.632068         152.144         69.2323 
       0.638161         151.056         67.7748 
         0.6443         148.818         66.3485 
       0.650464         147.283          64.957 
       0.656582         145.153         63.6145 
       0.662703         144.242         62.3087 
       0.668861         141.657         61.0313 
       0.675024         139.769         59.7881 
       0.681124         138.988         58.5916 
       0.687237         136.786         57.4256 
       0.693381         134.641         56.2864 
       0.699536         133.764         55.1769 
       0.705665         132.919         54.1033 
       0.711789         130.664         53.0604 
       0.717957         130.428         52.0388 
        0.72409         128.362         51.0505 
       0.730186         126.563         50.0943 
       0.736317         125.381         49.1577 
       0.742472         124.506         48.2415 
       0.748622         123.248         47.3495 
        0.75476          122.11         46.4818 
       0.760888         120.581         45.6373 
       0.767043         120.065         44.8104 
       0.773185         118.825         44.0059 
       0.779291         116.656         43.2258 
       0.785407         116.251         42.4637 
       0.791564         115.362         41.7154 
       0.797719         113.137         40.9856 
       0.803834         112.655         40.2782 
       0.809972         111.673         39.5851 
       0.816124         111.039          38.907 
       0.822261         110.003         38.2468 
       0.828378         109.004         37.6041 
       0.834502         108.532         36.9759 
       0.840667         106.875         36.3581 
       0.846816         105.698         35.7564 
       0.852925         105.172         35.1722 
       0.859047         103.964            34.6 
       0.865192         103.105         34.0388 
       0.871341         102.252         33.4898 
       0.877463         101.116         32.9555 
       0.883569         100.893         32.4343 
       0.889708         99.8418         31.9218 
       0.895864         98.8269         31.4191 
       0.902008         98.1331         30.9285 
       0.908149         97.6538         30.4487 
       0.914301         96.5979         29.9783 
       0.920448          95.824         29.5185 
       0.926574         95.1009         29.0699 
       0.932687         95.0439         28.6318 
       0.938823         93.5494         28.2011 
       0.944975         92.5899         27.7784 
       0.951105         92.1515          27.366 
       0.957225         91.3006         26.9627 
       0.963368         90.2849         26.5663 
       0.969511         90.2058         26.1778 
       0.975621         89.6096         25.7993 
       0.981748         89.0206         25.4274 
       0.987916         88.0796         25.0605 
        0.99406         87.4365         24.7023 
        1.00019         87.1186         24.3519 
        1.00632         86.1894         24.0086 
        1.01246         85.7687         23.6715 
        1.01859         84.9473         23.3414 
        1.02471         84.2541         23.0181 
        1.03085         83.5425         22.6999 
        1.03698         83.3419         22.3884 
        1.04314         82.5002         22.0814 
        1.04929         82.0232          21.781 
        1.05541         81.2565         21.4874 
        1.06154         81.0323         21.1986 
        1.06769         80.6508         20.9146 
        1.07382         80.0145         20.6368 
        1.07993         79.4935         20.3648 
        1.08607         78.8244         20.0966 
        1.09222         78.6632         19.8329 
        1.09836         77.9024         19.5743 
        1.10449         77.4392         19.3207 
        1.11063         76.8253         19.0713 
        1.11677         76.4475         18.8265 
         1.1229         75.7442         18.5864 
        1.12903         75.2145         18.3503 
        1.13518         75.2164         18.1182 
        1.14131          74.624         17.8902 
        1.14745         74.0431         17.6663 
        1.15359         73.6506         17.4463 
        1.15973         73.1824         17.2299 
        1.16584         72.5682         17.0182 
        1.17197         72.1789         16.8097 
        1.17811         71.8581         16.6042 
        1.18424         71.2807         16.4027 
        1.19038         71.0298          16.204 
        1.19652         70.6225         16.0087 
        1.20267         69.8111         15.8166 
        1.20881         69.5954         15.6277 
        1.21495         69.0848         15.4422 
        1.22108         68.9324         15.2598 
         1.2272         68.1018         15.0808 
        1.23334         67.8621         14.9043 
        1.23949         67.5501         14.7302 
        1.24562         67.0309         14.5593 
        1.25174         66.7607         14.3915 
        1.25789         66.4904         14.2258 
        1.26402          65.895          14.063 
        1.27014         65.6048         13.9032 
        1.27628         65.2412         13.7453 
        1.28244         64.8168         13.5897 
        1.28858         64.6504         13.4367 
        1.29471         64.2306         13.2864 
        1.30084         63.8909         13.1385 
        1.30697          63.413         12.9927 
        1.31312          63.036         12.8489 
        1.31925         62.6743         12.7078 
        1.32537         62.4495         12.5689 
        1.33151          61.857         12.4316 
        1.33765         61.6796         12.2964 
        1.34378         61.3452         12.1636 
        1.34992         60.9949         12.0326 
        1.35606         60.6713         11.9033 
         1.3622         60.2064         11.7761 
        1.36833         60.0698         11.6511 
        1.37445         59.6739          11.528 
        1.38059         59.1916         11.4063 
        1.38675         58.9458         11.2861 
        1.39288         58.6684         11.1681 
        1.39901         58.4199         11.0519 
        1.40515         57.9976          10.937 
         1.4113         57.7458         10.8239 
        1.41742         57.6272         10.7127 
        1.42355         57.1715          10.603 
         1.4297         57.0371         10.4945 
        1.43585         56.5882         10.3875 
        1.44198          56.199         10.2824 
        1.44809         56.0311          10.179 
        1.45423         55.7571         10.0766 
        1.46036         55.5092         9.97588 
        1.46649         55.1621         9.87647 
        1.47263         54.8336         9.77834 
        1.47877         54.5771         9.68159 
        1.48491         54.3838         9.58601 
        1.49104         54.0657         9.49192 
        1.49718          53.661         9.39904 
        1.50333          53.564         9.30725 
        1.50947         53.2614         9.21689 
         1.5156         52.9717         9.12786 
        1.52172         52.7455         9.04002 
        1.52787         52.6071         8.95317 
          1.534         52.1468         8.86756 
        1.54013         51.8631         8.78317 
        1.54627         51.7882         8.69972 
        1.55241         51.2606         8.61736 
        1.55855         51.1741         8.53618 
        1.56467         50.8463         8.45627 
         1.5708         50.7662         8.37716 
        1.57695         50.5513         8.29896 
        1.58308         50.1665         8.22194 
        1.58922         49.9283         8.14584 
        1.59535         49.8157         8.07074 
         1.6015         49.3564         7.99649 
        1.60764         49.2084         7.92321 
        1.61376         48.9458         7.85106 
        1.61989         48.7285         7.77976 
        1.62604         48.5055         7.70918 
        1.63218         48.4123         7.63953 
        1.63831          47.993          7.5709 
        1.64444         47.8345         7.50309 
        1.65059         47.6713         7.43596 
        1.65673         47.3668         7.36972 
        1.66285         47.0616         7.30448 
        1.66898         46.9492         7.24001 
        1.67512         46.5909          7.1762 
        1.68127         46.4493          7.1131 
         1.6874         46.2487          7.0509 
        1.69353         45.9881         6.98949 
        1.69967          45.813         6.92867 
        1.70581         45.6762          6.8686 
        1.71193          45.474         6.80947 
        1.71806         45.0316         6.75092 
        1.72421         44.9994         6.69294 
        1.73035         44.7871         6.63572 
        1.73649         44.4634         6.57917 
        1.74262         44.3127         6.52334 
        1.74876         44.0777         6.46811 
        1.75489         43.9472         6.41365 
        1.76101         43.7597         6.35983 
        1.76715         43.4607         6.30655 
        1.77329         43.2668         6.25383 
        1.77943         43.0412         6.20168 
        1.78557          42.875         6.15021 
        1.79171         42.7047         6.09932 
        1.79785         42.4445         6.04899 
        1.80399         42.4242         5.99925 
        1.81012         42.0645         5.95013 
        1.81625         41.8355         5.90158 
        1.82239          41.729         5.85351 
        1.82853          41.492           5.806 
        1.83466          41.239         5.75906 
        1.84078         41.0531          5.7127 
        1.84692         40.8852         5.66677 
        1.85306         40.6781         5.62129 
         1.8592         40.4789         5.57639 
        1.86533         40.3206           5.532 
        1.87147         40.1469         5.48805 
        1.87761         40.0022         5.44456 
        1.88375          39.811         5.40159 
        1.88988         39.6647         5.35913 
        1.89601         39.4372         5.31711 
        1.90215         39.2949         5.27551 
        1.90829         39.1879         5.23437 
        1.91442         38.9559         5.19367 
        1.92056         38.7012         5.15344 
         1.9267         38.5825          5.1136 
        1.93284         38.3266         5.07416 
        1.93897         38.2694          5.0352 
        1.94509         38.0366         4.99675 
        1.95123         37.8737         4.95859 
        1.95737         37.6824         4.92081 
        1.96349         37.5029         4.88353 
        1.96964         37.4114         4.84652 
        1.97578          37.153         4.80988 
        1.98192         37.0331          4.7737 
        1.98805         36.9617         4.73788 
        1.99419         36.7241         4.70244 
        2.00033         36.5476         4.66734 
        2.00647         36.4122          4.6326 
         2.0126         36.1211         4.59829 
        2.01874         36.1308         4.56427 
        2.02488         35.9338         4.53056 
        2.03101         35.7504         4.49726 
        2.03714         35.6181         4.46432 
        2.04328         35.4179         4.43168 
        2.04941         35.2577          4.3994 
        2.05554         35.0906         4.36746 
        2.06167         35.0082         4.33579 
        2.06781         34.7658         4.30444 
        2.07396         34.6959         4.27335 
        2.08009          34.525         4.24262 
        2.08622         34.3122         4.21223 
        2.09237         34.2184         4.18208 
        2.09851         34.0678         4.15222 
        2.10464         33.9283          4.1227 
        2.11077         33.8103         4.09351 
        2.11691          33.557         4.06454 
        2.12305         33.4163         4.03584 
        2.12918         33.3159          4.0075 
        2.13531          33.147         3.97942 
        2.14145         32.9862         3.95155 
         2.1476         32.8348         3.92391 
        2.15372         32.6851         3.89668 
        2.15985         32.6082         3.86968 
        2.16599         32.4559         3.84286 
        2.17213          32.379         3.81633 
        2.17827         32.1337         3.79005 
         2.1844         32.0472         3.76404 
        2.19054         31.8908         3.73827 
        2.19666         31.7315         3.71278 
         2.2028          31.571          3.6875 
        2.20893         31.5155         3.66245 
        2.21508         31.4001          3.6376 
        2.22122          31.216         3.61298 
        2.22736         31.1261         3.58863 
        2.23349         30.9473         3.56452 
        2.23962         30.7971         3.54061 
        2.24577         30.6407         3.51691 
         2.2519          30.526         3.49345 
        2.25802         30.4702         3.47025 
        2.26417         30.2722         3.44719 
        2.27031         30.1293         3.42432 
        2.27644          30.024         3.40173 
        2.28257         29.9368         3.37934 
        2.28872         29.7855         3.35712 
        2.29486         29.6733         3.33509 
        2.30099         29.5255         3.31332 
        2.30712         29.4202         3.29172 
        2.31326         29.2608         3.27029 
         2.3194         29.1591         3.24905 
        2.32553         29.0576         3.22805 
        2.33166         28.9323         3.20723 
         2.3378         28.7573         3.18658 
        2.34394         28.7126         3.16609 
        2.35007         28.5514         3.14582 
        2.35619         28.4028         3.12575 
        2.36233         28.3233         3.10581 
        2.36848         28.2368         3.08601 
        2.37462         28.0528         3.06641 
        2.38075         28.0201         3.04701 
        2.38689         27.8558         3.02776 
        2.39303         27.7277         3.00868 
        2.39916         27.5599         2.98978 
        2.40529         27.4862         2.97105 
        2.41143         27.4147         2.95246 
        2.41757         27.2796         2.93403 
         2.4237         27.2091         2.91579 
        2.42983         27.0101          2.8977 
        2.43598         26.9491         2.87973 
        2.44211         26.8067         2.86193 
        2.44823         26.7236         2.84433 
        2.45437         26.5799         2.82682 
        2.46052         26.4286         2.80945 
        2.46665         26.3743         2.79225 
        2.47279         26.2655         2.77521 
        2.47892         26.1691          2.7583 
        2.48507         26.0272         2.74151 
         2.4912         25.9599          2.7249 
