# k  (h/Mpc)    Pcb(k)  (Mpc/h)^3    Pcb_linear(k)  (Mpc/h)^3
     0.00783031         16281.8         16521.7 
       0.013688         18796.1         18615.9 
       0.019231         17415.2         17338.6 
      0.0249154         14453.8         14699.5 
      0.0312784         11531.6         11585.9 
      0.0375637         9201.89         9123.98 
      0.0433917         7526.84         7569.38 
      0.0492413         6631.53         6608.29 
      0.0555754         5898.32         6005.83 
      0.0619321         5659.96         5593.59 
       0.067871         5119.39          5195.9 
      0.0738098         4641.29         4701.29 
      0.0800417         4023.33         4092.04 
      0.0862327         3480.83         3477.36 
      0.0921407          3046.2         2965.76 
      0.0982031         2631.79         2567.92 
       0.104506         2432.77         2298.34 
       0.110769         2257.84         2146.22 
       0.116806         2151.74         2062.06 
       0.122832         2071.41          1991.2 
       0.129052         1926.37         1893.69 
       0.135211         1800.34         1757.21 
       0.141259         1680.98         1593.13 
       0.147318         1536.68         1421.84 
       0.153489         1375.77         1265.15 
       0.159709         1276.38            1142 
       0.165845         1210.58         1058.66 
       0.171974         1147.61         1006.79 
       0.178125         1100.22         973.552 
       0.184229         1058.08         945.085 
        0.19034         994.969         909.893 
       0.196428         967.785         863.006 
       0.202534         924.619           805.6 
       0.208729         865.524         743.058 
       0.214876         814.744         684.334 
       0.220989         776.845         634.968 
       0.227147         740.026         596.797 
        0.23329         708.065         569.363 
       0.239377         692.585         549.422 
       0.245482         646.389         532.465 
       0.251667         641.477         514.612 
       0.257832         615.163         493.849 
       0.263955         592.156         469.997 
       0.270079         565.714         444.311 
        0.27624         555.697         418.748 
       0.282372         532.731         395.599 
        0.28843         518.264         376.145 
       0.294538         490.927         360.139 
       0.300721         486.816         346.967 
        0.30691         465.119         335.588 
       0.313033         455.087         324.891 
       0.319153         440.536         313.805 
       0.325316         427.853         301.903 
        0.33145         413.925          289.45 
       0.337538         406.112         277.033 
       0.343633          392.95         265.141 
       0.349808         378.142          254.14 
       0.355968         373.834         244.448 
       0.362074         367.405         236.012 
       0.368217          356.51         228.451 
       0.374374          340.83          221.39 
       0.380519          338.52         214.534 
       0.386598           329.1         207.732 
       0.392688         325.644         200.821 
        0.39888         316.476         193.817 
       0.405048          308.94         187.007 
       0.411186         303.345          180.56 
       0.417313         297.071         174.584 
       0.423458         290.127         169.063 
       0.429607         285.392         163.962 
       0.435692         277.504         159.248 
       0.441815           274.5         154.718 
       0.447964          268.35         150.281 
       0.454126         261.132         145.915 
       0.460267         256.301         141.635 
       0.466387         252.849         137.458 
        0.47254         247.688         133.397 
       0.478662         246.811         129.544 
       0.484765         237.532         125.905 
       0.490885          234.81         122.448 
       0.497035         230.505         119.155 
       0.503198         226.457         116.011 
       0.509342         224.538         112.991 
       0.515458         221.108         110.068 
       0.521598         215.591         107.206 
       0.527764          213.06         104.411 
       0.533884         210.383         101.721 
           0.54         207.065          99.122 
       0.546137         205.722         96.6088 
       0.552299         201.344         94.1862 
       0.558452         199.939         91.8706 
       0.564573         196.868         89.6593 
       0.570708         192.436          87.522 
       0.576825         189.644         85.4582 
       0.582926         187.062         83.4584 
       0.589034         185.124         81.5134 
       0.595184         183.245         79.6133 
       0.601379         180.184         77.7587 
       0.607522         177.575         75.9777 
       0.613639         176.055         74.2608 
       0.619772         172.544         72.5947 
       0.625918         171.359         70.9794 
       0.632068         168.571         69.4162 
       0.638161         167.537         67.9167 
         0.6443         164.918         66.4522 
       0.650464         163.237         65.0256 
       0.656582         160.873         63.6494 
       0.662703         160.416         62.3106 
       0.668861         157.574          61.001 
       0.675024         155.273         59.7271 
       0.681124         154.275         58.5026 
       0.687237         152.229         57.3109 
       0.693381         149.743         56.1482 
       0.699536         148.626         55.0172 
       0.705665         147.358         53.9232 
       0.711789          145.53         52.8604 
       0.717957         145.212         51.8192 
        0.72409         143.058         50.8115 
       0.730186         141.177         49.8364 
       0.736317         139.582         48.8811 
       0.742472         138.564         47.9472 
       0.748622         137.326         47.0384 
        0.75476         135.975         46.1552 
       0.760888         134.466         45.2962 
       0.767043         133.903          44.456 
       0.773185         132.682         43.6391 
       0.779291         130.086         42.8476 
       0.785407          129.68         42.0749 
       0.791564         128.673         41.3166 
       0.797719         126.217         40.5774 
       0.803834         125.678         39.8611 
       0.809972          124.93         39.1595 
       0.816124         124.052         38.4733 
       0.822261         123.032         37.8054 
       0.828378          121.82         37.1554 
       0.834502         121.315         36.5202 
       0.840667         119.497         35.8958 
       0.846816         118.318         35.2877 
       0.852925         117.701         34.6976 
       0.859047         116.594         34.1198 
       0.865192         115.306         33.5533 
       0.871341         114.427         32.9994 
       0.877463         113.298         32.4605 
       0.883569         113.156          31.935 
       0.889708         111.858         31.4185 
       0.895864         110.685         30.9122 
       0.902008         109.927         30.4181 
       0.908149         109.583         29.9352 
       0.914301         108.232          29.462 
       0.920448          107.46         28.9995 
       0.926574         106.627         28.5485 
       0.932687         106.589         28.1082 
       0.938823         104.962         27.6756 
       0.944975         104.137         27.2511 
       0.951105         103.466         26.8371 
       0.957225         102.742         26.4324 
       0.963368         101.283         26.0348 
       0.969511         101.185         25.6453 
       0.975621         100.412         25.2659 
       0.981748         100.097         24.8933 
       0.987916         99.0093         24.5258 
        0.99406         98.2203         24.1671 
        1.00019         98.0428         23.8164 
        1.00632         96.8579         23.4729 
        1.01246         96.4378         23.1358 
        1.01859          95.817         22.8058 
        1.02471         94.7105         22.4827 
        1.03085         93.9352         22.1647 
        1.03698         93.7198         21.8536 
        1.04314         92.7246         21.5471 
        1.04929         92.3979         21.2472 
        1.05541         91.5762         20.9543 
        1.06154         91.2143         20.6661 
        1.06769         90.8595          20.383 
        1.07382         90.0041         20.1061 
        1.07993         89.5106         19.8349 
        1.08607         88.7367         19.5677 
        1.09222         88.6066         19.3051 
        1.09836         87.7788         19.0477 
        1.10449           87.06         18.7952 
        1.11063         86.5477         18.5471 
        1.11677         86.0022         18.3035 
         1.1229         85.4272         18.0648 
        1.12903         85.0097         17.8301 
        1.13518         84.7355         17.5993 
        1.14131         83.9885         17.3728 
        1.14745         83.5965         17.1504 
        1.15359         83.0207         16.9319 
        1.15973         82.6545         16.7171 
        1.16584         81.8591         16.5069 
        1.17197         81.3639         16.3001 
        1.17811         81.0656         16.0962 
        1.18424          80.559         15.8964 
        1.19038         80.3703         15.6995 
        1.19652          79.761         15.5059 
        1.20267          78.963         15.3156 
        1.20881          78.728         15.1286 
        1.21495         78.0183         14.9449 
        1.22108          77.877         14.7644 
         1.2272         77.0575         14.5872 
        1.23334         76.7186         14.4126 
        1.23949         76.3971         14.2404 
        1.24562         75.8099         14.0715 
        1.25174          75.566         13.9056 
        1.25789         75.1706         13.7419 
        1.26402         74.3023         13.5811 
        1.27014         74.2131         13.4233 
        1.27628         73.8585         13.2675 
        1.28244         73.4372         13.1139 
        1.28858         73.1951         12.9629 
        1.29471         72.6372         12.8146 
        1.30084         72.3842         12.6688 
        1.30697         71.7634          12.525 
        1.31312         71.3826         12.3833 
        1.31925         70.9708         12.2442 
        1.32537          70.631         12.1073 
        1.33151         70.0702         11.9721 
        1.33765         69.8562          11.839 
        1.34378         69.5431         11.7082 
        1.34992         69.1612         11.5793 
        1.35606          68.749          11.452 
         1.3622         68.2656         11.3269 
        1.36833         68.0975          11.204 
        1.37445         67.6629         11.0829 
        1.38059         67.0784         10.9633 
        1.38675         66.7688         10.8451 
        1.39288         66.6696         10.7292 
        1.39901         66.2172          10.615 
        1.40515         65.7541         10.5022 
         1.4113         65.5063         10.3911 
        1.41742         65.2621          10.282 
        1.42355         64.8905         10.1743 
         1.4297         64.7127         10.0678 
        1.43585         64.2202         9.96286 
        1.44198         63.7711         9.85982 
        1.44809         63.6042         9.75844 
        1.45423         63.3698         9.65811 
        1.46036         62.9615         9.55937 
        1.46649         62.5467         9.46198 
        1.47263         62.2177         9.36586 
        1.47877         61.9933         9.27112 
        1.48491          61.618         9.17754 
        1.49104         61.4258         9.08545 
        1.49718         61.0624         8.99456 
        1.50333         60.9037         8.90476 
        1.50947         60.4696         8.81637 
         1.5156         60.2763          8.7293 
        1.52172         59.8955         8.64342 
        1.52787         59.6701         8.55851 
          1.534         59.2518         8.47485 
        1.54013         58.9223         8.39239 
        1.54627         58.8019         8.31088 
        1.55241          58.319         8.23044 
        1.55855         58.1533         8.15118 
        1.56467         57.9471         8.07318 
         1.5708         57.6494         7.99598 
        1.57695         57.5354         7.91967 
        1.58308         57.0838         7.84453 
        1.58922         56.7487         7.77031 
        1.59535         56.6545         7.69708 
         1.6015         56.1467         7.62469 
        1.60764         56.0354         7.55327 
        1.61376         55.7341         7.48295 
        1.61989         55.5047         7.41347 
        1.62604         55.2092         7.34472 
        1.63218         55.0872         7.27688 
        1.63831         54.5105         7.21005 
        1.64444         54.3447         7.14404 
        1.65059         54.2667          7.0787 
        1.65673         53.8496         7.01424 
        1.66285         53.5929         6.95077 
        1.66898         53.4979         6.88805 
        1.67512         53.0208           6.826 
        1.68127         52.9494         6.76464 
         1.6874         52.6382         6.70418 
        1.69353         52.3884         6.64449 
        1.69967          52.171         6.58539 
        1.70581         51.9744         6.52703 
        1.71193         51.7773          6.4696 
        1.71806         51.3874         6.41273 
        1.72421         51.2919         6.35644 
        1.73035         51.0331         6.30088 
        1.73649         50.7656           6.246 
        1.74262         50.5091         6.19182 
        1.74876         50.2865         6.13824 
        1.75489         50.1087          6.0854 
        1.76101          49.923          6.0332 
        1.76715         49.5449         5.98154 
        1.77329         49.3393         5.93043 
        1.77943         49.1252         5.87988 
        1.78557         48.9065            5.83 
        1.79171         48.7195         5.78069 
        1.79785         48.3806         5.73194 
        1.80399         48.3408         5.68376 
        1.81012         48.0247          5.6362 
        1.81625         47.8097          5.5892 
        1.82239         47.5768         5.54267 
        1.82853         47.3869         5.49669 
        1.83466         47.1461         5.45128 
        1.84078          46.882         5.40642 
        1.84692         46.7248           5.362 
        1.85306         46.4835         5.31802 
         1.8592         46.3287          5.2746 
        1.86533         46.0761         5.23169 
        1.87147         45.7772          5.1892 
        1.87761         45.7284         5.14717 
        1.88375         45.4859         5.10565 
        1.88988         45.2116         5.06464 
        1.89601         45.0699         5.02405 
        1.90215         44.8046         4.98387 
        1.90829         44.6825         4.94415 
        1.91442         44.5339         4.90486 
        1.92056         44.2754         4.86604 
         1.9267         44.0926         4.82759 
        1.93284         43.7894         4.78953 
        1.93897         43.6842         4.75196 
        1.94509         43.5558         4.71487 
        1.95123         43.3082         4.67808 
        1.95737         43.0643         4.64165 
        1.96349          42.912         4.60571 
        1.96964         42.6805         4.57004 
        1.97578         42.4597         4.53473 
        1.98192         42.3954         4.49987 
        1.98805         42.1769         4.46537 
        1.99419         41.9481         4.43123 
        2.00033         41.8099         4.39742 
        2.00647         41.6745         4.36398 
         2.0126         41.3226         4.33094 
        2.01874         41.2503          4.2982 
        2.02488         41.0887         4.26576 
        2.03101         40.9175         4.23372 
        2.03714         40.7281         4.20203 
        2.04328         40.5346         4.17063 
        2.04941         40.3376         4.13958 
        2.05554         40.1651         4.10887 
        2.06167         40.0505         4.07842 
        2.06781         39.7947         4.04828 
        2.07396         39.6828          4.0184 
        2.08009         39.5209         3.98888 
        2.08622         39.2179         3.95968 
        2.09237         39.1657         3.93072 
        2.09851          39.054         3.90204 
        2.10464          38.843          3.8737 
        2.11077         38.6059         3.84567 
        2.11691         38.4331         3.81785 
        2.12305         38.3118         3.79031 
        2.12918         38.1997         3.76311 
        2.13531           37.93         3.73616 
        2.14145         37.7422         3.70943 
         2.1476         37.5682         3.68292 
        2.15372         37.4065          3.6568 
        2.15985         37.3633         3.63091 
        2.16599         37.1435         3.60519 
        2.17213         37.0367         3.57975 
        2.17827         36.8197         3.55456 
         2.1844         36.6308         3.52964 
        2.19054         36.4757         3.50495 
        2.19666         36.2884         3.48052 
         2.2028         36.2295         3.45631 
        2.20893         36.0559         3.43231 
        2.21508         35.9317         3.40852 
        2.22122         35.7919         3.38494 
        2.22736         35.6039         3.36164 
        2.23349         35.4573         3.33856 
        2.23962         35.2883         3.31568 
        2.24577         35.0906           3.293 
         2.2519         34.9468         3.27056 
        2.25802         34.8908         3.24836 
        2.26417         34.6925         3.22631 
        2.27031         34.5413         3.20444 
        2.27644         34.3784         3.18284 
        2.28257         34.2306         3.16144 
        2.28872         34.0804         3.14019 
        2.29486         33.9599         3.11915 
        2.30099          33.866         3.09833 
        2.30712         33.6962          3.0777 
        2.31326         33.5348         3.05722 
         2.3194          33.345         3.03694 
        2.32553         33.2188         3.01688 
        2.33166         33.0915           2.997 
         2.3378         32.9837         2.97728 
        2.34394         32.8962         2.95773 
        2.35007         32.6998         2.93838 
        2.35619         32.5326         2.91922 
        2.36233         32.4125         2.90019 
        2.36848         32.3582          2.8813 
        2.37462         32.1097          2.8626 
        2.38075         32.0789          2.8441 
        2.38689         31.9033         2.82574 
        2.39303         31.7084         2.80754 
        2.39916         31.5678         2.78953 
        2.40529         31.4871         2.77167 
        2.41143         31.3767         2.75396 
        2.41757         31.2197         2.73639 
         2.4237         31.1427         2.71901 
        2.42983         31.0018         2.70178 
        2.43598         30.8806         2.68465 
        2.44211         30.7068          2.6677 
        2.44823         30.6302         2.65094 
        2.45437         30.4336         2.63427 
        2.46052         30.3255         2.61773 
        2.46665            30.2         2.60136 
        2.47279         30.0369         2.58514 
        2.47892         30.0041         2.56904 
        2.48507         29.8526         2.55307 
         2.4912          29.721         2.53726 
