# k  (h/Mpc)    P(k)  (Mpc/h)^3    P_linear(k)  (Mpc/h)^3
     0.00783031         13769.7         13813.1 
       0.013688         17149.1           17583 
       0.019231         18088.2         18367.1 
      0.0249154           17526         17530.5 
      0.0312784         15449.4         15659.6 
      0.0375637         13321.5           13617 
      0.0433917         11822.5         11949.5 
      0.0492413         10434.9         10639.6 
      0.0555754         9503.98         9619.98 
      0.0619321         8511.89         8899.38 
       0.067871         8117.44         8366.59 
      0.0738098         7678.95         7857.84 
      0.0800417         7112.95          7276.9 
      0.0862327         6451.62         6636.09 
      0.0921407         5868.81         5996.37 
      0.0982031         5342.54         5365.19 
       0.104506         4730.47         4790.64 
       0.110769         4331.62         4335.12 
       0.116806         4099.45         4008.91 
       0.122832          3835.1         3775.44 
       0.129052         3640.94         3597.99 
       0.135211         3554.66         3448.48 
       0.141259         3331.42         3296.48 
       0.147318         3117.35         3121.55 
       0.153489         2953.06         2917.75 
       0.159709         2829.87         2697.53 
       0.165845          2574.6         2483.81 
       0.171974         2488.99         2291.23 
       0.178125         2387.11         2130.22 
       0.184229         2193.41         2005.56 
        0.19034         2159.36          1911.6 
       0.196428         2099.68         1839.45 
       0.202534         1982.65         1777.33 
       0.208729         1951.05         1714.25 
       0.214876         1873.02         1644.65 
       0.220989         1781.88         1566.39 
       0.227147         1734.04         1480.88 
        0.23329          1664.6         1394.24 
       0.239377         1649.41         1312.94 
       0.245482         1568.29         1240.55 
       0.251667         1509.77         1178.97 
       0.257832         1485.56         1129.16 
       0.263955         1420.09         1088.77 
       0.270079         1384.81         1053.95 
        0.27624         1329.04         1020.87 
       0.282372         1314.34         987.005 
        0.28843         1294.14         951.209 
       0.294538         1235.18         912.705 
       0.300721         1211.23         872.581 
        0.30691         1183.07         833.069 
       0.313033         1137.46         796.483 
       0.319153         1124.67           763.6 
       0.325316         1111.04          734.72 
        0.33145         1087.68         709.796 
       0.337538         1052.37         687.962 
       0.343633         1028.61         667.792 
       0.349808         1009.74         648.006 
       0.355968         990.342         628.045 
       0.362074         960.712         607.777 
       0.368217         958.241         586.971 
       0.374374         943.689          566.18 
       0.380519         910.636         546.086 
       0.386598         905.991         527.333 
       0.392688          883.95          510.05 
        0.39888         865.196         494.044 
       0.405048         849.414          479.52 
       0.411186         846.954          466.16 
       0.417313         843.526          453.49 
       0.423458          817.64         441.125 
       0.429607         795.644         428.883 
       0.435692         789.136         416.773 
       0.441815         774.173         404.682 
       0.447964         765.368         392.778 
       0.454126         755.388         381.241 
       0.460267         745.729         370.295 
       0.466387         733.933         360.044 
        0.47254         721.694         350.366 
       0.478662         712.136         341.305 
       0.484765         705.144         332.746 
       0.490885         697.095         324.504 
       0.497035         684.541         316.441 
       0.503198         684.013         308.522 
       0.509342         671.199         300.779 
       0.515458         658.186         293.218 
       0.521598         655.913         285.809 
       0.527764          641.29         278.609 
       0.533884         635.755         271.753 
           0.54         630.482         265.203 
       0.546137         621.514         258.914 
       0.552299         618.565         252.868 
       0.558452         610.793         247.075 
       0.564573         605.877         241.508 
       0.570708         600.063         236.086 
       0.576825         588.173         230.803 
       0.582926         586.625         225.658 
       0.589034         578.503         220.636 
       0.595184         572.905         215.719 
       0.601379         564.478         210.914 
       0.607522         555.934           206.3 
       0.613639         555.346         201.859 
       0.619772         551.895         197.562 
       0.625918          542.53         193.407 
       0.632068         539.593         189.384 
       0.638161         533.555         185.516 
         0.6443         527.814         181.722 
       0.650464         523.553         178.007 
       0.656582         519.666         174.412 
       0.662703          514.07          170.91 
       0.668861         507.795         167.481 
       0.675024         505.258         164.144 
       0.681124         496.618         160.935 
       0.687237         496.159         157.808 
       0.693381         488.584         154.754 
       0.699536         487.987         151.779 
       0.705665         481.989         148.899 
       0.711789         480.729           146.1 
       0.717957          473.84         143.356 
        0.72409         469.735         140.698 
       0.730186         470.193         138.122 
       0.736317         462.799         135.595 
       0.742472         458.301         133.119 
       0.748622         456.181         130.705 
        0.75476         451.666         128.356 
       0.760888         449.005         126.069 
       0.767043         446.224         123.829 
       0.773185          442.97         121.651 
       0.779291          437.83          119.54 
       0.785407         435.217         117.478 
       0.791564         432.358         115.452 
       0.797719         426.051         113.477 
       0.803834         427.864          111.56 
       0.809972         421.254          109.68 
       0.816124         417.832         107.839 
       0.822261         415.035         106.045 
       0.828378         413.322         104.297 
       0.834502         406.665         102.587 
       0.840667          406.87         100.904 
       0.846816         401.416         99.2644 
       0.852925         401.777         97.6716 
       0.859047         397.947         96.1108 
       0.865192         395.781         94.5795 
       0.871341         390.783          93.081 
       0.877463         389.343         91.6221 
       0.883569         385.901         90.1986 
       0.889708          382.18         88.7982 
       0.895864         378.809         87.4243 
       0.902008         377.557         86.0824 
       0.908149         374.335         84.7697 
       0.914301         372.729         83.4823 
       0.920448          369.21         82.2229 
       0.926574         367.279         80.9941 
       0.932687         365.907         79.7931 
       0.938823         361.634         78.6122 
       0.944975         360.554         77.4527 
       0.951105         357.533         76.3209 
       0.957225         352.996         75.2137 
       0.963368         353.857         74.1249 
       0.969511         347.912         73.0577 
       0.975621         347.147         72.0175 
       0.981748         345.467         70.9949 
       0.987916         343.247         69.9859 
        0.99406         340.054         69.0004 
        1.00019         336.821          68.036 
        1.00632           336.7          67.091 
        1.01246         333.786         66.1627 
        1.01859         330.303         65.2535 
        1.02471         328.501         64.3627 
        1.03085         327.582         63.4855 
        1.03698         325.564         62.6266 
        1.04314         323.981           61.78 
        1.04929         322.098         60.9512 
        1.05541         318.224          60.141 
        1.06154         316.904         59.3436 
        1.06769         314.104         58.5595 
        1.07382         312.384         57.7923 
        1.07993         310.815         57.0406 
        1.08607         309.158         56.2992 
        1.09222         306.491         55.5704 
        1.09836         305.434         54.8553 
        1.10449          303.21         54.1537 
        1.11063         301.134         53.4637 
        1.11677         298.109          52.786 
         1.1229         297.714         52.1212 
        1.12903         295.127         51.4674 
        1.13518         293.182         50.8243 
        1.14131         292.245         50.1925 
        1.14745         288.893         49.5719 
        1.15359         286.889         48.9618 
        1.15973         285.833         48.3617 
        1.16584         284.093         47.7744 
        1.17197         282.406          47.196 
        1.17811         279.669         46.6255 
        1.18424         278.563         46.0661 
        1.19038         277.165         45.5143 
        1.19652         274.259         44.9718 
        1.20267         273.688         44.4381 
        1.20881         271.773         43.9133 
        1.21495         270.607         43.3978 
        1.22108         268.727         42.8907 
         1.2272         265.411         42.3929 
        1.23334         264.779          41.902 
        1.23949         263.416         41.4176 
        1.24562         262.026         40.9424 
        1.25174         260.247         40.4753 
        1.25789         257.953         40.0141 
        1.26402         257.603         39.5609 
        1.27014         256.376         39.1159 
        1.27628         253.987         38.6765 
        1.28244         252.377         38.2429 
        1.28858         251.105         37.8167 
        1.29471         249.711         37.3979 
        1.30084         248.851         36.9858 
        1.30697         246.044         36.5794 
        1.31312           244.7         36.1785 
        1.31925         243.517         35.7849 
        1.32537         242.526         35.3976 
        1.33151         240.626         35.0146 
        1.33765          238.88         34.6375 
        1.34378         237.793         34.2668 
        1.34992         235.766         33.9012 
        1.35606         234.905         33.5402 
         1.3622         233.251         33.1851 
        1.36833         232.239          32.836 
        1.37445         231.518         32.4921 
        1.38059         228.852         32.1521 
        1.38675         227.491         31.8161 
        1.39288         226.702         31.4863 
        1.39901          224.66         31.1613 
        1.40515         223.901         30.8402 
         1.4113         222.253         30.5238 
        1.41742         220.447          30.213 
        1.42355           220.5          29.906 
         1.4297         218.678         29.6024 
        1.43585         217.338          29.303 
        1.44198         215.733          29.009 
        1.44809         214.952         28.7196 
        1.45423         213.613         28.4331 
        1.46036         212.355          28.151 
        1.46649         211.141         27.8726 
        1.47263         210.018         27.5978 
        1.47877         208.604         27.3268 
        1.48491             207         27.0591 
        1.49104         205.338         26.7955 
        1.49718         204.858         26.5353 
        1.50333         203.013         26.2781 
        1.50947         202.271         26.0248 
         1.5156         201.125         25.7753 
        1.52172         199.996          25.529 
        1.52787         198.687         25.2855 
          1.534          198.16         25.0454 
        1.54013         196.552         24.8088 
        1.54627         195.637         24.5747 
        1.55241         194.564         24.3437 
        1.55855         193.509         24.1159 
        1.56467         192.303         23.8917 
         1.5708         190.772         23.6697 
        1.57695         190.067         23.4502 
        1.58308         188.785          23.234 
        1.58922         187.687         23.0204 
        1.59535         186.257         22.8096 
         1.6015         185.646         22.6011 
        1.60764         184.281         22.3953 
        1.61376         182.916         22.1926 
        1.61989         181.998         21.9923 
        1.62604         181.059          21.794 
        1.63218         180.087         21.5983 
        1.63831         179.368         21.4055 
        1.64444         177.764         21.2149 
        1.65059         177.037         21.0262 
        1.65673          175.89         20.8401 
        1.66285         174.987         20.6567 
        1.66898          174.06         20.4754 
        1.67512          172.91          20.296 
        1.68127         172.086         20.1185 
         1.6874         170.997         19.9436 
        1.69353          170.27         19.7709 
        1.69967         168.874         19.5998 
        1.70581         168.451         19.4308 
        1.71193         167.125         19.2644 
        1.71806         166.041         19.0997 
        1.72421         165.218         18.9365 
        1.73035         164.139         18.7755 
        1.73649         163.063         18.6163 
        1.74262         162.517         18.4591 
        1.74876           161.7         18.3037 
        1.75489         161.024         18.1503 
        1.76101         159.616         17.9988 
        1.76715         158.662         17.8488 
        1.77329         157.573         17.7003 
        1.77943          156.71         17.5534 
        1.78557         156.034         17.4084 
        1.79171         155.307         17.2651 
        1.79785         154.134         17.1233 
        1.80399         153.382         16.9831 
        1.81012         152.664         16.8447 
        1.81625          151.47         16.7079 
        1.82239         150.824         16.5725 
        1.82853         149.973         16.4386 
        1.83466         148.688         16.3063 
        1.84078         148.393         16.1756 
        1.84692         147.533         16.0461 
        1.85306         146.457         15.9179 
         1.8592         145.978         15.7913 
        1.86533         144.584         15.6661 
        1.87147         143.937         15.5422 
        1.87761         143.223         15.4195 
        1.88375         142.052         15.2983 
        1.88988         141.704         15.1786 
        1.89601         141.179           15.06 
        1.90215         140.467         14.9426 
        1.90829         138.995         14.8266 
        1.91442         138.389         14.7118 
        1.92056         137.703         14.5983 
         1.9267         136.943         14.4858 
        1.93284         135.896         14.3745 
        1.93897         135.388         14.2646 
        1.94509         134.524          14.156 
        1.95123         133.873         14.0483 
        1.95737         133.252         13.9417 
        1.96349         132.334         13.8364 
        1.96964         131.619          13.732 
        1.97578         130.801         13.6285 
        1.98192         130.337         13.5263 
        1.98805         129.551         13.4252 
        1.99419         128.381         13.3251 
        2.00033         128.061          13.226 
        2.00647           127.5         13.1279 
         2.0126         126.534          13.031 
        2.01874         125.929         12.9349 
        2.02488         125.155         12.8396 
        2.03101         124.745         12.7456 
        2.03714         123.819         12.6525 
        2.04328         123.303         12.5603 
        2.04941         122.836         12.4691 
        2.05554          122.11         12.3788 
        2.06167         121.185         12.2893 
        2.06781         120.567         12.2007 
        2.07396          119.94         12.1128 
        2.08009         119.213          12.026 
        2.08622         118.594         11.9401 
        2.09237          117.68         11.8549 
        2.09851         117.432         11.7705 
        2.10464         116.686          11.687 
        2.11077         116.027         11.6045 
        2.11691         115.505         11.5225 
        2.12305         114.895         11.4414 
        2.12918         114.178         11.3612 
        2.13531         113.434         11.2818 
        2.14145         113.026          11.203 
         2.1476         112.297         11.1249 
        2.15372         111.599         11.0478 
        2.15985         110.963         10.9715 
        2.16599         110.355         10.8956 
        2.17213         109.784         10.8205 
        2.17827         109.194         10.7462 
         2.1844         108.769         10.6726 
        2.19054         108.015         10.5997 
        2.19666         107.268         10.5276 
         2.2028         106.875         10.4561 
        2.20893         106.483         10.3852 
        2.21508         105.645         10.3148 
        2.22122         105.106         10.2452 
        2.22736         104.824         10.1763 
        2.23349         104.165          10.108 
        2.23962          103.48         10.0404 
        2.24577         102.953         9.97327 
         2.2519         102.279         9.90688 
        2.25802         101.925          9.8412 
        2.26417          101.15         9.77593 
        2.27031         100.564          9.7112 
        2.27644         100.246         9.64724 
        2.28257         99.7257         9.58386 
        2.28872         99.1659         9.52092 
        2.29486         98.8419         9.45857 
        2.30099         98.0251         9.39691 
        2.30712         97.7043         9.33576 
        2.31326         97.1323         9.27506 
         2.3194         96.6069         9.21493 
        2.32553         96.1013         9.15544 
        2.33166         95.6547          9.0965 
         2.3378         95.0194         9.03799 
        2.34394         94.4423         8.97999 
        2.35007         93.9159         8.92257 
        2.35619         93.4506         8.86573 
        2.36233         93.0229         8.80924 
        2.36848         92.3659         8.75314 
        2.37462         92.2253         8.69764 
        2.38075         91.5608         8.64267 
        2.38689         91.1156         8.58813 
        2.39303         90.6812         8.53407 
        2.39916         90.2098         8.48054 
        2.40529         89.8073         8.42746 
        2.41143         89.2715         8.37481 
        2.41757         88.5887         8.32257 
         2.4237         88.2315         8.27088 
        2.42983         87.6834         8.21964 
        2.43598         87.4239         8.16869 
        2.44211         87.0688         8.11826 
        2.44823         86.4816         8.06836 
        2.45437         86.1107         8.01875 
        2.46052         85.5412         7.96952 
        2.46665         85.0089         7.92078 
        2.47279         84.7484         7.87247 
        2.47892         84.3641         7.82453 
        2.48507         83.9808         7.77694 
         2.4912         83.2961         7.72984 
