#  k  (h/Mpc)          P(k)  (Mpc/h)^3     P_linear(k) (Mpc/h)^3
     0.00783031         5253.73         5319.76 
       0.013688         6158.55         6140.22 
       0.019231         5801.02         5787.73 
      0.0249154          4910.4         4954.91 
      0.0312784          3965.6         3967.54 
      0.0375637         3225.18         3205.47 
      0.0433917         2733.97         2740.87 
      0.0492413         2463.59            2460 
      0.0555754         2247.59         2271.74 
      0.0619321         2123.23         2108.88 
       0.067871          1911.9          1926.4 
      0.0738098         1695.19         1706.28 
      0.0800417         1448.55         1461.74 
      0.0862327         1244.77         1243.65 
      0.0921407         1095.19         1083.48 
      0.0982031         978.152         973.574 
       0.104506         925.337          906.68 
       0.110769         879.286         866.783 
       0.116806         836.785         832.113 
       0.122832          795.45          786.56 
       0.129052         725.391         723.724 
       0.135211          657.39         651.651 
       0.141259         597.772         582.159 
       0.147318          543.54         523.288 
       0.153489         495.643         479.142 
       0.159709         468.299         450.068 
       0.165845          452.89         431.803 
       0.171974         432.304         417.525 
       0.178125         416.129         401.541 
       0.184229         396.608         381.026 
        0.19034         365.501         356.048 
       0.196428         346.531         329.309 
       0.202534         326.709         303.947 
       0.208729          303.75         282.311 
       0.214876         285.498         265.908 
       0.220989         275.707         254.004 
       0.227147         263.048         244.816 
        0.23329          253.78         236.518 
       0.239377         246.585         227.632 
       0.245482         230.918         217.391 
       0.251667         224.334         205.919 
       0.257832         213.865         194.236 
       0.263955         203.439         183.365 
       0.270079         194.035         173.925 
        0.27624         188.959         166.078 
       0.282372          182.15         159.686 
        0.28843          175.23         154.238 
       0.294538         168.138         149.053 
       0.300721         165.103         143.685 
        0.30691         157.324         138.015 
       0.313033         152.196         132.208 
       0.319153         144.844         126.455 
       0.325316         141.472         120.992 
        0.33145         135.676         116.083 
       0.337538         132.667         111.776 
       0.343633         127.875         107.958 
       0.349808         123.944         104.426 
       0.355968         121.219         101.073 
       0.362074         117.508         97.7815 
       0.368217          113.83         94.4587 
       0.374374         110.156         91.1379 
       0.380519         107.569         87.8974 
       0.386598         104.439         84.8496 
       0.392688         102.263         82.0004 
        0.39888         99.3322         79.3259 
       0.405048         96.7127         76.8676 
       0.411186         94.4459         74.5698 
       0.417313         91.8541         72.3719 
       0.423458         89.5806         70.2311 
       0.429607         87.2952          68.128 
       0.435692         84.3057         66.0884 
       0.441815         83.3116         64.0994 
       0.447964          81.747         62.1842 
       0.454126         78.0249         60.3577 
       0.460267         77.0408         58.6365 
       0.466387         75.3874         57.0152 
        0.47254         73.8468         55.4609 
       0.478662         72.8523         53.9726 
       0.484765         70.5996         52.5368 
       0.490885         69.1939           51.14 
       0.497035         68.2747         49.7756 
       0.503198         66.2643         48.4498 
       0.509342         64.7231         47.1748 
       0.515458         63.5658         45.9569 
       0.521598         62.5534         44.7861 
       0.527764          61.421         43.6576 
       0.533884         60.4388         42.5795 
           0.54         59.0325           41.54 
       0.546137         58.3192         40.5314 
       0.552299         57.3906         39.5509 
       0.558452         55.8212         38.6016 
       0.564573         54.8116         37.6855 
       0.570708         53.9991         36.7959 
       0.576825         53.0481         35.9384 
       0.582926          51.858         35.1128 
       0.589034         50.7513         34.3149 
       0.595184         50.0976         33.5385 
       0.601379         49.2712         32.7816 
       0.607522         48.1234          32.054 
       0.613639         47.8811         31.3506 
       0.619772         46.7481          30.666 
       0.625918         46.2757         30.0003 
       0.632068          45.656         29.3542 
       0.638161         44.8905         28.7334 
         0.6443         44.1371         28.1268 
       0.650464         43.4557          27.536 
       0.656582         42.9948         26.9668 
       0.662703         42.1057         26.4137 
       0.668861         41.5017         25.8731 
       0.675024         40.9062         25.3473 
       0.681124         40.2277         24.8415 
       0.687237         39.4908         24.3485 
       0.693381         39.1616         23.8667 
       0.699536         38.3626         23.3974 
       0.705665         38.4479         22.9428 
       0.711789         37.4068          22.501 
       0.717957         36.9698          22.068 
        0.72409         36.4866         21.6489 
       0.730186         35.8972         21.2434 
       0.736317         35.6705         20.8462 
       0.742472         35.0685         20.4578 
       0.748622         34.7117         20.0796 
        0.75476         34.2326         19.7119 
       0.760888         33.6803          19.354 
       0.767043         33.2768         19.0037 
       0.773185         32.8106         18.6629 
       0.779291         32.6332         18.3324 
       0.785407         32.3215         18.0095 
       0.791564           31.78         17.6925 
       0.797719         31.1085         17.3833 
       0.803834         31.0408         17.0836 
       0.809972          30.591         16.7899 
       0.816124         30.1041         16.5026 
       0.822261         29.8343         16.2229 
       0.828378         29.6459         15.9506 
       0.834502         29.2736         15.6843 
       0.840667         28.9304         15.4225 
       0.846816         28.4518         15.1674 
       0.852925         28.2215         14.9198 
       0.859047          27.866         14.6772 
       0.865192         27.5875         14.4393 
       0.871341         27.4599         14.2066 
       0.877463         26.9206         13.9801 
       0.883569         26.6627         13.7592 
       0.889708         26.4092         13.5419 
       0.895864         26.1356         13.3288 
       0.902008          25.907         13.1209 
       0.908149         25.6381         12.9175 
       0.914301         25.5438         12.7181 
       0.920448         25.1379         12.5232 
       0.926574         24.8806         12.3331 
       0.932687         24.6329         12.1473 
       0.938823         24.2887         11.9648 
       0.944975         24.1517         11.7856 
       0.951105         23.8965         11.6108 
       0.957225         23.6056         11.4398 
       0.963368         23.5759         11.2717 
       0.969511         23.2954          11.107 
       0.975621         23.1143         10.9466 
       0.981748         22.7661         10.7889 
       0.987916         22.6241         10.6333 
        0.99406         22.4228         10.4814 
        1.00019         22.1565         10.3328 
        1.00632         22.0132         10.1873 
        1.01246         21.9086         10.0443 
        1.01859         21.5321         9.90439 
        1.02471         21.4872          9.7673 
        1.03085         21.2931         9.63234 
        1.03698         20.9511         9.50025 
        1.04314         20.8291         9.37008 
        1.04929          20.628         9.24268 
        1.05541         20.4092         9.11818 
        1.06154         20.3339         8.99568 
        1.06769         20.1844         8.87527 
        1.07382         19.9775         8.75748 
        1.07993         19.8571         8.64211 
        1.08607         19.6019         8.52836 
        1.09222         19.5217         8.41656 
        1.09836         19.3017         8.30692 
        1.10449         19.1681         8.19937 
        1.11063         18.9224         8.09362 
        1.11677         18.8672         7.98979 
         1.1229         18.7554         7.88798 
        1.12903         18.5234         7.78786 
        1.13518         18.3832         7.68942 
        1.14131         18.3183         7.59275 
        1.14745         18.1161          7.4978 
        1.15359         18.0609         7.40447 
        1.15973         17.8418         7.31271 
        1.16584         17.6469         7.22292 
        1.17197         17.6525         7.13452 
        1.17811         17.4158         7.04734 
        1.18424          17.288         6.96188 
        1.19038         17.2248         6.87759 
        1.19652         17.1129         6.79474 
        1.20267         16.9731         6.71327 
        1.20881         16.8288         6.63315 
        1.21495          16.728         6.55448 
        1.22108         16.5905          6.4771 
         1.2272         16.4344         6.40116 
        1.23334          16.373         6.32628 
        1.23949         16.2243         6.25241 
        1.24562         16.1325         6.17995 
        1.25174         16.0451         6.10874 
        1.25789         15.8965         6.03845 
        1.26402          15.841          5.9694 
        1.27014         15.6488          5.9016 
        1.27628          15.544         5.83465 
        1.28244         15.4809         5.76863 
        1.28858         15.4155         5.70372 
        1.29471         15.2859         5.63995 
        1.30084         15.1699         5.57723 
        1.30697          15.066         5.51537 
        1.31312         14.9169         5.45437 
        1.31925         14.8351         5.39449 
        1.32537         14.7874         5.33558 
        1.33151         14.6636         5.27733 
        1.33765         14.5978            5.22 
        1.34378         14.4994         5.16364 
        1.34992         14.3369         5.10808 
        1.35606         14.3144         5.05322 
         1.3622         14.2245         4.99927 
        1.36833         14.0948         4.94624 
        1.37445         14.0787         4.89401 
        1.38059         13.9421         4.84238 
        1.38675         13.7841         4.79138 
        1.39288         13.7712         4.74132 
        1.39901         13.6679           4.692 
        1.40515         13.6137         4.64327 
         1.4113         13.5094         4.59526 
        1.41742         13.3906         4.54812 
        1.42355         13.3511         4.50155 
         1.4297         13.3047          4.4555 
        1.43585         13.2294         4.41011 
        1.44198         13.1183         4.36554 
        1.44809         13.0351         4.32166 
        1.45423         12.9708         4.27823 
        1.46036         12.9067         4.23548 
        1.46649         12.8387          4.1933 
        1.47263         12.7246         4.15166 
        1.47877         12.6686         4.11061 
        1.48491         12.6335         4.07005 
        1.49104         12.5692         4.03013 
        1.49718         12.4599         3.99071 
        1.50333         12.4105         3.95176 
        1.50947         12.3403         3.91341 
         1.5156         12.2451         3.87564 
        1.52172         12.1854         3.83836 
        1.52787         12.1467          3.8015 
          1.534         12.0443         3.76517 
        1.54013         11.9522         3.72936 
        1.54627         11.9017         3.69395 
        1.55241         11.8418         3.65899 
        1.55855         11.7657         3.62454 
        1.56467         11.7118         3.59064 
         1.5708         11.7001         3.55707 
        1.57695         11.5857         3.52388 
        1.58308         11.5613          3.4912 
        1.58922         11.4936         3.45891 
        1.59535         11.4168         3.42704 
         1.6015         11.3483         3.39553 
        1.60764         11.3116         3.36443 
        1.61376         11.2347         3.33381 
        1.61989          11.162         3.30355 
        1.62604         11.1487          3.2736 
        1.63218         11.0752         3.24404 
        1.63831         11.0362         3.21492 
        1.64444         10.9347         3.18615 
        1.65059         10.8856         3.15766 
        1.65673         10.8613         3.12955 
        1.66285         10.7721         3.10186 
        1.66898         10.7605          3.0745 
        1.67512         10.7005         3.04742 
        1.68127         10.6496         3.02065 
         1.6874         10.5749         2.99425 
        1.69353         10.5081         2.96819 
        1.69967         10.4748         2.94237 
        1.70581         10.4329         2.91688 
        1.71193         10.3685         2.89179 
        1.71806         10.3179         2.86693 
        1.72421         10.2687         2.84233 
        1.73035         10.2097         2.81804 
        1.73649         10.1778         2.79404 
        1.74262          10.156         2.77034 
        1.74876         10.0947          2.7469 
        1.75489         10.0446         2.72378 
        1.76101         9.97134         2.70093 
        1.76715         9.96161         2.67832 
        1.77329         9.87813         2.65594 
        1.77943         9.84086         2.63381 
        1.78557         9.81716         2.61196 
        1.79171         9.77685         2.59036 
        1.79785         9.68929         2.56899 
        1.80399         9.66452         2.54788 
        1.81012          9.6486         2.52703 
        1.81625         9.58253         2.50643 
        1.82239         9.54083         2.48602 
        1.82853         9.47448         2.46586 
        1.83466         9.42459         2.44593 
        1.84078         9.38802         2.42625 
        1.84692         9.36731         2.40676 
        1.85306         9.30915         2.38745 
         1.8592         9.27582         2.36839 
        1.86533         9.25176         2.34955 
        1.87147         9.19801         2.33089 
        1.87761         9.17231         2.31243 
        1.88375         9.09063         2.29419 
        1.88988         9.07849         2.27617 
        1.89601          9.0445         2.25833 
        1.90215         8.99232         2.24067 
        1.90829         8.95598         2.22321 
        1.91442         8.92299         2.20594 
        1.92056         8.88077         2.18886 
         1.9267         8.84314         2.17195 
        1.93284         8.79352         2.15521 
        1.93897         8.75704         2.13867 
        1.94509         8.71577         2.12235 
        1.95123         8.69635         2.10615 
        1.95737         8.66334         2.09012 
        1.96349         8.62094         2.07429 
        1.96964         8.57028         2.05858 
        1.97578         8.53847         2.04303 
        1.98192         8.50171         2.02767 
        1.98805         8.48235         2.01246 
        1.99419         8.42868         1.99741 
        2.00033         8.39725         1.98251 
        2.00647          8.3661         1.96777 
         2.0126         8.33555          1.9532 
        2.01874          8.2859         1.93876 
        2.02488         8.24092         1.92445 
        2.03101         8.23733         1.91031 
        2.03714         8.19905         1.89633 
        2.04328         8.16151         1.88247 
        2.04941         8.10559         1.86876 
        2.05554         8.10349          1.8552 
        2.06167         8.05331         1.84176 
        2.06781          8.0405         1.82845 
        2.07396         8.01816         1.81525 
        2.08009         7.98344         1.80221 
        2.08622         7.90516         1.78931 
        2.09237         7.91681         1.77651 
        2.09851         7.87765         1.76383 
        2.10464         7.83986          1.7513 
        2.11077         7.79556          1.7389 
        2.11691          7.7737          1.7266 
        2.12305         7.75666         1.71442 
        2.12918          7.7108         1.70238 
        2.13531          7.6906         1.69046 
        2.14145         7.65408         1.67863 
         2.1476         7.64772          1.6669 
        2.15372         7.60258         1.65533 
        2.15985         7.56227         1.64387 
        2.16599         7.55446         1.63248 
        2.17213         7.51311         1.62121 
        2.17827         7.49406         1.61006 
         2.1844         7.46235         1.59902 
        2.19054         7.42421         1.58807 
        2.19666         7.41199         1.57725 
         2.2028         7.37776         1.56652 
        2.20893         7.35626         1.55588 
        2.21508         7.31108         1.54533 
        2.22122         7.28368         1.53487 
        2.22736         7.26655         1.52454 
        2.23349         7.22429          1.5143 
        2.23962          7.2093         1.50415 
        2.24577         7.17989         1.49408 
         2.2519         7.16295         1.48413 
        2.25802         7.12793         1.47427 
        2.26417         7.10878         1.46448 
        2.27031         7.06242         1.45478 
        2.27644         7.04803         1.44518 
        2.28257         7.02068         1.43568 
        2.28872         7.00213         1.42624 
        2.29486         6.97603         1.41689 
        2.30099         6.97083         1.40764 
        2.30712         6.92327         1.39847 
        2.31326         6.90141         1.38937 
         2.3194         6.87487         1.38035 
        2.32553         6.84581         1.37143 
        2.33166         6.81628          1.3626 
         2.3378         6.79951         1.35382 
        2.34394         6.78182         1.34513 
        2.35007         6.74473         1.33652 
        2.35619         6.71419           1.328 
        2.36233         6.69545         1.31953 
        2.36848          6.6891         1.31112 
        2.37462         6.66157          1.3028 
        2.38075         6.62004         1.29456 
        2.38689         6.60071         1.28639 
        2.39303         6.57992         1.27829 
        2.39916         6.57167         1.27026 
        2.40529         6.54067         1.26231 
        2.41143         6.52108         1.25442 
        2.41757          6.5003         1.24659 
         2.4237         6.48026         1.23884 
        2.42983         6.44302         1.23116 
        2.43598         6.44765         1.22353 
        2.44211         6.41065         1.21597 
        2.44823         6.38216          1.2085 
        2.45437         6.37713         1.20106 
        2.46052         6.33623         1.19369 
        2.46665          6.3139         1.18639 
        2.47279         6.29208         1.17915 
        2.47892         6.27737         1.17197 
        2.48507         6.24937         1.16484 
         2.4912         6.23313         1.15778 
