#  k  (h/Mpc)          P(k)  (Mpc/h)^3     P_linear(k) (Mpc/h)^3
     0.00783031         2266.52          2287.5 
       0.013688         2508.92         2540.36 
       0.019231         2294.03         2305.36 
      0.0249154         1894.14         1886.98 
      0.0312784         1430.66          1426.1 
      0.0375637         1088.76          1087.8 
      0.0433917         897.624         892.548 
      0.0492413         786.335         785.314 
      0.0555754         731.624          727.31 
      0.0619321         681.363         687.069 
       0.067871         637.871         638.133 
      0.0738098          569.62         569.064 
      0.0800417         485.414         482.594 
      0.0862327         400.909         398.991 
      0.0921407         337.035         334.494 
      0.0982031         293.739         289.479 
       0.104506         264.869         263.712 
       0.110769         253.982         252.657 
       0.116806         249.992         247.512 
       0.122832         241.011         240.415 
       0.129052         228.048         226.424 
       0.135211          208.59         205.691 
       0.141259         184.191         181.992 
       0.147318         161.096         159.367 
       0.153489         143.663         140.939 
       0.159709          131.88         128.482 
       0.165845         123.228         121.602 
       0.171974         121.514         118.216 
       0.178125         118.547         115.933 
       0.184229         114.394           112.7 
        0.19034         109.878          107.37 
       0.196428         102.715         100.047 
       0.202534         93.2803         91.6817 
       0.208729         86.5382         83.4925 
       0.214876         80.3541         76.7235 
       0.220989         74.5244         71.7956 
       0.227147         72.0054         68.5215 
        0.23329         69.7083         66.3961 
       0.239377         68.1328         64.7081 
       0.245482         65.8234         62.8076 
       0.251667         62.7941         60.2959 
       0.257832         60.6213         57.1893 
       0.263955         56.5764         53.7784 
       0.270079         53.2377         50.4162 
        0.27624         50.1967         47.4263 
       0.282372         47.9141         45.0139 
        0.28843         46.6335           43.18 
       0.294538         44.8861         41.7461 
       0.300721         43.2024         40.5002 
        0.30691         42.3073         39.2577 
       0.313033         40.7197         37.8973 
       0.319153         39.6229         36.3844 
       0.325316         37.5858         34.7585 
        0.33145         35.8944         33.1508 
       0.337538         34.4704         31.6658 
       0.343633         33.3603          30.357 
       0.349808         32.0965          29.228 
       0.355968         31.0566         28.2636 
       0.362074         30.4277         27.4116 
       0.368217         29.4688         26.5892 
       0.374374         28.7415         25.7569 
       0.380519         27.5901         24.8964 
       0.386598         26.6454         24.0232 
       0.392688         25.6992         23.1567 
        0.39888         25.0655         22.3118 
       0.405048         24.3516          21.532 
       0.411186         23.5729         20.8293 
       0.417313         22.8744         20.1918 
       0.423458         22.1332         19.6027 
       0.429607         21.7514         19.0452 
       0.435692         21.3212         18.5061 
       0.441815         20.5108         17.9666 
       0.447964         19.8421         17.4296 
       0.454126         19.4441         16.8993 
       0.460267         19.1175         16.3865 
       0.466387         18.5136            15.9 
        0.47254          18.163          15.441 
       0.478662         17.5804         15.0119 
       0.484765         17.1637         14.6081 
       0.490885         16.6342          14.223 
       0.497035         16.2819         13.8505 
       0.503198         15.9747         13.4865 
       0.509342         15.4804         13.1305 
       0.515458         15.2146         12.7845 
       0.521598         14.8582         12.4478 
       0.527764         14.5873          12.122 
       0.533884         14.1719         11.8114 
           0.54         13.9102         11.5143 
       0.546137         13.4909         11.2294 
       0.552299         13.2235         10.9555 
       0.558452         12.9009         10.6921 
       0.564573          12.722          10.438 
       0.570708          12.431         10.1899 
       0.576825         12.2035         9.94907 
       0.582926         11.9373         9.71595 
       0.589034         11.6893         9.48996 
       0.595184         11.5382         9.27018 
       0.601379         11.2234         9.05642 
       0.607522         10.9816         8.85158 
       0.613639         10.7808         8.65433 
       0.619772         10.5864         8.46296 
       0.625918         10.3703         8.27722 
       0.632068         10.2268         8.09707 
       0.638161         10.0171         7.92386 
         0.6443         9.82752         7.75431 
       0.650464          9.5857          7.5889 
       0.656582         9.50014         7.42933 
       0.662703         9.34018         7.27423 
       0.668861         9.09675         7.12273 
       0.675024         8.93557         6.97555 
       0.681124         8.91552         6.83423 
       0.687237         8.70728         6.69674 
       0.693381         8.48441         6.56253 
       0.699536         8.42662         6.43186 
       0.705665         8.25033         6.30535 
       0.711789         8.09435         6.18235 
       0.717957         7.92362         6.06176 
        0.72409         7.83594         5.94502 
       0.730186         7.78136         5.83204 
       0.736317         7.59247          5.7214 
       0.742472          7.5029         5.61323 
       0.748622         7.37755         5.50799 
        0.75476          7.1851         5.40572 
       0.760888         7.13877         5.30624 
       0.767043         6.98303         5.20891 
       0.773185         6.89133         5.11427 
       0.779291         6.84217         5.02255 
       0.785407         6.70891         4.93297 
       0.791564         6.61683         4.84503 
       0.797719         6.48515         4.75931 
       0.803834         6.43622         4.67621 
       0.809972         6.30527         4.59482 
       0.816124         6.23525         4.51521 
       0.822261           6.148         4.43771 
       0.828378         6.06601         4.36228 
       0.834502         5.98354         4.28855 
       0.840667         5.91128         4.21606 
       0.846816         5.78054         4.14546 
       0.852925         5.74164         4.07694 
       0.859047         5.65072         4.00984 
       0.865192         5.57087         3.94403 
       0.871341         5.49886         3.87968 
       0.877463         5.41523         3.81706 
       0.883569         5.36996         3.75599 
       0.889708         5.28214         3.69596 
       0.895864         5.21292          3.6371 
       0.902008         5.13956         3.57965 
       0.908149         5.06675         3.52349 
       0.914301         5.00998         3.46846 
       0.920448         4.95805         3.41466 
       0.926574         4.91828          3.3622 
       0.932687         4.83009         3.31096 
       0.938823         4.74994         3.26062 
       0.944975          4.7286         3.21122 
       0.951105         4.63929         3.16303 
       0.957225         4.61409         3.11591 
       0.963368         4.54431         3.06961 
       0.969511         4.48919         3.02425 
       0.975621         4.43404         2.98006 
       0.981748         4.36936         2.93664 
       0.987916         4.32637         2.89383 
        0.99406         4.28573         2.85203 
        1.00019         4.23918         2.81115 
        1.00632         4.20166         2.77112 
        1.01246         4.13817         2.73181 
        1.01859         4.09443         2.69333 
        1.02471         4.03263         2.65564 
        1.03085         4.00284         2.61855 
        1.03698         3.95847         2.58226 
        1.04314         3.91268         2.54649 
        1.04929         3.86372          2.5115 
        1.05541         3.81997         2.47731 
        1.06154         3.78636         2.44367 
        1.06769         3.76356         2.41061 
        1.07382         3.69758         2.37828 
        1.07993         3.65841         2.34661 
        1.08607         3.63482          2.3154 
        1.09222         3.58575         2.28473 
        1.09836         3.57008         2.25465 
        1.10449         3.50014         2.22515 
        1.11063         3.48136         2.19615 
        1.11677         3.45058         2.16768 
         1.1229          3.4122         2.13976 
        1.12903         3.38401         2.11232 
        1.13518         3.33657         2.08534 
        1.14131         3.30546         2.05885 
        1.14745         3.26446         2.03284 
        1.15359         3.22923         2.00727 
        1.15973         3.19782         1.98214 
        1.16584         3.17599         1.95755 
        1.17197         3.13512         1.93335 
        1.17811         3.10604         1.90948 
        1.18424         3.07654         1.88609 
        1.19038         3.05545         1.86303 
        1.19652         3.02406         1.84036 
        1.20267          2.9997         1.81808 
        1.20881         2.96678         1.79617 
        1.21495         2.93954         1.77465 
        1.22108         2.90981          1.7535 
         1.2272         2.87717         1.73274 
        1.23334         2.86623         1.71227 
        1.23949         2.82669         1.69209 
        1.24562           2.809         1.67229 
        1.25174         2.79188         1.65284 
        1.25789         2.74631         1.63364 
        1.26402          2.7295         1.61478 
        1.27014         2.70606         1.59626 
        1.27628         2.67743         1.57799 
        1.28244         2.65965         1.55996 
        1.28858          2.6389         1.54224 
        1.29471         2.60439         1.52484 
        1.30084         2.58267         1.50772 
        1.30697         2.57002         1.49084 
        1.31312         2.54384          1.4742 
        1.31925         2.52032         1.45786 
        1.32537         2.50396         1.44179 
        1.33151          2.4754          1.4259 
        1.33765         2.45557         1.41027 
        1.34378           2.446          1.3949 
        1.34992         2.42188         1.37975 
        1.35606         2.40189         1.36479 
         1.3622         2.38033         1.35009 
        1.36833         2.35626         1.33564 
        1.37445         2.33204          1.3214 
        1.38059         2.31313         1.30734 
        1.38675         2.29538         1.29344 
        1.39288         2.28777          1.2798 
        1.39901         2.25835         1.26637 
        1.40515         2.24671          1.2531 
         1.4113         2.22733         1.24003 
        1.41742         2.20926         1.22719 
        1.42355         2.19081         1.21451 
         1.4297         2.17302         1.20198 
        1.43585          2.1613         1.18962 
        1.44198         2.13998         1.17749 
        1.44809         2.12571         1.16555 
        1.45423         2.10863         1.15374 
        1.46036         2.09519         1.14211 
        1.46649         2.07428         1.13063 
        1.47263          2.0653         1.11931 
        1.47877         2.04991         1.10815 
        1.48491         2.02894         1.09712 
        1.49104         2.01509         1.08626 
        1.49718         2.00329         1.07555 
        1.50333          1.9824         1.06496 
        1.50947         1.96923         1.05454 
         1.5156         1.95695         1.04427 
        1.52172         1.94045         1.03414 
        1.52787         1.92915         1.02413 
          1.534         1.91632         1.01426 
        1.54013         1.90347         1.00453 
        1.54627         1.88293        0.994911 
        1.55241         1.87044        0.985418 
        1.55855         1.86024        0.976062 
        1.56467         1.84988        0.966855 
         1.5708         1.83192         0.95774 
        1.57695         1.81607         0.94873 
        1.58308          1.8019        0.939857 
        1.58922         1.79714        0.931092 
        1.59535         1.78128        0.922442 
         1.6015         1.76616         0.91389 
        1.60764         1.76066        0.905452 
        1.61376         1.74079        0.897143 
        1.61989         1.72862        0.888933 
        1.62604         1.71707        0.880807 
        1.63218         1.70863        0.872788 
        1.63831         1.69928        0.864888 
        1.64444         1.68389        0.857084 
        1.65059         1.67843        0.849357 
        1.65673         1.66005        0.841735 
        1.66285         1.65069        0.834228 
        1.66898         1.63933         0.82681 
        1.67512         1.62696        0.819468 
        1.68127         1.61821         0.81221 
         1.6874         1.60964        0.805055 
        1.69353         1.59623        0.797992 
        1.69967         1.58336        0.790996 
        1.70581          1.5793        0.784088 
        1.71193         1.55935        0.777289 
        1.71806          1.5569        0.770556 
        1.72421         1.54835         0.76389 
        1.73035         1.53391        0.757311 
        1.73649         1.52659         0.75081 
        1.74262         1.51689        0.744392 
        1.74876         1.50758        0.738044 
        1.75489         1.49584        0.731785 
        1.76101          1.4845        0.725599 
        1.76715         1.48079        0.719477 
        1.77329         1.46835        0.713419 
        1.77943         1.45896        0.707428 
        1.78557         1.45128        0.701515 
        1.79171         1.44224        0.695668 
        1.79785         1.43506        0.689888 
        1.80399          1.4245        0.684174 
        1.81012         1.41726        0.678533 
        1.81625         1.40347        0.672958 
        1.82239         1.39944        0.667438 
        1.82853         1.39117        0.661983 
        1.83466          1.3789        0.656594 
        1.84078         1.37103        0.651271 
        1.84692          1.3624        0.645998 
        1.85306         1.35657        0.640778 
         1.8592          1.3463        0.635624 
        1.86533           1.342        0.630529 
        1.87147         1.33422        0.625485 
        1.87761         1.32626        0.620493 
        1.88375         1.31604        0.615563 
        1.88988         1.30818        0.610691 
        1.89601         1.29948         0.60587 
        1.90215         1.29236        0.601097 
        1.90829         1.28784        0.596377 
        1.91442         1.27816        0.591709 
        1.92056         1.27288        0.587094 
         1.9267         1.26485        0.582525 
        1.93284         1.25736        0.578001 
        1.93897         1.24929        0.573534 
        1.94509         1.23947        0.569124 
        1.95123         1.23646         0.56475 
        1.95737         1.23129        0.560418 
        1.96349         1.22184        0.556143 
        1.96964         1.21788        0.551901 
        1.97578         1.20844        0.547701 
        1.98192         1.19822        0.543553 
        1.98805         1.19377        0.539448 
        1.99419          1.1862        0.535385 
        2.00033         1.17993        0.531362 
        2.00647         1.17691        0.527382 
         2.0126         1.17015        0.523449 
        2.01874         1.16117         0.51955 
        2.02488         1.15784        0.515688 
        2.03101         1.14891        0.511873 
        2.03714         1.14411          0.5081 
        2.04328          1.1383         0.50436 
        2.04941         1.13176        0.500662 
        2.05554         1.12382        0.497003 
        2.06167          1.1197        0.493376 
        2.06781         1.11274        0.489785 
        2.07396         1.10779        0.486225 
        2.08009         1.10289        0.482706 
        2.08622         1.09611        0.479226 
        2.09237          1.0917        0.475774 
        2.09851         1.08377        0.472356 
        2.10464         1.07776        0.468976 
        2.11077         1.07381        0.465634 
        2.11691         1.06674        0.462317 
        2.12305         1.06134        0.459033 
        2.12918          1.0555        0.455788 
        2.13531           1.052        0.452574 
        2.14145         1.04562        0.449384 
         2.1476         1.03686        0.446222 
        2.15372         1.03425        0.443105 
        2.15985         1.02839        0.440016 
        2.16599         1.02423        0.436947 
        2.17213         1.01936        0.433911 
        2.17827         1.01349        0.430904 
         2.1844          1.0085        0.427929 
        2.19054         1.00242         0.42498 
        2.19666        0.998322        0.422064 
         2.2028        0.991889        0.419173 
        2.20893        0.989342        0.416307 
        2.21508        0.983474        0.413466 
        2.22122        0.977902        0.410649 
        2.22736        0.972776        0.407865 
        2.23349         0.96793        0.405108 
        2.23962        0.965884        0.402375 
        2.24577        0.959877        0.399664 
         2.2519        0.955423        0.396982 
        2.25802        0.951074         0.39433 
        2.26417        0.944934        0.391694 
        2.27031        0.941258         0.38908 
        2.27644        0.936008        0.386497 
        2.28257        0.931783        0.383938 
        2.28872        0.927846        0.381397 
        2.29486        0.922513         0.37888 
        2.30099        0.918246        0.376391 
        2.30712        0.915098        0.373923 
        2.31326        0.910045        0.371474 
         2.3194        0.904924        0.369047 
        2.32553         0.90145        0.366647 
        2.33166        0.897107        0.364269 
         2.3378        0.894253        0.361908 
        2.34394        0.887287        0.359568 
        2.35007        0.883671        0.357252 
        2.35619        0.880754         0.35496 
        2.36233        0.876714        0.352682 
        2.36848        0.872774        0.350419 
        2.37462         0.86808        0.348181 
        2.38075        0.865027        0.345965 
        2.38689        0.861978        0.343766 
        2.39303        0.855938        0.341587 
        2.39916         0.85398        0.339429 
        2.40529        0.848428         0.33729 
        2.41143        0.843742        0.335168 
        2.41757        0.841043        0.333063 
         2.4237        0.836507        0.330981 
        2.42983          0.8329        0.328916 
        2.43598        0.830086        0.326863 
        2.44211        0.825292        0.324832 
        2.44823        0.821545        0.322822 
        2.45437        0.819082        0.320824 
        2.46052        0.815549        0.318841 
        2.46665        0.812029        0.316878 
        2.47279        0.808029        0.314933 
        2.47892        0.804957        0.313002 
        2.48507        0.801401        0.311086 
         2.4912        0.797698         0.30919 
