#  k  (h/Mpc)          P(k)  (Mpc/h)^3     P_linear(k) (Mpc/h)^3
     0.00783031         1979.97         1995.89 
       0.013688         2340.51         2369.52 
       0.019231         2287.97          2300.2 
      0.0249154         2028.81         2025.08 
      0.0312784         1652.34         1651.81 
      0.0375637          1326.1         1328.17 
      0.0433917          1112.1          1107.9 
      0.0492413         963.192         962.944 
      0.0555754         874.487         869.664 
      0.0619321         805.233         811.959 
       0.067871         764.483         765.191 
      0.0738098         709.402         709.452 
      0.0800417         638.287         636.384 
      0.0862327          555.22         554.871 
      0.0921407         480.441         479.211 
      0.0982031         417.361         413.271 
       0.104506         363.547         362.644 
       0.110769         332.025         330.382 
       0.116806         316.294         312.416 
       0.122832         303.036          301.66 
       0.129052         294.045         291.926 
       0.135211         282.115         278.936 
       0.141259         262.664         261.015 
       0.147318         239.391         238.846 
       0.153489         216.773         214.784 
       0.159709         195.967         192.356 
       0.165845          176.09         174.395 
       0.171974         166.196         161.471 
       0.178125         157.347         153.061 
       0.184229         150.708         147.833 
        0.19034         147.724          143.92 
       0.196428         143.129          139.69 
       0.202534         135.438         134.048 
       0.208729         129.789          126.64 
       0.214876         122.177         118.133 
       0.220989          112.26         109.468 
       0.227147         106.059         101.479 
        0.23329         99.7871         94.8834 
       0.239377         95.2863         89.9059 
       0.245482         91.0757         86.2819 
       0.251667         87.5132          83.537 
       0.257832         86.1788          81.162 
       0.263955         82.4371         78.6733 
       0.270079         79.3529         75.7579 
        0.27624          75.661         72.3622 
       0.282372         72.2904         68.6897 
        0.28843         69.8362         65.0495 
       0.294538         66.1851         61.6447 
       0.300721         62.7609         58.6561 
        0.30691         61.0255         56.1932 
       0.313033         58.6237         54.2084 
       0.319153         57.5206         52.5385 
       0.325316         55.1633         50.9929 
        0.33145         53.3698          49.448 
       0.337538         51.7559          47.815 
       0.343633         50.2259         46.0724 
       0.349808         48.2637         44.2398 
       0.355968         46.4774         42.4297 
       0.362074          45.282         40.7369 
       0.368217         43.6651           39.19 
       0.374374         42.5216         37.8242 
       0.380519         40.7933         36.6216 
       0.386598         39.5906         35.5525 
       0.392688         38.4037         34.5496 
        0.39888         37.6552         33.5493 
       0.405048         36.7159         32.5478 
       0.411186          35.635         31.5341 
       0.417313         34.5452         30.5171 
       0.423458         33.4158         29.5173 
       0.429607         32.7534         28.5587 
       0.435692         32.0756         27.6687 
       0.441815          30.833         26.8431 
       0.447964         29.8624         26.0775 
       0.454126          29.333         25.3619 
       0.460267         28.9429         24.6864 
       0.466387         28.0959         24.0356 
        0.47254         27.6154         23.3906 
       0.478662         26.7354         22.7564 
       0.484765         26.1189         22.1344 
       0.490885         25.3178         21.5247 
       0.497035         24.8059         20.9319 
       0.503198         24.2956         20.3652 
       0.509342         23.5715         19.8304 
       0.515458         23.2196          19.326 
       0.521598         22.6734         18.8437 
       0.527764         22.3065           18.38 
       0.533884         21.7203          17.936 
           0.54         21.3171         17.5046 
       0.546137         20.6697         17.0809 
       0.552299         20.2802         16.6646 
       0.558452          19.814         16.2603 
       0.564573         19.5638         15.8709 
       0.570708         19.0875         15.4944 
       0.576825          18.772         15.1329 
       0.582926         18.3916          14.786 
       0.589034          18.015         14.4519 
       0.595184         17.7894         14.1279 
       0.601379         17.3037         13.8125 
       0.607522         16.9781         13.5088 
       0.613639          16.669         13.2141 
       0.619772         16.3815         12.9259 
       0.625918         16.0465         12.6449 
       0.632068         15.8622         12.3719 
       0.638161         15.5345         12.1097 
         0.6443         15.2546         11.8538 
       0.650464         14.8766         11.6051 
       0.656582         14.7623         11.3657 
       0.662703         14.5443         11.1333 
       0.668861         14.1584         10.9062 
       0.675024         13.9293         10.6854 
       0.681124         13.8913         10.4729 
       0.687237         13.5788         10.2658 
       0.693381         13.2484         10.0633 
       0.699536         13.1719         9.86575 
       0.705665         12.9085         9.67426 
       0.711789           12.67           9.488 
       0.717957         12.4019         9.30538 
        0.72409         12.2837         9.12865 
       0.730186         12.2065         8.95771 
       0.736317         11.9204         8.79037 
       0.742472         11.7762         8.62684 
       0.748622         11.5896         8.46773 
        0.75476         11.2876         8.31306 
       0.760888         11.2285         8.16253 
       0.767043         11.0048         8.01516 
       0.773185         10.8688         7.87173 
       0.779291         10.7814         7.73262 
       0.785407         10.5817         7.59668 
       0.791564         10.4643         7.46315 
       0.797719          10.245         7.33292 
       0.803834         10.1846         7.20665 
       0.809972          9.9801         7.08293 
       0.816124         9.86725         6.96189 
       0.822261         9.74111         6.84404 
       0.828378         9.61725          6.7293 
       0.834502         9.50107         6.61713 
       0.840667         9.39331         6.50682 
       0.846816         9.18563         6.39937 
       0.852925         9.13405         6.29505 
       0.859047          9.0028         6.19285 
       0.865192         8.87651         6.09261 
       0.871341         8.75962         5.99454 
       0.877463         8.64177         5.89909 
       0.883569         8.57546         5.80597 
       0.889708         8.43211         5.71441 
       0.895864         8.32568         5.62461 
       0.902008         8.21978         5.53693 
       0.908149         8.10132          5.4512 
       0.914301         8.03321         5.36715 
       0.920448          7.9314         5.28496 
       0.926574         7.88045         5.20479 
       0.932687         7.74522         5.12647 
       0.938823         7.62848         5.04949 
       0.944975         7.58725         4.97393 
       0.951105         7.46577          4.9002 
       0.957225         7.42136          4.8281 
       0.963368         7.31012         4.75722 
       0.969511         7.22616         4.68778 
       0.975621         7.14668          4.6201 
       0.981748         7.04364          4.5536 
       0.987916         6.98283           4.488 
        0.99406         6.91732         4.42395 
        1.00019         6.85141         4.36129 
        1.00632         6.78927         4.29991 
        1.01246         6.69494         4.23963 
        1.01859         6.62272         4.18061 
        1.02471         6.52929          4.1228 
        1.03085         6.49581         4.06589 
        1.03698         6.42673         4.01019 
        1.04314         6.35132          3.9553 
        1.04929         6.26518         3.90158 
        1.05541         6.21387         3.84907 
        1.06154         6.15572         3.79741 
        1.06769         6.12287         3.74663 
        1.07382         6.01581         3.69695 
        1.07993          5.9573         3.64829 
        1.08607         5.92293         3.60031 
        1.09222         5.84409         3.55315 
        1.09836         5.82243          3.5069 
        1.10449         5.71533         3.46153 
        1.11063         5.69257         3.41692 
        1.11677           5.643         3.37311 
         1.1229          5.5861         3.33015 
        1.12903         5.54001         3.28791 
        1.13518         5.46274         3.24636 
        1.14131          5.4144         3.20557 
        1.14745         5.34517          3.1655 
        1.15359         5.29734         3.12611 
        1.15973         5.24873         3.08738 
        1.16584         5.20938         3.04949 
        1.17197          5.1546         3.01218 
        1.17811         5.10816         2.97538 
        1.18424         5.06439         2.93931 
        1.19038         5.02973         2.90374 
        1.19652         4.98575         2.86877 
        1.20267         4.94447         2.83439 
        1.20881         4.88773         2.80057 
        1.21495         4.84914         2.76737 
        1.22108         4.80312         2.73471 
         1.2272         4.75416         2.70266 
        1.23334         4.74166         2.67106 
        1.23949          4.6785         2.63988 
        1.24562         4.64831          2.6093 
        1.25174         4.61876         2.57925 
        1.25789         4.54636         2.54958 
        1.26402         4.52679         2.52044 
        1.27014         4.49362         2.49182 
        1.27628         4.44237         2.46357 
        1.28244         4.42328         2.43571 
        1.28858         4.38931         2.40831 
        1.29471         4.33076          2.3814 
        1.30084         4.29411         2.35493 
        1.30697         4.28134         2.32882 
        1.31312         4.23566         2.30307 
        1.31925         4.20104          2.2778 
        1.32537         4.17405         2.25293 
        1.33151         4.13237         2.22835 
        1.33765         4.10087         2.20415 
        1.34378         4.08918         2.18036 
        1.34992         4.04689          2.1569 
        1.35606         4.01637         2.13374 
         1.3622          3.9804         2.11097 
        1.36833         3.94765         2.08858 
        1.37445         3.91025         2.06653 
        1.38059         3.87923         2.04473 
        1.38675         3.85228          2.0232 
        1.39288         3.83465         2.00206 
        1.39901          3.7899         1.98124 
        1.40515         3.77238         1.96066 
         1.4113         3.74122         1.94039 
        1.41742         3.71609         1.92048 
        1.42355         3.68466         1.90082 
         1.4297         3.65864         1.88137 
        1.43585         3.64013         1.86221 
        1.44198          3.6052         1.84338 
        1.44809         3.58453         1.82486 
        1.45423         3.55559         1.80652 
        1.46036          3.5349         1.78846 
        1.46649         3.50407         1.77065 
        1.47263          3.4888         1.75307 
        1.47877         3.46227         1.73574 
        1.48491         3.43781         1.71861 
        1.49104         3.41087         1.70176 
        1.49718         3.39441         1.68511 
        1.50333         3.36197         1.66867 
        1.50947         3.33579         1.65248 
         1.5156         3.32036         1.63653 
        1.52172         3.29658         1.62079 
        1.52787         3.27669         1.60522 
          1.534         3.25442         1.58989 
        1.54013         3.23653         1.57477 
        1.54627         3.20653         1.55981 
        1.55241         3.18265         1.54506 
        1.55855         3.17094         1.53051 
        1.56467         3.15175         1.51619 
         1.5708         3.12497         1.50202 
        1.57695         3.09689         1.48801 
        1.58308         3.07648         1.47421 
        1.58922         3.06865         1.46057 
        1.59535         3.04631         1.44711 
         1.6015         3.01875         1.43381 
        1.60764         3.00907         1.42067 
        1.61376         2.98217         1.40774 
        1.61989         2.95887         1.39496 
        1.62604         2.94284         1.38231 
        1.63218         2.93093         1.36983 
        1.63831         2.91638         1.35753 
        1.64444         2.89042         1.34538 
        1.65059         2.88087         1.33334 
        1.65673         2.85482         1.32147 
        1.66285         2.83967         1.30978 
        1.66898         2.82155         1.29822 
        1.67512         2.80231         1.28678 
        1.68127         2.78465         1.27547 
         1.6874         2.77173         1.26432 
        1.69353         2.74903         1.25332 
        1.69967         2.73317         1.24241 
        1.70581         2.72115         1.23165 
        1.71193         2.69609         1.22105 
        1.71806         2.68671         1.21055 
        1.72421         2.67217         1.20016 
        1.73035         2.65386          1.1899 
        1.73649         2.63879         1.17977 
        1.74262         2.62468         1.16976 
        1.74876         2.61236         1.15986 
        1.75489         2.59163         1.15009 
        1.76101         2.57408         1.14045 
        1.76715         2.56968          1.1309 
        1.77329         2.54883         1.12144 
        1.77943          2.5321          1.1121 
        1.78557         2.52115         1.10287 
        1.79171         2.50612         1.09375 
        1.79785         2.49609         1.08473 
        1.80399         2.47634         1.07581 
        1.81012         2.46704           1.067 
        1.81625         2.44596          1.0583 
        1.82239         2.43997         1.04968 
        1.82853         2.42384         1.04117 
        1.83466         2.40273         1.03275 
        1.84078         2.39124         1.02444 
        1.84692         2.37911         1.01621 
        1.85306         2.36684         1.00805 
         1.8592         2.35509               1 
        1.86533         2.34497        0.992043 
        1.87147         2.33422        0.984163 
        1.87761         2.32176        0.976365 
        1.88375         2.30484        0.968661 
        1.88988         2.29325        0.961048 
        1.89601         2.27737        0.953513 
        1.90215         2.26555        0.946054 
        1.90829         2.26053        0.938678 
        1.91442         2.24362         0.93138 
        1.92056         2.23784        0.924167 
         1.9267         2.22203        0.917023 
        1.93284         2.21258        0.909951 
        1.93897         2.19673        0.902967 
        1.94509         2.18193        0.896071 
        1.95123         2.17706         0.88923 
        1.95737         2.16767        0.882456 
        1.96349         2.15261        0.875771 
        1.96964         2.14512        0.869135 
        1.97578         2.13149        0.862566 
        1.98192         2.11509        0.856077 
        1.98805         2.10959        0.849656 
        1.99419         2.09762        0.843299 
        2.00033         2.08259        0.837005 
        2.00647          2.0799        0.830778 
         2.0126         2.06953        0.824624 
        2.01874         2.05837        0.818523 
        2.02488         2.05007        0.812479 
        2.03101          2.0348        0.806508 
        2.03714         2.02809        0.800602 
        2.04328         2.01877        0.794749 
        2.04941         2.00762        0.788959 
        2.05554         1.99824        0.783232 
        2.06167         1.98805        0.777554 
        2.06781         1.97891        0.771931 
        2.07396         1.96863        0.766356 
        2.08009          1.9628        0.760846 
        2.08622         1.95299        0.755397 
        2.09237         1.94655        0.749991 
        2.09851         1.93039        0.744636 
        2.10464         1.92202        0.739343 
        2.11077         1.91798        0.734108 
        2.11691         1.90403        0.728913 
        2.12305         1.89406        0.723767 
        2.12918           1.886        0.718683 
        2.13531          1.8799        0.713648 
        2.14145         1.87023         0.70865 
         2.1476         1.85556        0.703694 
        2.15372         1.85064         0.69881 
        2.15985         1.84166        0.693968 
        2.16599         1.83575        0.689158 
        2.17213         1.82922        0.684398 
        2.17827         1.81587        0.679685 
         2.1844         1.80964        0.675021 
        2.19054         1.80035        0.670399 
        2.19666         1.79447        0.665827 
         2.2028         1.78131        0.661294 
        2.20893         1.77984          0.6568 
        2.21508         1.76822        0.652344 
        2.22122         1.75856        0.647928 
        2.22736         1.75142        0.643561 
        2.23349         1.74275        0.639237 
        2.23962         1.74064        0.634949 
        2.24577         1.72834        0.630698 
         2.2519         1.72249        0.626491 
        2.25802         1.71419         0.62233 
        2.26417         1.70699        0.618195 
        2.27031         1.69901        0.614093 
        2.27644         1.69079        0.610041 
        2.28257         1.68425        0.606026 
        2.28872         1.67797         0.60204 
        2.29486          1.6688         0.59809 
        2.30099         1.66071        0.594184 
        2.30712         1.65705        0.590311 
        2.31326         1.64967        0.586466 
         2.3194         1.64051        0.582658 
        2.32553         1.63552         0.57889 
        2.33166         1.62925        0.575157 
         2.3378         1.62344        0.571452 
        2.34394         1.61162        0.567778 
        2.35007         1.60503        0.564142 
        2.35619         1.60177        0.560543 
        2.36233         1.59418        0.556966 
        2.36848         1.58744        0.553414 
        2.37462         1.58091          0.5499 
        2.38075         1.57524        0.546419 
        2.38689         1.56917        0.542967 
        2.39303         1.56226        0.539544 
        2.39916          1.5565        0.536155 
        2.40529         1.54785        0.532796 
        2.41143          1.5422        0.529462 
        2.41757         1.53753        0.526156 
         2.4237          1.5283        0.522884 
        2.42983         1.52427        0.519641 
        2.43598         1.51985        0.516416 
        2.44211         1.51071        0.513225 
        2.44823         1.50644        0.510067 
        2.45437         1.49858        0.506927 
        2.46052         1.49319        0.503812 
        2.46665         1.48899        0.500727 
        2.47279         1.48087         0.49767 
        2.47892         1.47748        0.494637 
        2.48507         1.47005        0.491626 
         2.4912         1.46611        0.488645 
