# k  (h/Mpc)    Pcb(k)  (Mpc/h)^3    Pcb_linear(k)  (Mpc/h)^3
     0.00783031         50.3997         50.7449 
       0.013688         66.7411          67.162 
       0.019231         72.2492         72.4189 
      0.0249154         71.1758         71.3089 
      0.0312784         65.8944         65.9606 
      0.0375637         59.3111          59.337 
      0.0433917         53.6558         53.6005 
      0.0492413         48.9059         48.8867 
      0.0555754         45.0789         45.0151 
      0.0619321         42.0003         42.0605 
       0.067871         39.6762         39.6882 
      0.0738098          37.308         37.3192 
      0.0800417         34.6319         34.6244 
      0.0862327           31.73         31.7379 
      0.0921407         28.9369         28.9465 
      0.0982031         26.2839         26.2623 
       0.104506         23.8464         23.8597 
       0.110769         21.9513         21.9595 
       0.116806         20.5878         20.5682 
       0.122832         19.4966         19.5097 
       0.129052         18.6161         18.6151 
       0.135211         17.7874           17.78 
       0.141259         16.8939         16.9073 
       0.147318         15.9098         15.9423 
       0.153489          14.876          14.889 
       0.159709         13.8196         13.8224 
       0.165845         12.8114         12.8417 
       0.171974         11.9998         11.9918 
       0.178125         11.2996         11.2944 
       0.184229         10.7373          10.747 
        0.19034         10.3182          10.308 
       0.196428         9.93026         9.93078 
       0.202534         9.54047         9.56609 
       0.208729         9.16758         9.17604 
       0.214876         8.76397         8.75609 
       0.220989         8.29181         8.31346 
       0.227147         7.87495         7.86404 
        0.23329         7.45162         7.43799 
       0.239377         7.07373         7.05868 
       0.245482         6.74541         6.73147 
       0.251667         6.45542         6.45337 
       0.257832         6.23202         6.21904 
       0.263955         6.01691         6.01257 
       0.270079         5.81873         5.81585 
        0.27624         5.60772         5.61551 
       0.282372         5.40232         5.40745 
        0.28843         5.20371         5.19458 
       0.294538         4.98512         4.97838 
       0.300721          4.7656         4.76647 
        0.30691         4.57943         4.56903 
       0.313033         4.40101         4.39296 
       0.319153         4.26059         4.23705 
       0.325316         4.09856         4.09767 
        0.33145         3.97416         3.97165 
       0.337538         3.85942         3.85357 
       0.343633         3.74685         3.73758 
       0.349808          3.6261         3.61967 
       0.355968         3.50459         3.50075 
       0.362074         3.39209         3.38318 
       0.368217         3.27612         3.26742 
       0.374374         3.17525         3.15675 
       0.380519         3.06248         3.05351 
       0.386598         2.96602         2.95922 
       0.392688         2.87699         2.87239 
        0.39888         2.79858         2.79032 
       0.405048         2.72204         2.71313 
       0.411186         2.64614         2.63905 
       0.417313         2.57595         2.56639 
       0.423458         2.49873         2.49439 
       0.429607         2.43346         2.42323 
       0.435692         2.36563         2.35422 
       0.441815         2.29605         2.28708 
       0.447964         2.22666         2.22269 
       0.454126         2.17167         2.16152 
       0.460267         2.11879         2.10408 
       0.466387         2.06221         2.05001 
        0.47254         2.01168          1.9982 
       0.478662         1.96053         1.94862 
       0.484765         1.91367          1.9007 
       0.490885          1.8648         1.85374 
       0.497035         1.81433         1.80748 
       0.503198          1.7727          1.7622 
       0.509342          1.7256         1.71836 
       0.515458         1.68741         1.67618 
       0.521598         1.64633         1.63541 
       0.527764         1.61076         1.59618 
       0.533884         1.56746         1.55894 
           0.54         1.53318         1.52322 
       0.546137         1.49598         1.48863 
       0.552299         1.46453         1.45497 
       0.558452          1.4329         1.42233 
       0.564573         1.40142         1.39072 
       0.570708         1.37009         1.35982 
       0.576825         1.34032         1.32979 
       0.582926         1.30922         1.30069 
       0.589034         1.28518         1.27245 
       0.595184         1.25828         1.24498 
       0.601379         1.22905         1.21825 
       0.607522         1.20267         1.19261 
       0.613639          1.1756         1.16788 
       0.619772         1.15517         1.14383 
       0.625918         1.13126         1.12042 
       0.632068         1.10861         1.09763 
       0.638161         1.08616         1.07566 
         0.6443         1.06432         1.05407 
       0.650464         1.04367         1.03296 
       0.656582         1.02461         1.01256 
       0.662703         1.00399        0.992715 
       0.668861        0.981785        0.973323 
       0.675024        0.964682        0.954479 
       0.681124        0.950935        0.936365 
       0.687237        0.930152         0.91871 
       0.693381        0.910687        0.901436 
       0.699536        0.897291        0.884571 
       0.705665          0.8803        0.868197 
       0.711789        0.861924        0.852241 
       0.717957        0.847433        0.836571 
        0.72409        0.831497        0.821382 
       0.730186        0.818804        0.806668 
       0.736317        0.802859        0.792245 
       0.742472        0.789629        0.778131 
       0.748622        0.776131        0.764384 
        0.75476        0.761971        0.751005 
       0.760888        0.750623        0.737972 
       0.767043        0.733145        0.725198 
       0.773185         0.72267        0.712755 
       0.779291        0.712722        0.700675 
       0.785407        0.699503        0.688858 
       0.791564        0.688025        0.677242 
       0.797719        0.676516        0.665901 
       0.803834         0.66508        0.654895 
       0.809972        0.654634        0.644102 
       0.816124        0.643683        0.633532 
       0.822261        0.634279        0.623232 
       0.828378         0.62316        0.613195 
       0.834502        0.613588        0.603374 
       0.840667         0.60466        0.593707 
       0.846816        0.595079        0.584281 
       0.852925         0.58447        0.575121 
       0.859047        0.575946        0.566139 
       0.865192        0.567483        0.557321 
       0.871341        0.559574        0.548687 
       0.877463        0.549583        0.540275 
       0.883569        0.541827        0.532063 
       0.889708        0.534267        0.523981 
       0.895864        0.526382        0.516048 
       0.902008        0.517889        0.508297 
       0.908149        0.511097        0.500712 
       0.914301        0.504449         0.49327 
       0.920448         0.49676        0.485989 
       0.926574        0.490326        0.478881 
       0.932687        0.483142        0.471932 
       0.938823        0.474877        0.465098 
       0.944975        0.469097        0.458384 
       0.951105        0.461415        0.451829 
       0.957225        0.454705        0.445413 
       0.963368        0.449365        0.439102 
       0.969511        0.443859        0.432914 
       0.975621        0.436712         0.42688 
       0.981748        0.429872        0.420946 
       0.987916        0.424433        0.415088 
        0.99406        0.419358        0.409365 
        1.00019        0.413326        0.403762 
        1.00632        0.408987         0.39827 
        1.01246         0.40337        0.392872 
        1.01859         0.39755        0.387585 
        1.02471        0.391881        0.382401 
        1.03085        0.386455        0.377296 
        1.03698        0.382071        0.372295 
        1.04314        0.377184        0.367364 
        1.04929        0.373025        0.362535 
        1.05541        0.366973        0.357813 
        1.06154        0.362974        0.353164 
        1.06769         0.35869        0.348591 
        1.07382         0.35413        0.344114 
        1.07993        0.349924        0.339727 
        1.08607        0.344929        0.335399 
        1.09222        0.340696        0.331143 
        1.09836        0.336396        0.326966 
        1.10449         0.33222        0.322867 
        1.11063        0.328267        0.318834 
        1.11677        0.324781        0.314871 
         1.1229        0.319875        0.310983 
        1.12903        0.316635        0.307159 
        1.13518         0.31258        0.303395 
        1.14131        0.309186        0.299698 
        1.14745         0.30633        0.296064 
        1.15359        0.302112         0.29249 
        1.15973        0.299016        0.288975 
        1.16584         0.29502        0.285533 
        1.17197         0.29146        0.282143 
        1.17811        0.287963        0.278798 
        1.18424        0.284676        0.275518 
        1.19038        0.281047        0.272281 
        1.19652        0.278904        0.269097 
        1.20267        0.275425        0.265965 
        1.20881        0.271384        0.262884 
        1.21495        0.268797        0.259856 
        1.22108        0.266082        0.256877 
         1.2272        0.262704        0.253953 
        1.23334        0.259867        0.251067 
        1.23949        0.257553        0.248219 
        1.24562        0.254507        0.245424 
        1.25174        0.251641        0.242677 
        1.25789        0.248318        0.239963 
        1.26402         0.24644        0.237296 
        1.27014        0.243063        0.234676 
        1.27628        0.241009        0.232088 
        1.28244        0.238488        0.229535 
        1.28858        0.235534        0.227023 
        1.29471        0.233139        0.224555 
        1.30084        0.230602        0.222126 
        1.30697        0.228609        0.219729 
        1.31312        0.226236        0.217365 
        1.31925        0.223704        0.215043 
        1.32537        0.221426        0.212757 
        1.33151        0.219197        0.210497 
        1.33765        0.216699        0.208271 
        1.34378        0.214313        0.206082 
        1.34992        0.212853        0.203923 
        1.35606        0.210397         0.20179 
         1.3622        0.208249        0.199692 
        1.36833        0.206438        0.197629 
        1.37445        0.204533        0.195596 
        1.38059        0.202138        0.193586 
        1.38675        0.199952          0.1916 
        1.39288        0.197698        0.189649 
        1.39901        0.196483        0.187727 
        1.40515        0.194228        0.185827 
         1.4113        0.192651        0.183954 
        1.41742          0.1908        0.182114 
        1.42355        0.188383        0.180296 
         1.4297        0.187179        0.178498 
        1.43585        0.185003        0.176725 
        1.44198        0.183467        0.174983 
        1.44809        0.181526        0.173268 
        1.45423         0.17997        0.171569 
        1.46036        0.178211        0.169897 
        1.46649        0.176479        0.168246 
        1.47263        0.174452        0.166617 
        1.47877        0.173742        0.165009 
        1.48491        0.171359         0.16342 
        1.49104        0.170435        0.161856 
        1.49718        0.168624        0.160311 
        1.50333        0.167054        0.158784 
        1.50947        0.165721         0.15728 
         1.5156           0.164        0.155797 
        1.52172        0.162691        0.154334 
        1.52787        0.160845        0.152887 
          1.534        0.159819        0.151461 
        1.54013        0.158177        0.150054 
        1.54627        0.156934        0.148662 
        1.55241        0.155425        0.147288 
        1.55855        0.154111        0.145933 
        1.56467        0.152884          0.1446 
         1.5708         0.15136        0.143279 
        1.57695        0.150113        0.141973 
        1.58308        0.148375        0.140686 
        1.58922        0.147496        0.139414 
        1.59535        0.146042        0.138158 
         1.6015        0.144963        0.136917 
        1.60764        0.143479        0.135691 
        1.61376        0.142414        0.134484 
        1.61989        0.141097         0.13329 
        1.62604        0.140095        0.132108 
        1.63218        0.138843        0.130942 
        1.63831        0.137672        0.129792 
        1.64444        0.136462        0.128656 
        1.65059        0.135132        0.127531 
        1.65673        0.134208         0.12642 
        1.66285          0.1332        0.125326 
        1.66898        0.131759        0.124244 
        1.67512        0.130821        0.123173 
        1.68127        0.129837        0.122114 
         1.6874        0.128839         0.12107 
        1.69353        0.127803        0.120039 
        1.69967        0.126462        0.119017 
        1.70581        0.125851        0.118007 
        1.71193        0.124775        0.117014 
        1.71806        0.123661        0.116029 
        1.72421        0.122554        0.115054 
        1.73035        0.121742        0.114091 
        1.73649        0.120727         0.11314 
        1.74262        0.119769          0.1122 
        1.74876        0.118938        0.111271 
        1.75489        0.117853        0.110353 
        1.76101        0.116998        0.109447 
        1.76715         0.11619        0.108549 
        1.77329        0.115093        0.107661 
        1.77943        0.114194        0.106782 
        1.78557        0.113537        0.105914 
        1.79171        0.112644        0.105056 
        1.79785        0.111584        0.104207 
        1.80399        0.110707        0.103368 
        1.81012        0.110006        0.102539 
        1.81625        0.109163        0.101719 
        1.82239        0.108508        0.100908 
        1.82853        0.107482        0.100105 
        1.83466         0.10672       0.0993124 
        1.84078        0.105956        0.098529 
        1.84692        0.105193       0.0977529 
        1.85306        0.104437       0.0969841 
         1.8592        0.103665       0.0962249 
        1.86533        0.102963       0.0954742 
        1.87147        0.102166       0.0947308 
        1.87761        0.101243       0.0939949 
        1.88375        0.100383       0.0932678 
        1.88988       0.0998991       0.0925491 
        1.89601       0.0990753       0.0918377 
        1.90215       0.0982788       0.0911332 
        1.90829       0.0974743       0.0904364 
        1.91442       0.0969603       0.0897469 
        1.92056       0.0962921       0.0890653 
         1.9267       0.0955395         0.08839 
        1.93284       0.0947428       0.0877214 
        1.93897       0.0941267       0.0870609 
        1.94509       0.0934215       0.0864087 
        1.95123       0.0928637       0.0857616 
        1.95737       0.0922775       0.0851206 
        1.96349       0.0916797       0.0844879 
        1.96964       0.0908949       0.0838597 
        1.97578       0.0903477       0.0832377 
        1.98192       0.0897034       0.0826233 
        1.98805       0.0891567        0.082015 
        1.99419        0.088528       0.0814129 
        2.00033       0.0877826       0.0808165 
        2.00647       0.0872025       0.0802263 
         2.0126       0.0868554       0.0796429 
        2.01874       0.0860678       0.0790646 
        2.02488       0.0854779       0.0784914 
        2.03101        0.084893        0.077925 
        2.03714       0.0846373       0.0773648 
        2.04328       0.0836961       0.0768095 
        2.04941       0.0832498         0.07626 
        2.05554       0.0828111       0.0757164 
        2.06167       0.0821713       0.0751773 
        2.06781       0.0815108       0.0746435 
        2.07396       0.0809804        0.074114 
        2.08009       0.0805434       0.0735907 
        2.08622       0.0800528        0.073073 
        2.09237       0.0794407       0.0725593 
        2.09851       0.0789764       0.0720504 
        2.10464       0.0784162       0.0715473 
        2.11077       0.0778843       0.0710496 
        2.11691        0.077568       0.0705555 
        2.12305       0.0767588       0.0700662 
        2.12918       0.0763641       0.0695826 
        2.13531       0.0759026       0.0691036 
        2.14145       0.0754114        0.068628 
         2.1476       0.0749925       0.0681564 
        2.15372       0.0744845       0.0676915 
        2.15985       0.0739939       0.0672306 
        2.16599       0.0734344       0.0667726 
        2.17213       0.0731621       0.0663194 
        2.17827       0.0726333       0.0658706 
         2.1844        0.072176       0.0654263 
        2.19054       0.0717699       0.0649859 
        2.19666       0.0712687       0.0645503 
         2.2028       0.0706933       0.0641182 
        2.20893       0.0704044       0.0636899 
        2.21508       0.0699001       0.0632651 
        2.22122       0.0694272        0.062844 
        2.22736       0.0690945       0.0624276 
        2.23349       0.0686323       0.0620151 
        2.23962       0.0683059       0.0616062 
        2.24577       0.0678613       0.0612005 
         2.2519       0.0674025       0.0607991 
        2.25802       0.0670601       0.0604019 
        2.26417       0.0666923       0.0600072 
        2.27031       0.0662497       0.0596157 
        2.27644        0.065917       0.0592288 
        2.28257       0.0654916       0.0588453 
        2.28872       0.0650445       0.0584646 
        2.29486       0.0647335       0.0580873 
        2.30099       0.0642594       0.0577141 
        2.30712       0.0640015        0.057344 
        2.31326        0.063452       0.0569765 
         2.3194       0.0631812       0.0566125 
        2.32553       0.0628555       0.0562523 
        2.33166       0.0624149       0.0558954 
         2.3378       0.0620605       0.0555411 
        2.34394       0.0617234       0.0551897 
        2.35007       0.0614135        0.054842 
        2.35619       0.0612107       0.0544976 
        2.36233       0.0606535       0.0541554 
        2.36848       0.0603681       0.0538154 
        2.37462       0.0600746       0.0534791 
        2.38075       0.0596959        0.053146 
        2.38689       0.0593738       0.0528154 
        2.39303       0.0590984       0.0524877 
        2.39916       0.0585801       0.0521632 
        2.40529       0.0582657       0.0518414 
        2.41143       0.0579321       0.0515221 
        2.41757       0.0576769       0.0512054 
         2.4237       0.0573432       0.0508919 
        2.42983       0.0570421        0.050581 
        2.43598        0.056683        0.050272 
        2.44211       0.0563283        0.049966 
        2.44823       0.0561127       0.0496633 
        2.45437       0.0557638       0.0493623 
        2.46052       0.0554736       0.0490635 
        2.46665       0.0551398       0.0487677 
        2.47279       0.0549481       0.0484745 
        2.47892       0.0546648       0.0481835 
        2.48507       0.0542944       0.0478946 
         2.4912       0.0540324       0.0476086 
