# k  (h/Mpc)    Pcb(k)  (Mpc/h)^3    Pcb_linear(k)  (Mpc/h)^3
     0.00783031         689.638         695.088 
       0.013688         852.519         860.972 
       0.019231         861.604         864.993 
      0.0249154         789.609         789.381 
      0.0312784         673.788         673.703 
      0.0375637         568.769         569.272 
      0.0433917         497.821         496.573 
      0.0492413         446.972         447.025 
      0.0555754         412.794          411.69 
      0.0619321         382.018         384.268 
       0.067871         357.294         357.725 
      0.0738098         326.601         326.714 
      0.0800417         291.007         290.371 
      0.0862327         254.709         254.504 
      0.0921407          224.82         224.583 
      0.0982031         201.678         200.738 
       0.104506         183.404         183.597 
       0.110769         172.483         172.583 
       0.116806         165.674         165.033 
       0.122832         157.761         157.931 
       0.129052         149.487           149.2 
       0.135211         139.317         138.606 
       0.141259         127.346         127.007 
       0.147318         115.499         115.518 
       0.153489          105.69         105.245 
       0.159709         97.8797         97.1213 
       0.165845         91.3353         91.3558 
       0.171974         88.1345         87.3104 
       0.178125         84.8208         84.1494 
       0.184229         81.3533         81.0891 
        0.19034         78.2685         77.5475 
       0.196428         74.0476         73.3858 
       0.202534         68.9339         68.7864 
       0.208729          64.837         64.1133 
       0.214876         60.9473         59.9011 
       0.220989         56.9035         56.4029 
       0.227147         54.7036         53.6309 
        0.23329         52.5712         51.4808 
       0.239377         50.8452         49.7116 
       0.245482         49.0272         48.0337 
       0.251667         46.9724         46.2324 
       0.257832         45.3916         44.2574 
       0.263955         43.0105         42.1583 
       0.270079         40.9236         40.0405 
        0.27624          38.777          38.032 
       0.282372         37.0747         36.2539 
        0.28843          35.918         34.7542 
       0.294538         34.5363         33.4726 
       0.300721          33.183         32.3426 
        0.30691         32.3759         31.2904 
       0.313033          31.234         30.2568 
       0.319153         30.4496         29.1908 
       0.325316          28.984         28.0854 
        0.33145         27.8674         26.9808 
       0.337538         26.8881         25.9227 
       0.343633         26.0103          24.935 
       0.349808         25.0321         24.0304 
       0.355968         24.1894         23.2205 
       0.362074         23.6114         22.4936 
       0.368217         22.8702         21.8118 
       0.374374         22.3518         21.1519 
       0.380519         21.5064         20.5014 
       0.386598         20.8026          19.858 
       0.392688         20.1331         19.2194 
        0.39888         19.6078          18.587 
       0.405048          19.042         17.9847 
       0.411186          18.453         17.4226 
       0.417313         17.9252         16.9004 
       0.423458         17.3452         16.4113 
       0.429607         17.0119         15.9508 
       0.435692         16.6321          15.515 
       0.441815         16.0692         15.0885 
       0.447964         15.5726         14.6692 
       0.454126         15.2615         14.2583 
       0.460267         14.9756         13.8587 
       0.466387         14.5243         13.4737 
        0.47254          14.213         13.1034 
       0.478662         13.8039         12.7531 
       0.484765         13.4764         12.4206 
       0.490885         13.0927         12.1026 
       0.497035         12.7599         11.7964 
       0.503198         12.5182         11.5006 
       0.509342          12.158         11.2139 
       0.515458          11.945         10.9359 
       0.521598          11.672         10.6646 
       0.527764         11.4624         10.4007 
       0.533884         11.1079         10.1475 
           0.54         10.9022         9.90361 
       0.546137         10.5927         9.66798 
       0.552299         10.3912         9.44052 
       0.558452         10.1615         9.22194 
       0.564573         9.98307          9.0118 
       0.570708         9.76428         8.80751 
       0.576825         9.56776         8.60954 
       0.582926         9.35498         8.41762 
       0.589034         9.18464         8.23108 
       0.595184         9.04129         8.04898 
       0.601379         8.80426         7.87134 
       0.607522         8.62799         7.70072 
       0.613639         8.43418         7.53611 
       0.619772         8.30608         7.37616 
       0.625918         8.13494         7.22077 
       0.632068         8.00751         7.06998 
       0.638161         7.84566         6.92494 
         0.6443         7.68997         6.78296 
       0.650464         7.52231         6.64439 
       0.656582          7.4412          6.5106 
       0.662703         7.31107         6.38039 
       0.668861         7.11972         6.25299 
       0.675024         7.00181         6.12902 
       0.681124         6.97171         6.00977 
       0.687237         6.80413         5.89358 
       0.693381         6.63212         5.78004 
       0.699536         6.57762          5.6694 
       0.705665         6.45607          5.5622 
       0.711789         6.31493          5.4579 
       0.717957         6.19813         5.35559 
        0.72409         6.11837         5.25646 
       0.730186         6.05939         5.16044 
       0.736317         5.92068          5.0663 
       0.742472         5.84637         4.97418 
       0.748622         5.75654         4.88447 
        0.75476         5.61715         4.79719 
       0.760888         5.56506         4.71221 
       0.767043         5.42994         4.62899 
       0.773185         5.36586         4.54799 
       0.779291         5.32917         4.46943 
       0.785407         5.22085         4.39263 
       0.791564         5.14476         4.31718 
       0.797719         5.05551         4.24357 
       0.803834         4.99203         4.17216 
       0.809972         4.90619         4.10216 
       0.816124         4.83975         4.03363 
       0.822261         4.77323         3.96687 
       0.828378         4.69798         3.90184 
       0.834502         4.63376         3.83823 
       0.840667          4.5829         3.77565 
       0.846816         4.49614         3.71465 
       0.852925         4.43558         3.65541 
       0.859047         4.37396         3.59735 
       0.865192         4.31404         3.54037 
       0.871341         4.25548         3.48461 
       0.877463         4.18856         3.43031 
       0.883569         4.14058         3.37733 
       0.889708         4.08737         3.32521 
       0.895864         4.03247         3.27406 
       0.902008         3.96646         3.22412 
       0.908149         3.91846         3.17526 
       0.914301         3.87505         3.12734 
       0.920448         3.82763         3.08047 
       0.926574         3.79594         3.03474 
       0.932687         3.73298         2.99004 
       0.938823         3.66781         2.94609 
       0.944975         3.64035         2.90294 
       0.951105         3.57006         2.86081 
       0.957225         3.54297         2.81961 
       0.963368         3.50464         2.77908 
       0.969511          3.4636         2.73935 
       0.975621         3.41185         2.70063 
       0.981748         3.35112         2.66256 
       0.987916         3.32077         2.62499 
        0.99406         3.29644          2.5883 
        1.00019         3.25425         2.55239 
        1.00632         3.22293          2.5172 
        1.01246         3.17553         2.48262 
        1.01859         3.13995         2.44876 
        1.02471         3.08947         2.41558 
        1.03085         3.06299         2.38291 
        1.03698          3.0315         2.35091 
        1.04314         2.99874         2.31938 
        1.04929         2.96392          2.2885 
        1.05541         2.92107         2.25831 
        1.06154         2.89989          2.2286 
        1.06769         2.87652         2.19938 
        1.07382         2.83119         2.17079 
        1.07993         2.79553         2.14278 
        1.08607         2.77566         2.11515 
        1.09222         2.73573         2.08799 
        1.09836         2.72432         2.06134 
        1.10449         2.67064         2.03519 
        1.11063         2.64903         2.00947 
        1.11677         2.62668         1.98421 
         1.1229         2.59034         1.95944 
        1.12903         2.57481         1.93506 
        1.13518         2.53691         1.91109 
        1.14131         2.51416         1.88754 
        1.14745         2.48646         1.86441 
        1.15359         2.46188         1.84166 
        1.15973         2.43465         1.81929 
        1.16584         2.41057         1.79739 
        1.17197         2.38242         1.77582 
        1.17811         2.35873         1.75455 
        1.18424         2.33484         1.73369 
        1.19038         2.31128         1.71311 
        1.19652         2.29377         1.69287 
        1.20267         2.27526         1.67297 
        1.20881         2.24655         1.65339 
        1.21495          2.2265         1.63416 
        1.22108         2.20723         1.61524 
         1.2272         2.17533         1.59667 
        1.23334         2.16473         1.57835 
        1.23949         2.14176         1.56027 
        1.24562          2.1225         1.54253 
        1.25174         2.10548          1.5251 
        1.25789         2.07758         1.50788 
        1.26402         2.05737         1.49097 
        1.27014         2.03626         1.47435 
        1.27628         2.02137         1.45795 
        1.28244         2.00403         1.44176 
        1.28858         1.98401         1.42584 
        1.29471         1.96065          1.4102 
        1.30084         1.94693         1.39481 
        1.30697         1.93402         1.37963 
        1.31312         1.91466         1.36465 
        1.31925         1.89715         1.34995 
        1.32537         1.88274         1.33548 
        1.33151         1.86174         1.32117 
        1.33765         1.84734         1.30708 
        1.34378         1.83101         1.29323 
        1.34992         1.81775         1.27957 
        1.35606         1.79998         1.26608 
         1.3622         1.78619         1.25281 
        1.36833         1.76714         1.23976 
        1.37445         1.75137         1.22691 
        1.38059         1.73751          1.2142 
        1.38675         1.72293         1.20164 
        1.39288         1.71163         1.18932 
        1.39901         1.69364         1.17717 
        1.40515         1.67883         1.16516 
         1.4113          1.6708         1.15333 
        1.41742         1.65014         1.14171 
        1.42355         1.63519         1.13023 
         1.4297         1.62721         1.11887 
        1.43585         1.61157         1.10768 
        1.44198         1.59919         1.09668 
        1.44809         1.58685         1.08586 
        1.45423         1.57456         1.07514 
        1.46036         1.56218         1.06459 
        1.46649         1.54344         1.05417 
        1.47263         1.53735         1.04389 
        1.47877         1.52981         1.03375 
        1.48491         1.50832         1.02373 
        1.49104          1.5011         1.01386 
        1.49718         1.48682         1.00412 
        1.50333         1.47614        0.994492 
        1.50947         1.46697         0.98501 
         1.5156         1.45403        0.975667 
        1.52172          1.4444        0.966445 
        1.52787         1.43191        0.957326 
          1.534         1.42417        0.948335 
        1.54013         1.41064        0.939471 
        1.54627         1.40013        0.930704 
        1.55241         1.38722        0.922049 
        1.55855         1.37859        0.913517 
        1.56467         1.36854        0.905117 
         1.5708         1.35846          0.8968 
        1.57695         1.34622        0.888576 
        1.58308         1.33457        0.880475 
        1.58922         1.32962         0.87247 
        1.59535         1.31524        0.864568 
         1.6015         1.30576        0.856753 
        1.60764         1.29842         0.84904 
        1.61376         1.28704        0.841444 
        1.61989         1.27946        0.833935 
        1.62604         1.26636        0.826501 
        1.63218         1.26288        0.819164 
        1.63831         1.25186        0.811933 
        1.64444         1.24269        0.804788 
        1.65059         1.23565        0.797712 
        1.65673         1.22351        0.790729 
        1.66285         1.21612         0.78385 
        1.66898         1.20978        0.777052 
        1.67512         1.19667        0.770321 
        1.68127         1.18872        0.763665 
         1.6874         1.18507        0.757102 
        1.69353         1.17335        0.750621 
        1.69967         1.16695        0.744201 
        1.70581         1.16166         0.73786 
        1.71193          1.1488        0.731616 
        1.71806         1.14339        0.725432 
        1.72421         1.13648        0.719308 
        1.73035         1.12382        0.713262 
        1.73649          1.1232        0.707287 
        1.74262         1.11161        0.701385 
        1.74876         1.10479        0.695548 
        1.75489         1.09853        0.689789 
        1.76101         1.08821        0.684097 
        1.76715         1.08294        0.678463 
        1.77329         1.07659        0.672885 
        1.77943          1.0693        0.667368 
        1.78557         1.06455        0.661922 
        1.79171         1.05734        0.656536 
        1.79785         1.04959        0.651209 
        1.80399         1.04078        0.645942 
        1.81012         1.03503        0.640742 
        1.81625         1.02765        0.635601 
        1.82239         1.02244        0.630509 
        1.82853         1.01539        0.625476 
        1.83466         1.00808        0.620503 
        1.84078         1.00144         0.61559 
        1.84692        0.996332        0.610722 
        1.85306        0.992233        0.605902 
         1.8592        0.982885        0.601141 
        1.86533        0.978535        0.596435 
        1.87147        0.969268        0.591773 
        1.87761        0.965634         0.58716 
        1.88375        0.959317        0.582602 
        1.88988        0.952325        0.578097 
        1.89601        0.946663        0.573638 
        1.90215        0.942087        0.569223 
        1.90829        0.935998        0.564856 
        1.91442        0.929974        0.560535 
        1.92056        0.926406        0.556264 
         1.9267        0.919696        0.552033 
        1.93284        0.912785        0.547844 
        1.93897         0.90786        0.543707 
        1.94509          0.9041        0.539621 
        1.95123         0.89595        0.535567 
        1.95737        0.892105        0.531553 
        1.96349        0.886361         0.52759 
        1.96964        0.883195        0.523656 
        1.97578        0.874706        0.519761 
        1.98192        0.870375        0.515913 
        1.98805        0.865877        0.512105 
        1.99419        0.861543        0.508334 
        2.00033        0.856841          0.5046 
        2.00647        0.851976        0.500905 
         2.0126        0.848077        0.497253 
        2.01874        0.842456        0.493632 
        2.02488        0.835612        0.490045 
        2.03101        0.831599          0.4865 
        2.03714        0.828566        0.482993 
        2.04328        0.822326        0.479517 
        2.04941        0.817708        0.476079 
        2.05554         0.81334        0.472677 
        2.06167        0.809129        0.469303 
        2.06781        0.802627        0.465963 
        2.07396        0.800906         0.46265 
        2.08009        0.795352        0.459376 
        2.08622        0.790928        0.456137 
        2.09237        0.787098        0.452923 
        2.09851        0.781702         0.44974 
        2.10464        0.778672        0.446592 
        2.11077        0.772168        0.443479 
        2.11691        0.768888        0.440389 
        2.12305        0.766874        0.437328 
        2.12918        0.760462        0.434304 
        2.13531        0.756648        0.431308 
        2.14145        0.752333        0.428334 
         2.1476        0.749473        0.425385 
        2.15372        0.745033        0.422478 
        2.15985        0.740527        0.419595 
        2.16599        0.737635        0.416732 
        2.17213        0.733147        0.413898 
        2.17827        0.728104        0.411092 
         2.1844        0.725685        0.408314 
        2.19054        0.721785        0.405561 
        2.19666        0.718433        0.402838 
         2.2028        0.713964        0.400137 
        2.20893        0.710938         0.39746 
        2.21508        0.706681        0.394805 
        2.22122        0.704032        0.392173 
        2.22736        0.697699         0.38957 
        2.23349        0.694526        0.386992 
        2.23962        0.692453        0.384436 
        2.24577        0.688673        0.381901 
         2.2519        0.684857        0.379393 
        2.25802        0.682774        0.376911 
        2.26417        0.677358        0.374445 
        2.27031        0.674813        0.371999 
        2.27644        0.672752        0.369581 
        2.28257        0.667099        0.367186 
        2.28872        0.665891        0.364807 
        2.29486        0.661011         0.36245 
        2.30099        0.658334        0.360118 
        2.30712        0.655064        0.357807 
        2.31326        0.651913        0.355511 
         2.3194          0.6488        0.353238 
        2.32553        0.644805        0.350988 
        2.33166        0.643244        0.348758 
         2.3378        0.639269        0.346545 
        2.34394        0.636284        0.344351 
        2.35007        0.631624        0.342179 
        2.35619        0.628462        0.340029 
        2.36233        0.626038        0.337892 
        2.36848        0.624464        0.335769 
        2.37462        0.621089        0.333669 
        2.38075        0.617322        0.331588 
        2.38689        0.615296        0.329524 
        2.39303        0.611899        0.327479 
        2.39916        0.609007        0.325452 
        2.40529        0.607463        0.323443 
        2.41143        0.602386         0.32145 
        2.41757         0.60061        0.319472 
         2.4237        0.597561        0.317515 
        2.42983        0.594377        0.315575 
        2.43598        0.592115        0.313646 
        2.44211        0.588562        0.311736 
        2.44823        0.586747        0.309847 
        2.45437        0.584599        0.307968 
        2.46052        0.582061        0.306103 
        2.46665        0.578571        0.304257 
        2.47279        0.576046        0.302426 
        2.47892        0.573476         0.30061 
        2.48507        0.571798        0.298807 
         2.4912        0.568053        0.297023 
