# k  (h/Mpc)    Pcb(k)  (Mpc/h)^3    Pcb_linear(k)  (Mpc/h)^3
     0.00783031         15561.3         15653.5 
       0.013688         18293.2         18770.7 
       0.019231         18218.8         18493.3 
      0.0249154         16669.7         16618.7 
      0.0312784         13813.9         13932.3 
      0.0375637         11338.1         11512.2 
      0.0433917         9765.99         9796.47 
      0.0492413         8519.79         8606.19 
      0.0555754         7765.27         7775.73 
      0.0619321         6975.78         7208.94 
       0.067871         6623.28         6742.54 
      0.0738098         6167.85         6226.91 
      0.0800417         5570.12         5599.57 
      0.0862327         4893.49          4929.2 
      0.0921407         4340.19         4316.44 
      0.0982031         3880.91         3779.83 
       0.104506         3413.41         3357.19 
       0.110769         3155.04          3071.9 
       0.116806         3020.33         2894.55 
       0.122832         2855.87         2771.03 
       0.129052          2717.7         2655.23 
       0.135211         2634.64         2519.48 
       0.141259         2429.23          2353.5 
       0.147318         2230.92         2162.07 
       0.153489         2068.59         1961.31 
       0.159709         1953.69         1775.95 
       0.165845         1771.43         1625.69 
       0.171974          1717.1         1513.37 
       0.178125         1651.35         1434.31 
       0.184229         1530.49         1378.57 
        0.19034         1509.06         1332.36 
       0.196428         1464.79         1284.37 
       0.202534         1370.12         1227.25 
       0.208729         1341.55         1158.93 
       0.214876         1273.43          1084.8 
       0.220989         1197.79         1011.33 
       0.227147         1160.15         943.975 
        0.23329         1109.57         887.519 
       0.239377         1098.69         843.214 
       0.245482         1042.12         808.694 
       0.251667         1004.88          780.35 
       0.257832         989.028         754.737 
       0.263955          940.74         728.572 
       0.270079         910.508         699.883 
        0.27624         872.487         668.438 
       0.282372         857.407         635.808 
        0.28843          844.05         604.213 
       0.294538         801.385         574.755 
       0.300721         782.542         548.584 
        0.30691         764.683          526.29 
       0.313033         731.702         507.535 
       0.319153         722.521         491.011 
       0.325316         711.827         475.422 
        0.33145         694.787         459.969 
       0.337538         669.961         444.198 
       0.343633          653.09         427.921 
       0.349808         638.017         411.331 
       0.355968         626.095         395.192 
       0.362074         603.352         380.164 
       0.368217         601.163         366.319 
       0.374374         591.373         353.821 
       0.380519         567.998         342.561 
       0.386598         563.161         332.284 
       0.392688         548.873         322.532 
        0.39888         535.734         312.848 
       0.405048         524.473         303.264 
       0.411186         523.622         293.781 
       0.417313         517.953         284.422 
       0.423458         502.847          275.31 
       0.429607         488.355         266.622 
       0.435692          482.47         258.522 
       0.441815         473.227         250.904 
       0.447964         465.048         243.764 
       0.454126         459.703         237.008 
       0.460267         452.202         230.568 
       0.466387         443.388         224.362 
        0.47254         437.445         218.268 
       0.478662         429.062         212.318 
       0.484765         423.605         206.528 
       0.490885         419.449           200.9 
       0.497035         410.264         195.453 
       0.503198         410.054         190.228 
       0.509342         401.185         185.265 
       0.515458         393.434         180.563 
       0.521598         389.565         176.046 
       0.527764         382.446         171.678 
       0.533884         379.071         167.484 
           0.54         374.977         163.418 
       0.546137         367.565         159.449 
       0.552299         366.269         155.569 
       0.558452         360.116         151.807 
       0.564573          357.79         148.185 
       0.570708         352.386         144.686 
       0.576825         345.916         141.326 
       0.582926         344.469         138.096 
       0.589034         338.311         134.973 
       0.595184         336.037         131.932 
       0.601379         330.723         128.966 
       0.607522         324.074         126.115 
       0.613639         323.317         123.356 
       0.619772         321.998         120.667 
       0.625918         315.693         118.045 
       0.632068          313.25         115.498 
       0.638161         310.985          113.05 
         0.6443         306.389         110.659 
       0.650464         303.137         108.336 
       0.656582         300.157         106.099 
       0.662703          298.51         103.928 
       0.668861         292.818         101.806 
       0.675024         291.776         99.7398 
       0.681124         287.061         97.7506 
       0.687237         285.862         95.8107 
       0.693381         281.513         93.9141 
       0.699536         280.653         92.0657 
       0.705665         277.206         90.2759 
       0.711789          274.83         88.5362 
       0.717957         272.196         86.8313 
        0.72409         268.471         85.1815 
       0.730186         269.972         83.5851 
       0.736317         265.225         82.0213 
       0.742472         262.904         80.4919 
       0.748622         260.597         79.0031 
        0.75476         259.388         77.5554 
       0.760888         256.473         76.1464 
       0.767043         253.466         74.7671 
       0.773185         251.648         73.4252 
       0.779291         248.986         72.1242 
       0.785407         247.687         70.8532 
       0.791564         245.697         69.6051 
       0.797719         241.629          68.388 
       0.803834         243.074          67.208 
       0.809972         239.492         66.0519 
       0.816124         236.418         64.9206 
       0.822261         234.788          63.819 
       0.828378         233.915         62.7464 
       0.834502          230.76         61.6976 
       0.840667         230.957         60.6662 
       0.846816         226.537         59.6614 
       0.852925         226.774         58.6858 
       0.859047         224.492         57.7301 
       0.865192         223.795         56.7927 
       0.871341         221.048         55.8757 
       0.877463         219.364         54.9831 
       0.883569         218.467         54.1125 
       0.889708         216.503         53.2564 
       0.895864         213.976         52.4168 
       0.902008         212.565         51.5971 
       0.908149         210.805         50.7956 
       0.914301         209.452         50.0099 
       0.920448         208.556         49.2417 
       0.926574         206.616         48.4923 
       0.932687         206.266         47.7602 
       0.938823         204.001         47.0407 
       0.944975         203.479         46.3345 
       0.951105         201.146         45.6453 
       0.957225         199.561         44.9715 
       0.963368         199.494          44.309 
       0.969511         196.297           43.66 
       0.975621         194.493         43.0275 
       0.981748         194.305          42.406 
       0.987916         193.167          41.793 
        0.99406         191.531         41.1944 
        1.00019         190.368         40.6088 
        1.00632         189.338         40.0352 
        1.01246         187.875         39.4719 
        1.01859         186.052         38.9205 
        1.02471         184.777         38.3803 
        1.03085         183.737         37.8485 
        1.03698         183.091         37.3281 
        1.04314         182.242         36.8152 
        1.04929         181.054         36.3132 
        1.05541          180.13         35.8227 
        1.06154         178.343         35.3401 
        1.06769         177.309         34.8656 
        1.07382         176.072         34.4015 
        1.07993         174.785         33.9469 
        1.08607         174.226         33.4987 
        1.09222         172.497         33.0581 
        1.09836         171.916         32.6261 
        1.10449         170.704         32.2023 
        1.11063         169.404         31.7856 
        1.11677          168.46         31.3764 
         1.1229         167.641         30.9752 
        1.12903         166.021         30.5806 
        1.13518         165.208         30.1927 
        1.14131         164.636         29.8117 
        1.14745          163.06         29.4375 
        1.15359         161.974         29.0697 
        1.15973         161.399          28.708 
        1.16584         160.277         28.3541 
        1.17197         159.612         28.0057 
        1.17811         158.222         27.6622 
        1.18424         157.422         27.3254 
        1.19038         156.669         26.9933 
        1.19652         155.188         26.6668 
        1.20267         154.365         26.3458 
        1.20881          153.31         26.0301 
        1.21495         153.206         25.7202 
        1.22108         151.825         25.4153 
         1.2272         150.889         25.1161 
        1.23334         149.986         24.8211 
        1.23949         149.346         24.5302 
        1.24562         148.262         24.2447 
        1.25174         147.845         23.9642 
        1.25789         146.464         23.6873 
        1.26402         145.995         23.4154 
        1.27014         145.246         23.1483 
        1.27628         144.288         22.8847 
        1.28244         143.283         22.6246 
        1.28858         142.485          22.369 
        1.29471         141.405         22.1179 
        1.30084         140.707         21.8709 
        1.30697         139.712         21.6273 
        1.31312         139.123         21.3871 
        1.31925         138.036         21.1513 
        1.32537         137.607         20.9193 
        1.33151         136.806         20.6899 
        1.33765         135.915         20.4642 
        1.34378         135.605         20.2422 
        1.34992         134.491         20.0234 
        1.35606         133.929         19.8074 
         1.3622         133.084         19.5949 
        1.36833         132.153         19.3861 
        1.37445          131.88         19.1805 
        1.38059          130.73         18.9772 
        1.38675         130.109         18.7764 
        1.39288         129.229         18.5792 
        1.39901         128.347         18.3851 
        1.40515         128.021         18.1932 
         1.4113         127.145         18.0042 
        1.41742         126.558         17.8186 
        1.42355         126.028         17.6352 
         1.4297         125.085         17.4539 
        1.43585         124.555         17.2752 
        1.44198         123.427         17.0997 
        1.44809         123.098          16.927 
        1.45423         122.602         16.7561 
        1.46036         121.453         16.5878 
        1.46649         120.809         16.4217 
        1.47263         120.245         16.2579 
        1.47877         119.538         16.0963 
        1.48491         119.016         15.9367 
        1.49104         117.961         15.7796 
        1.49718         117.631         15.6245 
        1.50333          116.82         15.4712 
        1.50947         116.489         15.3203 
         1.5156         115.608         15.1717 
        1.52172         114.923          15.025 
        1.52787         114.599           14.88 
          1.534         113.937         14.7371 
        1.54013         113.097         14.5962 
        1.54627         112.477         14.4569 
        1.55241          112.16         14.3194 
        1.55855          111.46         14.1839 
        1.56467         110.861         14.0505 
         1.5708         109.829         13.9184 
        1.57695         109.784         13.7879 
        1.58308         108.844         13.6593 
        1.58922         108.384         13.5323 
        1.59535         108.127          13.407 
         1.6015         107.255         13.2831 
        1.60764         106.567         13.1608 
        1.61376         106.209         13.0403 
        1.61989         105.716         12.9213 
        1.62604         104.915         12.8035 
        1.63218         104.454         12.6873 
        1.63831         103.809         12.5728 
        1.64444         103.097         12.4596 
        1.65059          102.71         12.3476 
        1.65673         102.485          12.237 
        1.66285         101.939         12.1281 
        1.66898         101.101         12.0206 
        1.67512         100.372         11.9141 
        1.68127         100.231         11.8088 
         1.6874         99.5163          11.705 
        1.69353         98.9641         11.6025 
        1.69967         98.3723          11.501 
        1.70581         98.0841         11.4008 
        1.71193         97.4783         11.3022 
        1.71806         96.7695         11.2045 
        1.72421         96.3049         11.1078 
        1.73035         95.8233         11.0123 
        1.73649         95.3182          10.918 
        1.74262         94.8745         10.8248 
        1.74876         94.2011         10.7327 
        1.75489          94.065         10.6418 
        1.76101         93.4497         10.5521 
        1.76715         92.7969         10.4632 
        1.77329         92.3328         10.3753 
        1.77943         91.8722         10.2883 
        1.78557         91.5825         10.2025 
        1.79171         90.9213         10.1176 
        1.79785         90.3486         10.0337 
        1.80399         90.0583         9.95071 
        1.81012         89.2997         9.86881 
        1.81625         88.9496         9.78786 
        1.82239         88.6319         9.70771 
        1.82853         87.9172         9.62849 
        1.83466         87.3912         9.55024 
        1.84078          87.298         9.47293 
        1.84692         86.9441         9.39636 
        1.85306         86.4748         9.32055 
         1.8592         86.0383         9.24568 
        1.86533         85.4035         9.17169 
        1.87147         85.0642         9.09841 
        1.87761         84.2928         9.02591 
        1.88375         84.0458         8.95428 
        1.88988         83.5028         8.88351 
        1.89601         83.3351         8.81346 
        1.90215         82.9233         8.74411 
        1.90829         82.2278         8.67554 
        1.91442         81.7629          8.6077 
        1.92056         81.4494         8.54065 
         1.9267         81.0893         8.47425 
        1.93284         80.6986         8.40851 
        1.93897         80.2288         8.34359 
        1.94509         79.8577          8.2795 
        1.95123         79.4544         8.21592 
        1.95737           79.16         8.15297 
        1.96349         78.8016         8.09083 
        1.96964          78.323         8.02917 
        1.97578         77.8695         7.96812 
        1.98192         77.4866         7.90783 
        1.98805         77.0114         7.84816 
        1.99419         76.8767          7.7891 
        2.00033         76.2318         7.73062 
        2.00647         75.7916         7.67276 
         2.0126         75.5294         7.61558 
        2.01874         75.2674         7.55891 
        2.02488         74.7875         7.50276 
        2.03101         74.3441         7.44728 
        2.03714         74.0489         7.39242 
        2.04328         73.8281         7.33805 
        2.04941         73.3764         7.28427 
        2.05554          72.946         7.23107 
        2.06167         72.4855         7.17833 
        2.06781         72.1501         7.12611 
        2.07396         71.6483         7.07434 
        2.08009          71.428         7.02317 
        2.08622         71.0674         6.97256 
        2.09237         70.7198         6.92235 
        2.09851         70.2259         6.87263 
        2.10464         70.0519         6.82348 
        2.11077         69.6896         6.77488 
        2.11691         69.3818         6.72663 
        2.12305         68.9397         6.67886 
        2.12918         68.5644         6.63166 
        2.13531         68.2632         6.58492 
        2.14145         67.9554         6.53852 
         2.1476         67.7095         6.49252 
        2.15372         67.1853         6.44718 
        2.15985         66.8951         6.40224 
        2.16599          66.607         6.35759 
        2.17213         66.1362         6.31342 
        2.17827         65.6771         6.26968 
         2.1844         65.6032         6.22639 
        2.19054         65.1868         6.18349 
        2.19666         64.8881         6.14106 
         2.2028         64.6774         6.09899 
        2.20893         64.3338          6.0573 
        2.21508         63.9583         6.01594 
        2.22122         63.5454         5.97496 
        2.22736         63.2395         5.93445 
        2.23349         62.9244         5.89432 
        2.23962         62.6752         5.85455 
        2.24577          62.414          5.8151 
         2.2519         62.0335         5.77607 
        2.25802         61.6903         5.73747 
        2.26417         61.4175         5.69911 
        2.27031           61.16         5.66106 
        2.27644         60.7369         5.62348 
        2.28257         60.5309         5.58624 
        2.28872         60.1318         5.54926 
        2.29486         60.0539         5.51263 
        2.30099         59.5063          5.4764 
        2.30712         59.3904         5.44048 
        2.31326         59.0736         5.40482 
         2.3194          58.779         5.36951 
        2.32553         58.4197         5.33456 
        2.33166         58.1979         5.29995 
         2.3378         57.9303         5.26559 
        2.34394          57.664         5.23153 
        2.35007         57.2887         5.19781 
        2.35619          57.096         5.16444 
        2.36233         56.7902         5.13128 
        2.36848         56.4519         5.09834 
        2.37462         56.1681         5.06576 
        2.38075         55.9164         5.03349 
        2.38689         55.5547         5.00149 
        2.39303         55.4376         4.96976 
        2.39916         55.0616         4.93834 
        2.40529         54.9247          4.9072 
        2.41143          54.654          4.8763 
        2.41757         54.2388         4.84566 
         2.4237         54.1619         4.81533 
        2.42983         53.8113         4.78527 
        2.43598         53.5533         4.75539 
        2.44211         53.2732         4.72581 
        2.44823         53.0949         4.69654 
        2.45437         52.6786         4.66745 
        2.46052         52.5189         4.63858 
        2.46665         52.1575            4.61 
        2.47279         51.9781         4.58167 
        2.47892         51.7348         4.55356 
        2.48507         51.4982         4.52567 
         2.4912         51.2679         4.49805 
