# k  (h/Mpc)    Pcb(k)  (Mpc/h)^3    Pcb_linear(k)  (Mpc/h)^3
     0.00783031         2381.48         2405.87 
       0.013688         3109.98         3107.25 
       0.019231         3257.82         3256.51 
      0.0249154         3079.57          3106.2 
      0.0312784         2763.15         2771.53 
      0.0375637         2418.88         2414.65 
      0.0433917          2121.3         2131.99 
      0.0492413         1915.64          1916.8 
      0.0555754         1736.62         1752.97 
      0.0619321         1641.95          1634.9 
       0.067871         1527.71         1539.93 
      0.0738098         1427.36         1440.54 
      0.0800417         1304.02         1322.63 
      0.0862327          1184.5         1194.76 
      0.0921407         1069.39         1072.96 
      0.0982031         953.478         959.821 
       0.104506         869.946         863.643 
       0.110769         798.035          792.44 
       0.116806         743.771          743.88 
       0.122832         712.516         708.725 
       0.129052         675.321         678.529 
       0.135211           644.3         647.814 
       0.141259         614.124         612.939 
       0.147318         577.385         572.873 
       0.153489         531.263         529.241 
       0.159709         492.012          486.37 
       0.165845         460.998         448.806 
       0.171974         426.858         418.143 
       0.178125         404.562         394.572 
       0.184229         388.281         377.067 
        0.19034         367.688         363.219 
       0.196428         359.621         350.678 
       0.202534         349.426         337.411 
       0.208729          332.07           322.2 
       0.214876         313.149         305.411 
       0.220989         300.781         287.919 
       0.227147         280.686         270.768 
        0.23329         266.574         255.275 
       0.239377         256.273         242.191 
       0.245482         241.513         231.444 
       0.251667         236.549         222.594 
       0.257832         228.811          215.09 
       0.263955         221.259         208.157 
       0.270079          214.07         201.113 
        0.27624         209.222         193.568 
       0.282372          200.83         185.602 
        0.28843         192.273         177.532 
       0.294538         184.187         169.572 
       0.300721         179.668          162.07 
        0.30691         171.282         155.356 
       0.313033           166.1          149.57 
       0.319153         158.722         144.523 
       0.325316         156.147         139.979 
        0.33145         150.888         135.738 
       0.337538         147.867         131.601 
       0.343633         143.031         127.401 
       0.349808         138.855         123.066 
       0.355968          135.18         118.721 
       0.362074         130.885         114.501 
       0.368217         127.142         110.466 
       0.374374         123.294         106.705 
       0.380519         120.241         103.277 
       0.386598         117.069         100.178 
       0.392688         114.883         97.3077 
        0.39888         111.806         94.5545 
       0.405048          109.38         91.8984 
       0.411186         106.993         89.2951 
       0.417313         103.767         86.7188 
       0.423458         101.377         84.1599 
       0.429607         98.7241          81.659 
       0.435692         95.5986         79.2758 
       0.441815         94.4691         76.9919 
       0.447964         92.9231         74.8314 
       0.454126         89.1042         72.7997 
       0.460267         87.7879         70.8862 
       0.466387         85.7079         69.0692 
        0.47254          84.457         67.3107 
       0.478662         83.1077         65.6084 
       0.484765          80.872         63.9451 
       0.490885          79.213         62.3139 
       0.497035         78.1863         60.7164 
       0.503198         76.1685         59.1644 
       0.509342         74.3101         57.6728 
       0.515458         73.0632          56.251 
       0.521598         72.0252         54.8874 
       0.527764         70.7079          53.576 
       0.533884         69.4988         52.3245 
           0.54         68.1998         51.1177 
       0.546137         67.3014         49.9444 
       0.552299         66.3239         48.7985 
       0.558452         64.4158          47.683 
       0.564573         63.4103         46.6015 
       0.570708         62.6434         45.5486 
       0.576825         61.2882         44.5322 
       0.582926         60.1883         43.5523 
       0.589034         58.7537          42.604 
       0.595184         58.0912          41.681 
       0.601379         57.2826         40.7825 
       0.607522         56.0366         39.9202 
       0.613639         55.7686         39.0876 
       0.619772         54.3629         38.2762 
       0.625918         54.1136         37.4843 
       0.632068         53.2818         36.7124 
       0.638161         52.3631         35.9679 
         0.6443          51.455         35.2385 
       0.650464         50.6554         34.5275 
       0.656582         50.3199         33.8426 
       0.662703         49.3406         33.1773 
       0.668861         48.6291         32.5271 
       0.675024         47.8972         31.8944 
       0.681124         47.0978         31.2852 
       0.687237         46.3449         30.6907 
       0.693381         46.0125          30.109 
       0.699536         45.0001         29.5414 
       0.705665          45.063         28.9909 
       0.711789         43.9965          28.455 
       0.717957         43.5358         27.9291 
        0.72409         42.9303         27.4196 
       0.730186         42.3258          26.926 
       0.736317         42.0109         26.4421 
       0.742472         41.2856         25.9685 
       0.748622         40.9635         25.5072 
        0.75476         40.3455         25.0583 
       0.760888          39.794         24.6212 
       0.767043         39.3847          24.193 
       0.773185         38.7608          23.776 
       0.779291         38.6004         23.3714 
       0.785407         38.1799         22.9757 
       0.791564         37.5067         22.5868 
       0.797719          36.825         22.2072 
       0.803834         36.7849         21.8388 
       0.809972         36.3907         21.4775 
       0.816124         35.6084         21.1237 
       0.822261         35.4516          20.779 
       0.828378         35.1154         20.4431 
       0.834502         34.7279         20.1144 
       0.840667         34.3714         19.7909 
       0.846816         33.8364         19.4755 
       0.852925         33.5607         19.1691 
       0.859047         33.1721         18.8688 
       0.865192         32.9083          18.574 
       0.871341          32.717         18.2853 
       0.877463         32.0964         18.0042 
       0.883569         31.7946         17.7298 
       0.889708         31.4672         17.4598 
       0.895864         31.2376         17.1947 
       0.902008         30.9968         16.9358 
       0.908149          30.687         16.6825 
       0.914301         30.5495          16.434 
       0.920448           29.94         16.1908 
       0.926574         29.7869         15.9535 
       0.932687          29.481         15.7215 
       0.938823          29.112         15.4933 
       0.944975         28.8826         15.2692 
       0.951105         28.6667         15.0504 
       0.957225         28.3434         14.8363 
       0.963368         28.1606         14.6256 
       0.969511         27.9442         14.4192 
       0.975621         27.7306         14.2178 
       0.981748         27.3608         14.0199 
       0.987916         27.2212         13.8245 
        0.99406         26.9197         13.6336 
        1.00019         26.5895         13.4467 
        1.00632          26.519         13.2636 
        1.01246          26.278         13.0836 
        1.01859         25.9292         12.9073 
        1.02471         25.8749         12.7345 
        1.03085         25.6316         12.5643 
        1.03698          25.247         12.3976 
        1.04314         25.1078         12.2333 
        1.04929         24.8565         12.0724 
        1.05541         24.6227          11.915 
        1.06154         24.4908         11.7601 
        1.06769         24.3503         11.6077 
        1.07382         24.0844         11.4586 
        1.07993         23.9859         11.3124 
        1.08607         23.6936         11.1682 
        1.09222         23.5615         11.0264 
        1.09836         23.2841         10.8873 
        1.10449         23.1938         10.7508 
        1.11063         22.9361         10.6164 
        1.11677         22.8602         10.4845 
         1.1229         22.7464          10.355 
        1.12903         22.4553         10.2276 
        1.13518         22.2359         10.1023 
        1.14131         22.1736          9.9792 
        1.14745         22.0133         9.85822 
        1.15359         21.8771         9.73924 
        1.15973         21.6764         9.62219 
        1.16584         21.4129         9.50761 
        1.17197         21.4033         9.39476 
        1.17811         21.1792         9.28341 
        1.18424         21.0029          9.1742 
        1.19038         20.9403         9.06646 
        1.19652         20.7603          8.9605 
        1.20267         20.5888         8.85626 
        1.20881         20.5225         8.75371 
        1.21495         20.3728         8.65296 
        1.22108         20.1798         8.55384 
         1.2272         20.0084         8.45651 
        1.23334         19.8822         8.36049 
        1.23949         19.7198         8.26575 
        1.24562         19.6819         8.17275 
        1.25174          19.552         8.08134 
        1.25789         19.4245         7.99107 
        1.26402         19.3309         7.90234 
        1.27014         19.1562          7.8152 
        1.27628         18.9481         7.72912 
        1.28244         18.9018         7.64418 
        1.28858         18.8411         7.56065 
        1.29471         18.6507         7.47856 
        1.30084         18.5042         7.39778 
        1.30697         18.4262         7.31808 
        1.31312         18.2431         7.23945 
        1.31925         18.1337         7.16223 
        1.32537         18.0904         7.08622 
        1.33151         17.9334         7.01105 
        1.33765         17.8399         6.93703 
        1.34378         17.7445         6.86423 
        1.34992         17.5594         6.79243 
        1.35606         17.5271         6.72151 
         1.3622         17.4271         6.65174 
        1.36833         17.2898         6.58314 
        1.37445         17.2224         6.51555 
        1.38059         17.1332          6.4487 
        1.38675         16.9601         6.38265 
        1.39288         16.9025         6.31779 
        1.39901         16.7574         6.25387 
        1.40515         16.7004         6.19069 
         1.4113          16.599         6.12843 
        1.41742         16.4896         6.06726 
        1.42355         16.4058         6.00682 
         1.4297          16.309         5.94703 
        1.43585         16.2641         5.88808 
        1.44198         16.1268         5.83017 
        1.44809         16.0537         5.77315 
        1.45423         15.9511         5.71669 
        1.46036         15.8861         5.66109 
        1.46649         15.8062         5.60622 
        1.47263           15.67         5.55204 
        1.47877         15.6042          5.4986 
        1.48491         15.5233         5.44579 
        1.49104          15.456         5.39379 
        1.49718         15.3556         5.34244 
        1.50333         15.2867         5.29168 
        1.50947         15.2075         5.24169 
         1.5156         15.1016         5.19242 
        1.52172         15.0226         5.14379 
        1.52787         14.9373         5.09569 
          1.534         14.8608         5.04827 
        1.54013          14.775          5.0015 
        1.54627          14.685         4.95525 
        1.55241         14.6279         4.90958 
        1.55855         14.5686         4.86455 
        1.56467         14.4704         4.82022 
         1.5708         14.4484         4.77632 
        1.57695          14.315          4.7329 
        1.58308         14.2625         4.69013 
        1.58922         14.2017         4.64786 
        1.59535          14.135         4.60613 
         1.6015         14.0342         4.56486 
        1.60764          13.967         4.52412 
        1.61376         13.9452         4.48399 
        1.61989         13.8187         4.44432 
        1.62604         13.7958         4.40505 
        1.63218         13.7152         4.36627 
        1.63831         13.6671         4.32806 
        1.64444         13.5694         4.29029 
        1.65059         13.4951         4.25289 
        1.65673         13.4628         4.21598 
        1.66285         13.3374         4.17961 
        1.66898         13.3167         4.14366 
        1.67512         13.2549         4.10807 
        1.68127         13.1732         4.07286 
         1.6874         13.1257         4.03815 
        1.69353         13.0603         4.00387 
        1.69967         12.9839         3.96991 
        1.70581         12.9179         3.93636 
        1.71193         12.8626         3.90333 
        1.71806         12.8411         3.87061 
        1.72421         12.7345          3.8382 
        1.73035         12.7133          3.8062 
        1.73649         12.6545         3.77458 
        1.74262         12.5906         3.74334 
        1.74876         12.5381         3.71244 
        1.75489         12.4868         3.68196 
        1.76101         12.3913         3.65182 
        1.76715         12.3867         3.62199 
        1.77329         12.3034         3.59245 
        1.77943         12.2357         3.56324 
        1.78557         12.2054         3.53439 
        1.79171         12.1592         3.50586 
        1.79785         12.0804         3.47765 
        1.80399         12.0296         3.44975 
        1.81012         11.9826         3.42219 
        1.81625         11.9131         3.39495 
        1.82239         11.8754         3.36797 
        1.82853         11.7919          3.3413 
        1.83466         11.7636         3.31495 
        1.84078         11.6807         3.28891 
        1.84692         11.6797          3.2631 
        1.85306         11.6101         3.23755 
         1.8592         11.5538         3.21231 
        1.86533         11.5162         3.18736 
        1.87147         11.4646         3.16264 
        1.87761         11.4222         3.13818 
        1.88375         11.3614         3.11401 
        1.88988         11.3364         3.09011 
        1.89601         11.2787         3.06646 
        1.90215         11.2196         3.04304 
        1.90829         11.1769         3.01988 
        1.91442          11.131         2.99695 
        1.92056         11.0959         2.97429 
         1.9267         11.0401         2.95184 
        1.93284         10.9886         2.92961 
        1.93897         10.9298         2.90765 
        1.94509          10.901         2.88596 
        1.95123         10.8532         2.86445 
        1.95737         10.8052         2.84314 
        1.96349         10.7611          2.8221 
        1.96964         10.7166         2.80121 
        1.97578         10.6719         2.78053 
        1.98192         10.6231          2.7601 
        1.98805         10.5926         2.73988 
        1.99419         10.5471         2.71986 
        2.00033         10.5227         2.70003 
        2.00647         10.4716          2.6804 
         2.0126         10.4138           2.661 
        2.01874         10.3788         2.64177 
        2.02488          10.329         2.62271 
        2.03101         10.2957         2.60388 
        2.03714         10.2502         2.58525 
        2.04328         10.2161         2.56678 
        2.04941         10.1733          2.5485 
        2.05554         10.1337         2.53042 
        2.06167         10.0837          2.5125 
        2.06781         10.0679         2.49474 
        2.07396         10.0289         2.47713 
        2.08009         9.97322         2.45973 
        2.08622         9.92655         2.44251 
        2.09237         9.91981         2.42542 
        2.09851         9.89242          2.4085 
        2.10464         9.83655         2.39176 
        2.11077          9.7776         2.37521 
        2.11691         9.74176         2.35877 
        2.12305         9.72238          2.3425 
        2.12918          9.6954         2.32641 
        2.13531         9.64168         2.31048 
        2.14145         9.61612         2.29466 
         2.1476         9.56157         2.27897 
        2.15372         9.53721         2.26351 
        2.15985         9.52609         2.24817 
        2.16599         9.46712         2.23294 
        2.17213         9.44831         2.21786 
        2.17827         9.41219         2.20293 
         2.1844         9.36757         2.18815 
        2.19054          9.3139          2.1735 
        2.19666         9.29753           2.159 
         2.2028         9.25715         2.14463 
        2.20893         9.24278         2.13038 
        2.21508         9.19115         2.11624 
        2.22122         9.14856         2.10223 
        2.22736         9.12901         2.08838 
        2.23349         9.09399         2.07465 
        2.23962          9.0708         2.06105 
        2.24577         9.02349         2.04755 
         2.2519         9.00217         2.03419 
        2.25802         8.96202         2.02098 
        2.26417         8.92739         2.00784 
        2.27031         8.89904         1.99481 
        2.27644         8.86855         1.98194 
        2.28257         8.84251         1.96918 
        2.28872         8.79953         1.95651 
        2.29486          8.7749         1.94395 
        2.30099         8.75957         1.93153 
        2.30712         8.72815         1.91921 
        2.31326          8.6678         1.90699 
         2.3194           8.643         1.89487 
        2.32553         8.63402         1.88288 
        2.33166         8.59723           1.871 
         2.3378         8.56926         1.85921 
        2.34394         8.53341         1.84752 
        2.35007         8.48792         1.83594 
        2.35619          8.4674         1.82448 
        2.36233         8.43704         1.81309 
        2.36848         8.41752         1.80177 
        2.37462         8.38389         1.79057 
        2.38075         8.35598         1.77948 
        2.38689         8.32516         1.76848 
        2.39303         8.29142         1.75757 
        2.39916         8.27147         1.74677 
        2.40529         8.24275         1.73605 
        2.41143         8.20964         1.72542 
        2.41757         8.20451         1.71488 
         2.4237         8.16494         1.70444 
        2.42983          8.1385         1.69409 
        2.43598         8.11947          1.6838 
        2.44211         8.08575         1.67361 
        2.44823         8.06688         1.66353 
        2.45437         8.03182         1.65351 
        2.46052         7.99073         1.64356 
        2.46665         7.97238         1.63371 
        2.47279          7.9428         1.62395 
        2.47892         7.90904         1.61426 
        2.48507         7.89251         1.60464 
         2.4912         7.86037         1.59512 
