# k  (h/Mpc)    Pcb(k)  (Mpc/h)^3    Pcb_linear(k)  (Mpc/h)^3
     0.00783031         8306.85         8412.28 
       0.013688         10122.7         10068.8 
       0.019231         9892.21          9869.6 
      0.0249154         8668.19         8785.73 
      0.0312784          7226.3         7258.36 
      0.0375637         5928.72         5902.07 
      0.0433917          4927.1         4958.84 
      0.0492413         4328.39         4323.16 
      0.0555754         3843.09         3901.23 
      0.0619321         3663.82         3632.55 
       0.067871         3373.09         3417.09 
      0.0738098         3127.31         3169.22 
      0.0800417         2795.71         2851.57 
      0.0862327         2478.69         2499.42 
      0.0921407         2185.22         2171.18 
      0.0982031         1889.17         1881.97 
       0.104506         1708.39         1655.95 
       0.110769         1556.24         1507.87 
       0.116806         1457.34         1421.97 
       0.122832         1405.05         1368.42 
       0.129052         1329.78         1321.04 
       0.135211         1270.63         1261.72 
       0.141259         1207.84         1182.61 
       0.147318         1121.57         1085.64 
       0.153489         1012.08         980.041 
       0.159709         929.762         880.618 
       0.165845         866.367         799.763 
       0.171974          803.28         740.354 
       0.178125         763.708         700.577 
       0.184229          734.97         675.096 
        0.19034          694.69         655.995 
       0.196428         684.804         636.218 
       0.202534         664.235         610.817 
       0.208729         627.639         577.952 
       0.214876         589.491         540.223 
       0.220989         561.571         501.521 
       0.227147         526.588         465.448 
        0.23329         499.534         435.268 
       0.239377         483.981         412.157 
       0.245482          451.72         395.092 
       0.251667         447.254         382.101 
       0.257832         433.008         371.016 
       0.263955         418.829         359.654 
       0.270079         402.804         346.545 
        0.27624         395.665         331.334 
       0.282372         379.014          314.81 
        0.28843          364.66         298.319 
       0.294538         346.365          282.75 
       0.300721         341.272         268.971 
        0.30691         324.877          257.53 
       0.313033         317.289         248.288 
       0.319153         305.274         240.539 
       0.325316         297.863         233.448 
        0.33145         288.063         226.429 
       0.337538         283.609         219.054 
       0.343633         273.798          211.17 
       0.349808         264.535         202.854 
       0.355968         259.966         194.578 
       0.362074          253.17         186.797 
       0.368217         245.869         179.651 
       0.374374         236.863         173.322 
       0.380519         233.261         167.764 
       0.386598         227.134          162.84 
       0.392688         224.048         158.255 
        0.39888         218.132         153.705 
       0.405048         212.762         149.152 
       0.411186         208.057         144.548 
       0.417313         203.642         139.902 
       0.423458         199.209         135.315 
       0.429607         194.637         130.904 
       0.435692         188.716         126.798 
       0.441815         187.109         122.981 
       0.447964         183.446         119.457 
       0.454126         175.952          116.17 
       0.460267         173.797         113.078 
       0.466387         171.457         110.108 
        0.47254         167.634         107.171 
       0.478662         166.468         104.273 
       0.484765         161.079         101.425 
       0.490885         158.649         98.6288 
       0.497035         156.367         95.9038 
       0.503198         152.309         93.2906 
       0.509342         150.064         90.8265 
       0.515458         147.862         88.5079 
       0.521598         145.302          86.295 
       0.527764         143.305         84.1692 
       0.533884          141.14         82.1367 
           0.54         138.625         80.1647 
       0.546137         137.462         78.2277 
       0.552299         134.946         76.3213 
       0.558452         132.614         74.4645 
       0.564573         130.376          72.674 
       0.570708         128.085         70.9435 
       0.576825         126.541          69.283 
       0.582926         124.107         67.6896 
       0.589034         122.439          66.155 
       0.595184         120.862          64.668 
       0.601379         119.295          63.222 
       0.607522         116.728         61.8316 
       0.613639          116.18         60.4833 
       0.619772         113.696         59.1632 
       0.625918         112.376          57.874 
       0.632068         111.087         56.6197 
       0.638161         109.985         55.4146 
         0.6443         108.522         54.2397 
       0.650464         107.297         53.0983 
       0.656582         105.654         52.0007 
       0.662703         104.115         50.9355 
       0.668861         102.598         49.8947 
       0.675024         101.484         48.8821 
       0.681124         100.585         47.9076 
       0.687237          98.694         46.9574 
       0.693381         97.4225         46.0282 
       0.699536         96.5659         45.1223 
       0.705665         96.6356         44.2444 
       0.711789         94.2013         43.3905 
       0.717957         93.7889         42.5533 
        0.72409         92.3376         41.7431 
       0.730186         90.8536         40.9592 
       0.736317          90.486         40.1917 
       0.742472         89.6498         39.4415 
       0.748622         88.6566         38.7117 
        0.75476          87.778         38.0023 
       0.760888         86.5044          37.312 
       0.767043         85.8727         36.6363 
       0.773185         84.8616         35.9787 
       0.779291         83.8896         35.3411 
       0.785407         83.3048          34.718 
       0.791564         82.5031         34.1061 
       0.797719         81.0974         33.5092 
       0.803834         80.7313         32.9304 
       0.809972         79.5112         32.3634 
       0.816124         79.1208         31.8085 
       0.822261         78.4235         31.2683 
       0.828378         77.7656         30.7423 
       0.834502         77.0909         30.2281 
       0.840667         76.1936         29.7225 
       0.846816         75.2265         29.2299 
       0.852925         74.7041         28.7517 
       0.859047         73.7204         28.2833 
       0.865192          73.315         27.8238 
       0.871341         72.8043         27.3744 
       0.877463         71.7272          26.937 
       0.883569         71.3009         26.5103 
       0.889708         70.7835         26.0907 
       0.895864         70.2199         25.6793 
       0.902008         69.5487         25.2776 
       0.908149         69.1072         24.8848 
       0.914301         68.4094         24.4998 
       0.920448         67.9094         24.1233 
       0.926574         67.2475         23.7561 
       0.932687         67.0741         23.3973 
       0.938823         65.9816         23.0448 
       0.944975         65.5013         22.6987 
       0.951105         65.0073          22.361 
       0.957225         64.2455         22.0308 
       0.963368         64.0419         21.7062 
       0.969511         63.6863         21.3882 
       0.975621         63.2813         21.0783 
       0.981748         62.5983         20.7738 
       0.987916         62.0783         20.4734 
        0.99406         61.6805         20.1801 
        1.00019         61.1054         19.8932 
        1.00632         60.7328         19.6122 
        1.01246         60.2609         19.3362 
        1.01859          59.469          19.066 
        1.02471         59.4715         18.8013 
        1.03085         58.8812         18.5408 
        1.03698          58.486         18.2858 
        1.04314         57.9539         18.0345 
        1.04929         57.5512         17.7886 
        1.05541         56.9813         17.5482 
        1.06154          56.954         17.3118 
        1.06769         56.4575         17.0793 
        1.07382          56.183         16.8519 
        1.07993         55.8017         16.6292 
        1.08607         55.3274         16.4096 
        1.09222         55.0347         16.1938 
        1.09836         54.5943         15.9821 
        1.10449         54.2727         15.7745 
        1.11063         53.7666         15.5704 
        1.11677         53.4616         15.3699 
         1.1229         53.0382         15.1734 
        1.12903         52.3956         14.9801 
        1.13518         52.6361           14.79 
        1.14131         52.2168         14.6034 
        1.14745         51.5825         14.4201 
        1.15359          51.468         14.2399 
        1.15973         50.9307         14.0628 
        1.16584         50.6703         13.8894 
        1.17197          50.363         13.7188 
        1.17811          50.139         13.5505 
        1.18424         49.6497         13.3855 
        1.19038         49.3773         13.2229 
        1.19652         49.2373         13.0629 
        1.20267         48.7665         12.9057 
        1.20881         48.5299         12.7511 
        1.21495         48.1141         12.5993 
        1.22108         47.9269           12.45 
         1.2272         47.4087         12.3034 
        1.23334         47.2483         12.1589 
        1.23949         47.1779         12.0164 
        1.24562         46.6848         11.8766 
        1.25174         46.5353         11.7392 
        1.25789         46.3159         11.6036 
        1.26402         45.9143         11.4704 
        1.27014         45.5174         11.3396 
        1.27628         45.3387         11.2105 
        1.28244         45.0498         11.0831 
        1.28858         44.8538         10.9579 
        1.29471         44.6822         10.8349 
        1.30084         44.4199          10.714 
        1.30697         44.1071         10.5946 
        1.31312         43.7732          10.477 
        1.31925         43.6455         10.3615 
        1.32537         43.4451         10.2478 
        1.33151         43.0078         10.1355 
        1.33765         42.9215         10.0249 
        1.34378         42.6474         9.91622 
        1.34992         42.3508         9.80906 
        1.35606         42.1246         9.70325 
         1.3622          41.871          9.5992 
        1.36833         41.6413         9.49693 
        1.37445         41.5325         9.39621 
        1.38059         41.2276         9.29664 
        1.38675         40.9324         9.19828 
        1.39288         40.8438         9.10174 
        1.39901          40.565         9.00663 
        1.40515          40.332         8.91268 
         1.4113         40.1946          8.8201 
        1.41742         39.9444         8.72919 
        1.42355         39.6837          8.6394 
         1.4297         39.5202         8.55061 
        1.43585         39.3624          8.4631 
        1.44198         39.0484         8.37716 
        1.44809         38.9443         8.29257 
        1.45423         38.7265         8.20885 
        1.46036         38.5949         8.12643 
        1.46649         38.3281         8.04513 
        1.47263         38.0966         7.96487 
        1.47877         37.9711         7.88575 
        1.48491           37.92         7.80758 
        1.49104         37.5612         7.73064 
        1.49718         37.1834         7.65468 
        1.50333         37.1892         7.57962 
        1.50947         37.0438         7.50573 
         1.5156          36.784         7.43293 
        1.52172         36.6425          7.3611 
        1.52787         36.5653         7.29008 
          1.534         36.3075         7.22008 
        1.54013          36.072         7.15108 
        1.54627         35.9743         7.08286 
        1.55241         35.6642         7.01552 
        1.55855         35.5802         6.94915 
        1.56467         35.2452         6.88383 
         1.5708         35.3076         6.81916 
        1.57695         35.0205         6.75523 
        1.58308         34.8738         6.69227 
        1.58922         34.8368         6.63007 
        1.59535         34.6311         6.56868 
         1.6015         34.3357         6.50799 
        1.60764         34.1727         6.44809 
        1.61376         34.0168         6.38911 
        1.61989          33.808         6.33083 
        1.62604         33.7415         6.27314 
        1.63218          33.638         6.21621 
        1.63831         33.4176         6.16011 
        1.64444         33.2629         6.10469 
        1.65059          33.054         6.04982 
        1.65673         32.8777         5.99569 
        1.66285         32.7541         5.94237 
        1.66898         32.5749         5.88968 
        1.67512         32.4644         5.83753 
        1.68127         32.2569         5.78597 
         1.6874         32.1456         5.73515 
        1.69353         31.9844         5.68496 
        1.69967         31.8215         5.63527 
        1.70581         31.7609         5.58618 
        1.71193         31.6182         5.53787 
        1.71806         31.3511         5.49003 
        1.72421          31.222         5.44266 
        1.73035         31.0757         5.39591 
        1.73649         30.9069         5.34971 
        1.74262          30.809          5.3041 
        1.74876         30.7691         5.25898 
        1.75489         30.5704         5.21449 
        1.76101         30.4008         5.17052 
        1.76715         30.3104           5.127 
        1.77329         30.1927         5.08393 
        1.77943          30.051         5.04134 
        1.78557         29.8413          4.9993 
        1.79171         29.7264         4.95773 
        1.79785         29.5864         4.91663 
        1.80399         29.5188         4.87601 
        1.81012         29.3546         4.83589 
        1.81625         29.2043         4.79625 
        1.82239         29.1123           4.757 
        1.82853          28.918          4.7182 
        1.83466         28.8441         4.67987 
        1.84078         28.6042         4.64202 
        1.84692          28.543         4.60451 
        1.85306         28.4024         4.56738 
         1.8592         28.2753         4.53072 
        1.86533         28.1542         4.49448 
        1.87147         28.0647         4.45859 
        1.87761         27.9723         4.42308 
        1.88375         27.8469           4.388 
        1.88988         27.7402         4.35334 
        1.89601          27.567         4.31903 
        1.90215         27.4689         4.28507 
        1.90829         27.4264         4.25149 
        1.91442         27.2312         4.21826 
        1.92056         27.1586         4.18542 
         1.9267         26.9805          4.1529 
        1.93284         26.8204          4.1207 
        1.93897         26.7933         4.08891 
        1.94509         26.6344         4.05752 
        1.95123         26.5476         4.02639 
        1.95737         26.3732         3.99555 
        1.96349         26.3051         3.96512 
        1.96964         26.1852         3.93492 
        1.97578         26.0746         3.90502 
        1.98192         25.9548          3.8755 
        1.98805         25.8794         3.84627 
        1.99419         25.7373         3.81734 
        2.00033         25.5997          3.7887 
        2.00647          25.518         3.76036 
         2.0126         25.4151         3.73236 
        2.01874         25.3316          3.7046 
        2.02488         25.2498          3.6771 
        2.03101         25.0831         3.64993 
        2.03714         24.9967         3.62306 
        2.04328         24.8669         3.59643 
        2.04941         24.7873         3.57009 
        2.05554         24.6871         3.54404 
        2.06167         24.5885          3.5182 
        2.06781         24.4667         3.49263 
        2.07396         24.4139         3.46727 
        2.08009         24.3362          3.4422 
        2.08622         24.1466         3.41742 
        2.09237         24.0679         3.39283 
        2.09851          23.982         3.36848 
        2.10464         23.9199          3.3444 
        2.11077         23.7605         3.32059 
        2.11691         23.6933         3.29697 
        2.12305         23.6125         3.27357 
        2.12918          23.549         3.25045 
        2.13531          23.427         3.22755 
        2.14145          23.386         3.20483 
         2.1476         23.2156         3.18229 
        2.15372         23.1157         3.16009 
        2.15985          22.993         3.13807 
        2.16599         22.9806         3.11621 
        2.17213         22.8964         3.09457 
        2.17827         22.7156         3.07314 
         2.1844         22.6193         3.05194 
        2.19054          22.556         3.03093 
        2.19666         22.4727         3.01015 
         2.2028         22.3865         2.98954 
        2.20893           22.32         2.96912 
        2.21508         22.2158         2.94887 
        2.22122          22.048         2.92879 
        2.22736         22.0596         2.90895 
        2.23349         21.9343         2.88929 
        2.23962         21.8362         2.86981 
        2.24577         21.7374         2.85049 
         2.2519         21.6991         2.83138 
        2.25802         21.5605         2.81247 
        2.26417         21.5433         2.79368 
        2.27031         21.4298         2.77504 
        2.27644         21.3183         2.75663 
        2.28257         21.2273         2.73839 
        2.28872         21.1302         2.72028 
        2.29486         21.1087         2.70233 
        2.30099         20.9877         2.68459 
        2.30712         20.9213         2.66699 
        2.31326         20.8755         2.64953 
         2.3194         20.7747         2.63223 
        2.32553         20.6523         2.61511 
        2.33166         20.5587         2.59815 
         2.3378         20.4901         2.58132 
        2.34394         20.4157         2.56464 
        2.35007         20.3351         2.54812 
        2.35619         20.2281         2.53178 
        2.36233         20.2032         2.51553 
        2.36848         20.0775          2.4994 
        2.37462         20.0046         2.48344 
        2.38075          19.938         2.46763 
        2.38689         19.8964         2.45195 
        2.39303         19.7745         2.43641 
        2.39916         19.6837         2.42102 
        2.40529         19.6176         2.40577 
        2.41143         19.5381         2.39063 
        2.41757         19.4923         2.37562 
         2.4237         19.3752         2.36077 
        2.42983          19.294         2.34604 
        2.43598         19.2669          2.3314 
        2.44211         19.1653         2.31691 
        2.44823         19.0873         2.30258 
        2.45437         19.0046         2.28832 
        2.46052         18.9568         2.27418 
        2.46665         18.9067         2.26018 
        2.47279         18.7805          2.2463 
        2.47892         18.7355         2.23253 
        2.48507         18.6589         2.21887 
         2.4912         18.6249         2.20534 
