# k  (h/Mpc)    Pcb(k)  (Mpc/h)^3    Pcb_linear(k)  (Mpc/h)^3
     0.00783031         13250.5         13435.4 
       0.013688         16205.2         16077.5 
       0.019231         15792.6         15750.3 
      0.0249154         13767.4         14012.9 
      0.0312784         11487.1         11572.1 
      0.0375637         9445.21         9407.39 
      0.0433917          7822.7         7902.63 
      0.0492413         6886.84          6888.7 
      0.0555754         6084.31         6215.74 
      0.0619321         5833.22         5787.24 
       0.067871         5339.36         5443.67 
      0.0738098         4951.44         5048.56 
      0.0800417         4418.73         4542.38 
      0.0862327         3929.71         3981.31 
      0.0921407          3486.1         3458.37 
      0.0982031         3018.38         2997.64 
       0.104506         2749.74         2637.57 
       0.110769         2507.13         2401.69 
       0.116806         2353.27         2264.83 
       0.122832          2261.4         2179.53 
       0.129052         2128.42         2104.03 
       0.135211         2033.65         2009.53 
       0.141259         1940.66         1883.53 
       0.147318         1808.54         1729.07 
       0.153489          1634.7         1560.88 
       0.159709          1513.8         1402.53 
       0.165845         1421.92         1273.75 
       0.171974         1327.42         1179.12 
       0.178125         1260.55         1115.77 
       0.184229         1209.45         1075.18 
        0.19034         1143.23         1044.76 
       0.196428          1126.1         1013.26 
       0.202534         1089.59         972.803 
       0.208729         1033.01         920.459 
       0.214876         977.732         860.369 
       0.220989         935.426         798.731 
       0.227147         885.696         741.279 
        0.23329         843.414         693.212 
       0.239377          822.02         656.404 
       0.245482         766.714         629.225 
       0.251667         761.529         608.534 
       0.257832         733.679          590.88 
       0.263955         710.293         572.784 
       0.270079         683.118         551.907 
        0.27624         674.121         527.682 
       0.282372         645.866         501.365 
        0.28843         629.872         475.101 
       0.294538         596.753         450.305 
       0.300721          591.71         428.361 
        0.30691         564.884         410.139 
       0.313033         553.322         395.421 
       0.319153          536.85          383.08 
       0.325316         521.402         371.787 
        0.33145         506.354         360.608 
       0.337538         498.357         348.862 
       0.343633         482.959         336.307 
       0.349808         465.719         323.063 
       0.355968         460.983         309.881 
       0.362074         452.929         297.489 
       0.368217         439.791         286.108 
       0.374374         421.064         276.029 
       0.380519         418.501         267.178 
       0.386598         407.413         259.335 
       0.392688         404.467         252.034 
        0.39888         392.789         244.787 
       0.405048         384.431         237.536 
       0.411186          377.59         230.203 
       0.417313         370.086         222.804 
       0.423458         362.516           215.5 
       0.429607         356.083         208.475 
       0.435692         347.079         201.935 
       0.441815         343.808         195.857 
       0.447964         336.402         190.244 
       0.454126         327.596          185.01 
       0.460267         321.897         180.084 
       0.466387         317.917         175.354 
        0.47254         311.742         170.677 
       0.478662         310.674         166.062 
       0.484765         299.657         161.527 
       0.490885         296.543         157.073 
       0.497035         291.126         152.734 
       0.503198         286.418         148.572 
       0.509342         284.066         144.648 
       0.515458         280.263         140.955 
       0.521598         273.727         137.431 
       0.527764         269.866         134.045 
       0.533884           267.2         130.808 
           0.54         263.231         127.668 
       0.546137          261.89         124.583 
       0.552299         256.348         121.547 
       0.558452         254.572          118.59 
       0.564573           250.7         115.738 
       0.570708         245.648         112.982 
       0.576825         241.777         110.338 
       0.582926         239.162           107.8 
       0.589034         236.873         105.356 
       0.595184         234.483         102.988 
       0.601379         231.147         100.685 
       0.607522         227.471         98.4711 
       0.613639         226.058         96.3237 
       0.619772         221.262         94.2215 
       0.625918         220.019         92.1682 
       0.632068         216.548         90.1708 
       0.638161         215.492         88.2516 
         0.6443         212.043         86.3804 
       0.650464         209.802         84.5626 
       0.656582         207.682         82.8147 
       0.662703         206.793         81.1183 
       0.668861         203.016         79.4608 
       0.675024          200.42         77.8482 
       0.681124          199.39         76.2961 
       0.687237         196.839         74.7828 
       0.693381          193.73         73.3031 
       0.699536         192.164         71.8604 
       0.705665          190.76         70.4622 
       0.711789         188.531         69.1024 
       0.717957         187.928         67.7691 
        0.72409         185.459         66.4788 
       0.730186          183.14         65.2304 
       0.736317         181.034          64.008 
       0.742472         179.991         62.8133 
       0.748622         178.434          61.651 
        0.75476         176.871         60.5212 
       0.760888         174.635         59.4219 
       0.767043         174.322         58.3457 
       0.773185         172.403         57.2986 
       0.779291         169.139         56.2831 
       0.785407         168.768         55.2908 
       0.791564         167.218         54.3162 
       0.797719         164.597         53.3656 
       0.803834         163.755         52.4439 
       0.809972         162.821         51.5409 
       0.816124         162.166         50.6572 
       0.822261         160.433         49.7968 
       0.828378          158.81         48.9592 
       0.834502         158.342         48.1403 
       0.840667         156.049          47.335 
       0.846816         154.656         46.5506 
       0.852925         154.065          45.789 
       0.859047         152.434          45.043 
       0.865192         150.851         44.3113 
       0.871341         149.673         43.5955 
       0.877463         148.433         42.8989 
       0.883569         148.053         42.2194 
       0.889708         146.458         41.5513 
       0.895864         144.759         40.8959 
       0.902008         144.009         40.2562 
       0.908149         143.536         39.6307 
       0.914301         141.776         39.0175 
       0.920448         140.731          38.418 
       0.926574          139.84         37.8332 
       0.932687         139.694         37.2618 
       0.938823         137.703         36.7003 
       0.944975         136.467         36.1492 
       0.951105         135.872         35.6114 
       0.957225         134.624         35.0856 
       0.963368         132.916         34.5686 
       0.969511         132.695         34.0621 
       0.975621         131.763         33.5686 
       0.981748         131.339         33.0836 
       0.987916         129.897         32.6052 
        0.99406         128.818         32.1382 
        1.00019         128.728         31.6813 
        1.00632         127.254         31.2337 
        1.01246         126.591         30.7942 
        1.01859         125.929         30.3638 
        1.02471         124.434         29.9423 
        1.03085         123.407         29.5274 
        1.03698          123.08         29.1213 
        1.04314         121.771         28.7212 
        1.04929         121.152         28.3295 
        1.05541         120.507         27.9467 
        1.06154         119.753         27.5701 
        1.06769         119.519            27.2 
        1.07382         118.368         26.8378 
        1.07993         117.494         26.4831 
        1.08607           116.7         26.1334 
        1.09222         116.373         25.7897 
        1.09836         115.363         25.4526 
        1.10449         114.273          25.122 
        1.11063         113.529         24.7969 
        1.11677         113.086         24.4776 
         1.1229         112.169         24.1646 
        1.12903           111.6         23.8568 
        1.13518         111.344         23.5541 
        1.14131         110.192         23.2569 
        1.14745         109.742          22.965 
        1.15359         108.985          22.678 
        1.15973         108.505         22.3959 
        1.16584          107.38         22.1199 
        1.17197         106.887         21.8481 
        1.17811         106.351         21.5801 
        1.18424         105.816         21.3174 
        1.19038         105.519         21.0583 
        1.19652         104.709         20.8036 
        1.20267         103.833         20.5532 
        1.20881          103.19          20.307 
        1.21495         102.562         20.0652 
        1.22108         102.113         19.8274 
         1.2272         101.148          19.594 
        1.23334         100.776         19.3639 
        1.23949         100.131          19.137 
        1.24562         99.4998         18.9143 
        1.25174         98.9186         18.6955 
        1.25789         98.4303         18.4796 
        1.26402         97.5521         18.2674 
        1.27014          97.227         18.0591 
        1.27628         96.7892         17.8535 
        1.28244         96.2823         17.6506 
        1.28858         95.9242         17.4512 
        1.29471         94.9566         17.2554 
        1.30084         94.7682         17.0627 
        1.30697          93.916         16.8727 
        1.31312          93.523         16.6853 
        1.31925         92.8163         16.5014 
        1.32537         92.4592         16.3204 
        1.33151         91.6292         16.1415 
        1.33765          91.328         15.9654 
        1.34378         90.8694         15.7923 
        1.34992         90.5068         15.6216 
        1.35606         89.9323         15.4531 
         1.3622         89.1402         15.2874 
        1.36833         88.9228         15.1245 
        1.37445         88.3786         14.9641 
        1.38059         87.7315         14.8055 
        1.38675          87.205         14.6489 
        1.39288          86.974         14.4952 
        1.39901          86.514         14.3437 
        1.40515         85.9017         14.1941 
         1.4113         85.4191         14.0466 
        1.41742         85.1667         13.9018 
        1.42355         84.5264         13.7588 
         1.4297         84.2634         13.6174 
        1.43585         83.5926         13.4781 
        1.44198         83.1635         13.3412 
        1.44809         82.7607         13.2065 
        1.45423         82.3792         13.0732 
        1.46036         82.0761         12.9419 
        1.46649         81.3898         12.8124 
        1.47263         80.9028         12.6846 
        1.47877         80.7761         12.5586 
        1.48491         80.0366         12.4341 
        1.49104         79.8611         12.3116 
        1.49718         79.3488         12.1906 
        1.50333         78.9536         12.0711 
        1.50947         78.5692         11.9534 
         1.5156         78.1193         11.8375 
        1.52172         77.6777         11.7231 
        1.52787         77.3843           11.61 
          1.534         76.8103         11.4985 
        1.54013         76.3913         11.3886 
        1.54627         76.1969         11.2799 
        1.55241         75.5848         11.1727 
        1.55855         75.3603          11.067 
        1.56467         75.0726          10.963 
         1.5708         74.5393           10.86 
        1.57695         74.4474         10.7582 
        1.58308         73.6982         10.6579 
        1.58922          73.536         10.5588 
        1.59535         73.2438         10.4611 
         1.6015         72.6076         10.3644 
        1.60764         72.3742          10.269 
        1.61376         72.0655         10.1751 
        1.61989         71.6637         10.0823 
        1.62604         71.4121         9.99042 
        1.63218         71.0509         9.89975 
        1.63831         70.3032         9.81042 
        1.64444         70.1761         9.72216 
        1.65059         69.8469         9.63478 
        1.65673         69.3266         9.54857 
        1.66285         69.0636         9.46365 
        1.66898         68.7919         9.37974 
        1.67512         68.2795         9.29669 
        1.68127         68.1271         9.21458 
         1.6874         67.7178         9.13364 
        1.69353         67.3832         9.05372 
        1.69967         66.9603         8.97457 
        1.70581         66.8102          8.8964 
        1.71193         66.5361         8.81947 
        1.71806         66.0388         8.74328 
        1.72421         65.7078         8.66784 
        1.73035         65.4335         8.59338 
        1.73649         65.1605         8.51981 
        1.74262         64.7762         8.44716 
        1.74876         64.4936         8.37532 
        1.75489         64.0401         8.30445 
        1.76101         63.8965         8.23444 
        1.76715         63.3984         8.16513 
        1.77329         63.2024         8.09654 
        1.77943         62.7833         8.02871 
        1.78557         62.6376         7.96176 
        1.79171         62.1753         7.89556 
        1.79785          61.864          7.8301 
        1.80399          61.715          7.7654 
        1.81012         61.4532         7.70152 
        1.81625         61.0075         7.63839 
        1.82239         60.7708         7.57587 
        1.82853          60.485         7.51408 
        1.83466         60.2046         7.45305 
        1.84078         59.8759         7.39275 
        1.84692         59.5237         7.33303 
        1.85306         59.2593         7.27389 
         1.8592         58.9697          7.2155 
        1.86533         58.7057         7.15778 
        1.87147         58.2918         7.10063 
        1.87761         58.1474         7.04408 
        1.88375         57.8459         6.98821 
        1.88988         57.5696         6.93301 
        1.89601         57.2627         6.87837 
        1.90215         56.9543         6.82428 
        1.90829         56.7274          6.7708 
        1.91442         56.4871         6.71789 
        1.92056         56.1242         6.66559 
         1.9267         55.9403          6.6138 
        1.93284         55.5641         6.56252 
        1.93897         55.3443         6.51189 
        1.94509         55.1259          6.4619 
        1.95123         54.8089         6.41231 
        1.95737          54.559         6.36321 
        1.96349         54.1992         6.31475 
        1.96964          54.046         6.26665 
        1.97578         53.7871         6.21903 
        1.98192         53.5919         6.17201 
        1.98805         53.3383         6.12546 
        1.99419         52.9779          6.0794 
        2.00033         52.7934         6.03378 
        2.00647         52.5542         5.98865 
         2.0126         52.1352         5.94406 
        2.01874         51.9666         5.89985 
        2.02488         51.7993         5.85605 
        2.03101         51.5196         5.81278 
        2.03714         51.2595         5.76999 
        2.04328         51.0535         5.72758 
        2.04941         50.7916         5.68563 
        2.05554         50.5722         5.64414 
        2.06167         50.3289           5.603 
        2.06781         50.0333         5.56226 
        2.07396         49.8094         5.52188 
        2.08009         49.6568         5.48196 
        2.08622         49.3274         5.44249 
        2.09237         49.1058         5.40333 
        2.09851         48.9794         5.36455 
        2.10464         48.6883         5.32621 
        2.11077         48.3905         5.28829 
        2.11691         48.1679         5.25066 
        2.12305         48.0156          5.2134 
        2.12918         47.8188         5.17658 
        2.13531          47.474         5.14012 
        2.14145         47.2786         5.10393 
         2.1476         47.0468         5.06804 
        2.15372         46.8091         5.03268 
        2.15985         46.6574         4.99762 
        2.16599         46.4076         4.96279 
        2.17213         46.2483         4.92834 
        2.17827         45.9825         4.89422 
         2.1844         45.7306         4.86045 
        2.19054         45.5067         4.82699 
        2.19666         45.2593         4.79389 
         2.2028         45.1708         4.76108 
        2.20893         44.9385         4.72855 
        2.21508         44.7617         4.69629 
        2.22122         44.5486         4.66433 
        2.22736         44.3458         4.63273 
        2.23349         44.1302         4.60142 
        2.23962         43.8069          4.5704 
        2.24577         43.6199         4.53963 
         2.2519         43.4163         4.50918 
        2.25802         43.3578         4.47907 
        2.26417         43.0326         4.44915 
        2.27031         42.8606         4.41947 
        2.27644         42.7185         4.39015 
        2.28257          42.445          4.3611 
        2.28872         42.1916         4.33225 
        2.29486         42.1017         4.30368 
        2.30099          41.947         4.27542 
        2.30712          41.729          4.2474 
        2.31326          41.464         4.21958 
         2.3194         41.2248         4.19203 
        2.32553         41.0468         4.16477 
        2.33166         40.8763         4.13777 
         2.3378          40.679         4.11096 
        2.34394         40.5481         4.08439 
        2.35007         40.3005         4.05809 
        2.35619         40.0942         4.03206 
        2.36233          39.961         4.00619 
        2.36848         39.8141         3.98049 
        2.37462         39.5674         3.95507 
        2.38075         39.4696         3.92991 
        2.38689         39.2867         3.90493 
        2.39303         39.0588         3.88018 
        2.39916         38.8492         3.85567 
        2.40529         38.7175         3.83138 
        2.41143         38.5638         3.80728 
        2.41757         38.3395         3.78337 
         2.4237         38.2332         3.75971 
        2.42983         38.0282         3.73626 
        2.43598         37.8595         3.71294 
        2.44211         37.7033         3.68987 
        2.44823         37.5353         3.66704 
        2.45437         37.3136         3.64434 
        2.46052          37.104         3.62182 
        2.46665         36.9662         3.59952 
        2.47279         36.8189         3.57742 
        2.47892         36.6863         3.55549 
        2.48507         36.4816         3.53373 
         2.4912         36.3822         3.51219 
