# k  (h/Mpc)    P(k)  (Mpc/h)^3    P_linear(k)  (Mpc/h)^3
     0.00783031         444.639         449.764 
       0.013688         492.584         494.232 
       0.019231         452.378         452.339 
      0.0249154         378.142         378.798 
      0.0312784         297.664         296.832 
      0.0375637         235.641         234.528 
      0.0433917         196.753         196.247 
      0.0492413         173.282         172.757 
      0.0555754         157.128         157.312 
      0.0619321         145.782         145.299 
       0.067871         132.782         132.954 
      0.0738098         118.124         118.242 
      0.0800417         101.337         101.468 
      0.0862327         86.0404         85.8488 
      0.0921407         74.0348         73.7672 
      0.0982031         65.1133           64.97 
       0.104506         59.6965         59.3001 
       0.110769         56.2764         56.0114 
       0.116806         53.7533          53.711 
       0.122832         51.2987         51.1555 
       0.129052         47.6223         47.6363 
       0.135211         43.3356         43.3198 
       0.141259         38.9693         38.7974 
       0.147318         34.8913         34.6155 
       0.153489         31.3926         31.1778 
       0.159709         28.9181         28.7061 
       0.165845         27.4134         27.1061 
       0.171974          26.157         26.0249 
       0.178125         25.2599         25.0962 
       0.184229         24.2239         24.0447 
        0.19034         22.8008         22.7327 
       0.196428         21.3593         21.2053 
       0.202534          19.868         19.6029 
       0.208729         18.2915         18.0855 
       0.214876         16.9812         16.8176 
       0.220989         16.0637         15.8355 
       0.227147         15.2446         15.0922 
        0.23329         14.6537         14.5099 
       0.239377         14.1501         13.9906 
       0.245482         13.5471         13.4476 
       0.251667         13.0124         12.8371 
       0.257832         12.3241         12.1749 
       0.263955         11.6758         11.5023 
       0.270079         11.0376         10.8631 
        0.27624         10.5045         10.2905 
       0.282372         10.0249         9.80665 
        0.28843         9.58322          9.4062 
       0.294538         9.22889         9.05796 
       0.300721          8.9403         8.73489 
        0.30691         8.57745         8.41631 
       0.313033         8.25556          8.0938 
       0.319153         7.87648         7.76264 
       0.325316         7.61852         7.42978 
        0.33145         7.28833         7.11083 
       0.337538         6.99242         6.81728 
       0.343633         6.70408         6.55145 
       0.349808         6.48131         6.31014 
       0.355968          6.2631         6.09204 
       0.362074         6.04888         5.89031 
       0.368217         5.85409         5.69534 
       0.374374         5.64208         5.50289 
       0.380519         5.46798         5.31285 
       0.386598         5.29305         5.12828 
       0.392688         5.12765         4.94936 
        0.39888         4.94136         4.77674 
       0.405048         4.78195         4.61581 
       0.411186         4.63519         4.46646 
       0.417313         4.48386         4.32729 
       0.423458         4.35885         4.19538 
       0.429607         4.21948         4.06886 
       0.435692         4.09464         3.94777 
       0.441815         3.97612         3.82923 
       0.447964         3.87452         3.71333 
       0.454126         3.74423         3.60108 
       0.460267         3.64085          3.4938 
       0.466387         3.52695         3.39176 
        0.47254         3.43556         3.29409 
       0.478662         3.35011         3.20173 
       0.484765         3.24731         3.11384 
       0.490885         3.16586          3.0292 
       0.497035          3.1031         2.94705 
       0.503198          3.0092         2.86747 
       0.509342         2.93468         2.79071 
       0.515458         2.85547         2.71676 
       0.521598         2.78437         2.64506 
       0.527764         2.70402         2.57572 
       0.533884         2.65308         2.50963 
           0.54         2.58249         2.44619 
       0.546137         2.52237          2.3849 
       0.552299         2.46298         2.32555 
       0.558452         2.39552         2.26831 
       0.564573         2.34644         2.21324 
       0.570708         2.29025         2.15982 
       0.576825         2.23259         2.10824 
       0.582926         2.18791         2.05843 
       0.589034         2.12598         2.01014 
       0.595184         2.08276         1.96311 
       0.601379         2.03439         1.91734 
       0.607522         1.99712         1.87347 
       0.613639          1.9592         1.83121 
       0.619772         1.90504         1.79017 
       0.625918         1.87153         1.75031 
       0.632068         1.83672         1.71161 
       0.638161         1.79172         1.67441 
         0.6443         1.75417         1.63803 
       0.650464         1.71266         1.60261 
       0.656582         1.68489          1.5685 
       0.662703         1.64987          1.5354 
       0.668861         1.62186         1.50307 
       0.675024         1.58478         1.47167 
       0.681124         1.55002         1.44148 
       0.687237         1.52458         1.41209 
       0.693381         1.49514         1.38338 
       0.699536         1.45727         1.35541 
       0.705665         1.43186         1.32835 
       0.711789         1.40775         1.30205 
       0.717957          1.3779         1.27628 
        0.72409         1.35272         1.25136 
       0.730186         1.32625         1.22727 
       0.736317         1.31059         1.20368 
       0.742472         1.28499         1.18063 
       0.748622         1.25798         1.15821 
        0.75476         1.23349         1.13642 
       0.760888         1.21073         1.11523 
       0.767043         1.19618          1.0945 
       0.773185         1.16962         1.07434 
       0.779291         1.15148          1.0548 
       0.785407         1.13069         1.03573 
       0.791564         1.11349           1.017 
       0.797719         1.09584        0.998752 
       0.803834          1.0785        0.981067 
       0.809972          1.0589         0.96375 
       0.816124          1.0391        0.946815 
       0.822261         1.01934        0.930335 
       0.828378         1.00511        0.914298 
       0.834502        0.992182        0.898628 
       0.840667        0.970074        0.883225 
       0.846816        0.955184        0.868228 
       0.852925        0.944803        0.853675 
       0.859047         0.92905        0.839426 
       0.865192        0.912169        0.825456 
       0.871341        0.898936        0.811795 
       0.877463        0.887158        0.798507 
       0.883569         0.87048         0.78555 
       0.889708        0.857584        0.772816 
       0.895864        0.843823        0.760332 
       0.902008        0.830057        0.748151 
       0.908149        0.819085        0.736245 
       0.914301        0.802571        0.724579 
       0.920448        0.791971        0.713178 
       0.926574         0.77994        0.702063 
       0.932687        0.767985        0.691209 
       0.938823        0.760204        0.680547 
       0.944975        0.748557        0.670085 
       0.951105        0.738357        0.659883 
       0.957225        0.729851         0.64991 
       0.963368        0.718161        0.640111 
       0.969511        0.706598        0.630514 
       0.975621        0.695493        0.621167 
       0.981748        0.688621        0.611985 
       0.987916        0.677415        0.602932 
        0.99406        0.667059        0.594097 
        1.00019        0.660431        0.585456 
        1.00632        0.648666        0.576996 
        1.01246        0.640194        0.568691 
        1.01859        0.632697        0.560564 
        1.02471        0.623316        0.552606 
        1.03085        0.616997        0.544775 
        1.03698        0.607043        0.537113 
        1.04314        0.599933        0.529566 
        1.04929        0.591011        0.522182 
        1.05541        0.584729        0.514968 
        1.06154        0.575751        0.507873 
        1.06769        0.568354        0.500902 
        1.07382        0.561021        0.494084 
        1.07993        0.552736        0.487408 
        1.08607          0.5485        0.480829 
        1.09222        0.539813        0.474364 
        1.09836        0.535161        0.468027 
        1.10449          0.5283        0.461812 
        1.11063         0.51941        0.455704 
        1.11677        0.512592        0.449709 
         1.1229        0.507336        0.443831 
        1.12903         0.50079        0.438054 
        1.13518        0.495357        0.432375 
        1.14131        0.488432          0.4268 
        1.14745        0.480041        0.421327 
        1.15359        0.476365        0.415948 
        1.15973        0.469204        0.410662 
        1.16584        0.466243        0.405491 
        1.17197        0.460052        0.400402 
        1.17811        0.455353        0.395385 
        1.18424        0.450661        0.390468 
        1.19038          0.4439        0.385621 
        1.19652        0.437877        0.380859 
        1.20267        0.434805        0.376177 
        1.20881        0.428645        0.371575 
        1.21495        0.424841        0.367057 
        1.22108        0.419484        0.362615 
         1.2272        0.415686        0.358257 
        1.23334        0.410042        0.353961 
        1.23949         0.40559        0.349725 
        1.24562        0.401335        0.345571 
        1.25174        0.397254         0.34149 
        1.25789        0.393158        0.337463 
        1.26402        0.387541        0.333508 
        1.27014        0.383384        0.329627 
        1.27628        0.380768        0.325795 
        1.28244        0.374595        0.322017 
        1.28858        0.371339        0.318304 
        1.29471        0.368127        0.314658 
        1.30084        0.363247        0.311072 
        1.30697        0.359314        0.307537 
        1.31312        0.354336        0.304051 
        1.31925        0.351601        0.300631 
        1.32537         0.34838        0.297266 
        1.33151         0.34547        0.293941 
        1.33765        0.341381        0.290668 
        1.34378        0.336788        0.287452 
        1.34992        0.334092        0.284282 
        1.35606        0.330357        0.281154 
         1.3622        0.327138        0.278077 
        1.36833        0.323633        0.275055 
        1.37445        0.319423        0.272079 
        1.38059        0.316669        0.269137 
        1.38675        0.315128        0.266232 
        1.39288        0.311072        0.263382 
        1.39901        0.308061        0.260575 
        1.40515        0.305163        0.257802 
         1.4113        0.301416        0.255071 
        1.41742        0.298613         0.25239 
        1.42355        0.296985        0.249742 
         1.4297        0.292818        0.247124 
        1.43585        0.290049        0.244545 
        1.44198        0.288515        0.242013 
        1.44809        0.284743        0.239521 
        1.45423        0.282141        0.237055 
        1.46036        0.279505        0.234628 
        1.46649        0.277151        0.232235 
        1.47263        0.274204        0.229873 
        1.47877        0.271275        0.227544 
        1.48491        0.269036        0.225245 
        1.49104        0.265812        0.222982 
        1.49718        0.263703        0.220748 
        1.50333        0.261583        0.218542 
        1.50947         0.25905         0.21637 
         1.5156        0.256361         0.21423 
        1.52172        0.254276         0.21212 
        1.52787        0.251711        0.210034 
          1.534        0.249452        0.207978 
        1.54013          0.2469        0.205952 
        1.54627        0.245061        0.203949 
        1.55241        0.242544        0.201973 
        1.55855        0.240199        0.200025 
        1.56467        0.239095        0.198109 
         1.5708          0.2362        0.196212 
        1.57695        0.234432        0.194338 
        1.58308        0.232217        0.192492 
        1.58922        0.230296        0.190668 
        1.59535        0.228075        0.188869 
         1.6015        0.225965        0.187091 
        1.60764        0.224314        0.185336 
        1.61376         0.22183        0.183609 
        1.61989        0.220318        0.181902 
        1.62604        0.218334        0.180214 
        1.63218        0.216793        0.178547 
        1.63831        0.214912        0.176906 
        1.64444        0.212931        0.175284 
        1.65059         0.21117        0.173679 
        1.65673        0.209275        0.172096 
        1.66285         0.20784        0.170537 
        1.66898        0.206263        0.168997 
        1.67512        0.203851        0.167472 
        1.68127         0.20215        0.165966 
         1.6874        0.201207        0.164481 
        1.69353         0.19902        0.163015 
        1.69967        0.197572        0.161563 
        1.70581        0.195722         0.16013 
        1.71193        0.194298        0.158719 
        1.71806        0.192535        0.157323 
        1.72421        0.191112         0.15594 
        1.73035        0.189268        0.154576 
        1.73649        0.188184        0.153228 
        1.74262        0.186499        0.151898 
        1.74876        0.184797        0.150582 
        1.75489         0.18357        0.149285 
        1.76101        0.181945        0.148003 
        1.76715        0.180481        0.146734 
        1.77329        0.179052        0.145479 
        1.77943        0.177378        0.144238 
        1.78557        0.176388        0.143013 
        1.79171        0.175076        0.141802 
        1.79785        0.173561        0.140605 
        1.80399         0.17224        0.139422 
        1.81012        0.170975        0.138255 
        1.81625        0.169623        0.137101 
        1.82239        0.168471        0.135958 
        1.82853         0.16673        0.134829 
        1.83466        0.165595        0.133714 
        1.84078        0.164292        0.132613 
        1.84692        0.162992        0.131522 
        1.85306        0.162206        0.130443 
         1.8592        0.160597        0.129377 
        1.86533        0.159782        0.128323 
        1.87147        0.158401         0.12728 
        1.87761        0.157336        0.126249 
        1.88375        0.155865        0.125229 
        1.88988        0.154899        0.124222 
        1.89601        0.153487        0.123226 
        1.90215        0.152689         0.12224 
        1.90829        0.151283        0.121265 
        1.91442        0.150453          0.1203 
        1.92056        0.149195        0.119347 
         1.9267        0.148075        0.118403 
        1.93284        0.146937        0.117469 
        1.93897        0.145836        0.116547 
        1.94509        0.145117        0.115636 
        1.95123        0.143857        0.114733 
        1.95737        0.143028        0.113839 
        1.96349        0.141749        0.112957 
        1.96964        0.140796        0.112082 
        1.97578         0.13974        0.111215 
        1.98192        0.138805        0.110359 
        1.98805        0.138066        0.109512 
        1.99419        0.136908        0.108674 
        2.00033        0.135861        0.107845 
        2.00647        0.135282        0.107024 
         2.0126        0.133963        0.106213 
        2.01874        0.133212        0.105409 
        2.02488        0.132312        0.104613 
        2.03101        0.131325        0.103827 
        2.03714        0.130242        0.103049 
        2.04328        0.129648        0.102279 
        2.04941        0.128614        0.101517 
        2.05554        0.127836        0.100763 
        2.06167        0.127106        0.100016 
        2.06781        0.125751        0.099276 
        2.07396        0.125112       0.0985427 
        2.08009        0.124305       0.0978181 
        2.08622        0.123547       0.0971015 
        2.09237        0.122802       0.0963908 
        2.09851        0.121914        0.095687 
        2.10464        0.121032       0.0949914 
        2.11077        0.120335       0.0943035 
        2.11691        0.119468        0.093621 
        2.12305        0.118669       0.0929451 
        2.12918        0.118038       0.0922775 
        2.13531        0.117017       0.0916165 
        2.14145        0.116317       0.0909603 
         2.1476        0.115664       0.0903098 
        2.15372         0.11508       0.0896689 
        2.15985        0.114044       0.0890336 
        2.16599        0.113195       0.0884026 
        2.17213        0.112722       0.0877784 
        2.17827        0.111927       0.0871603 
         2.1844         0.11139       0.0865488 
        2.19054        0.110463       0.0859429 
        2.19666        0.109538       0.0853436 
         2.2028        0.109208       0.0847495 
        2.20893        0.108624       0.0841607 
        2.21508        0.107605       0.0835769 
        2.22122        0.106791       0.0829984 
        2.22736        0.106473       0.0824266 
        2.23349        0.105616       0.0818603 
        2.23962        0.105221        0.081299 
        2.24577        0.104303       0.0807425 
         2.2519        0.103848        0.080192 
        2.25802        0.103033       0.0796474 
        2.26417        0.102482       0.0791064 
        2.27031        0.101808       0.0785699 
        2.27644        0.101229       0.0780399 
        2.28257        0.100601       0.0775149 
        2.28872       0.0999281       0.0769937 
        2.29486       0.0994383       0.0764773 
        2.30099       0.0987086       0.0759668 
        2.30712       0.0981616       0.0754606 
        2.31326       0.0974593       0.0749582 
         2.3194       0.0973201       0.0744607 
        2.32553       0.0966332       0.0739685 
        2.33166       0.0961128       0.0734809 
         2.3378        0.095458       0.0729971 
        2.34394       0.0946402       0.0725174 
        2.35007       0.0941528       0.0720427 
        2.35619       0.0935571       0.0715729 
        2.36233       0.0929526       0.0711061 
        2.36848       0.0925892       0.0706425 
        2.37462       0.0918963        0.070184 
        2.38075       0.0915828         0.06973 
        2.38689       0.0909079       0.0692796 
        2.39303       0.0906278       0.0688333 
        2.39916       0.0897293       0.0683914 
        2.40529       0.0893685       0.0679534 
        2.41143        0.088889       0.0675189 
        2.41757       0.0883472       0.0670879 
         2.4237       0.0879717       0.0666616 
        2.42983       0.0873288        0.066239 
        2.43598       0.0870379       0.0658189 
        2.44211       0.0864084       0.0654031 
        2.44823       0.0860376       0.0649919 
        2.45437       0.0853226        0.064583 
        2.46052       0.0849724       0.0641773 
        2.46665       0.0843699       0.0637759 
        2.47279       0.0839828       0.0633779 
        2.47892       0.0834377       0.0629831 
        2.48507        0.082912       0.0625913 
         2.4912       0.0825665       0.0622036 
