# k  (h/Mpc)    P(k)  (Mpc/h)^3    P_linear(k)  (Mpc/h)^3
     0.00783031         603.794         610.993 
       0.013688         669.209         671.304 
       0.019231         614.422         614.366 
      0.0249154         513.293         514.467 
      0.0312784         404.158         403.137 
      0.0375637         320.033         318.516 
      0.0433917         267.117         266.524 
      0.0492413         235.308         234.621 
      0.0555754         213.262         213.645 
      0.0619321         198.044          197.33 
       0.067871         180.263         180.564 
      0.0738098         160.365         160.583 
      0.0800417          137.55         137.802 
      0.0862327         116.837          116.59 
      0.0921407         100.568         100.182 
      0.0982031         88.4221         88.2345 
       0.104506         81.1361         80.5342 
       0.110769         76.4744         76.0679 
       0.116806         73.0137         72.9437 
       0.122832         69.7031         69.4731 
       0.129052         64.6761         64.6938 
       0.135211          58.863         58.8316 
       0.141259          52.966         52.6898 
       0.147318         47.4472         47.0104 
       0.153489         42.6845         42.3418 
       0.159709         39.3311         38.9851 
       0.165845         37.3065         36.8121 
       0.171974         35.5717         35.3437 
       0.178125         34.3609         34.0826 
       0.184229         32.9538         32.6545 
        0.19034         30.9941         30.8726 
       0.196428         29.0604         28.7984 
       0.202534         27.0576         26.6222 
       0.208729         24.9085         24.5614 
       0.214876         23.1218         22.8395 
       0.220989          21.889         21.5058 
       0.227147         20.7622         20.4963 
        0.23329         19.9581         19.7056 
       0.239377         19.2816         19.0003 
       0.245482         18.4422         18.2628 
       0.251667         17.7347         17.4337 
       0.257832         16.8003         16.5344 
       0.263955         15.9216          15.621 
       0.270079         15.0551         14.7529 
        0.27624         14.3429         13.9753 
       0.282372         13.6934         13.3181 
        0.28843         13.0862         12.7743 
       0.294538         12.6008         12.3014 
       0.300721         12.2166         11.8626 
        0.30691         11.7149           11.43 
       0.313033         11.2779          10.992 
       0.319153         10.7529         10.5422 
       0.325316         10.4165         10.0902 
        0.33145          9.9653         9.65703 
       0.337538         9.56614         9.25837 
       0.343633         9.16999         8.89734 
       0.349808         8.87098         8.56963 
       0.355968         8.57394         8.27344 
       0.362074         8.28139         7.99947 
       0.368217         8.01632         7.73469 
       0.374374         7.72588         7.47333 
       0.380519         7.49212         7.21523 
       0.386598         7.25535         6.96457 
       0.392688         7.03342         6.72158 
        0.39888         6.77827         6.48716 
       0.405048         6.56308          6.2686 
       0.411186         6.36426         6.06578 
       0.417313          6.1554         5.87677 
       0.423458         5.98502         5.69764 
       0.429607         5.79529          5.5258 
       0.435692         5.62319         5.36136 
       0.441815         5.46309         5.20038 
       0.447964         5.32777         5.04298 
       0.454126         5.14617         4.89052 
       0.460267         5.00834         4.74484 
       0.466387         4.84968         4.60626 
        0.47254         4.72859         4.47361 
       0.478662         4.61493         4.34818 
       0.484765         4.47079         4.22882 
       0.490885          4.3596         4.11387 
       0.497035         4.27839         4.00231 
       0.503198         4.14844         3.89424 
       0.509342         4.04537         3.78999 
       0.515458         3.93761         3.68956 
       0.521598         3.84227         3.59218 
       0.527764         3.73168         3.49802 
       0.533884         3.66358         3.40826 
           0.54         3.56679          3.3221 
       0.546137         3.48531         3.23887 
       0.552299         3.40532         3.15826 
       0.558452            3.31         3.08052 
       0.564573         3.24518         3.00573 
       0.570708         3.16845         2.93319 
       0.576825         3.08817         2.86315 
       0.582926         3.02692         2.79549 
       0.589034         2.94099         2.72991 
       0.595184         2.88367         2.66605 
       0.601379          2.8159         2.60388 
       0.607522         2.76719         2.54431 
       0.613639         2.71647         2.48691 
       0.619772         2.63993         2.43118 
       0.625918         2.59731         2.37705 
       0.632068         2.55039         2.32449 
       0.638161         2.48657         2.27397 
         0.6443         2.43464         2.22457 
       0.650464         2.37751         2.17646 
       0.656582         2.34199         2.13014 
       0.662703         2.29373         2.08518 
       0.668861         2.25437         2.04128 
       0.675024         2.20384         1.99863 
       0.681124          2.1564         1.95764 
       0.687237         2.12165         1.91772 
       0.693381          2.0816         1.87873 
       0.699536         2.02751         1.84075 
       0.705665         1.99381         1.80399 
       0.711789         1.96026         1.76827 
       0.717957         1.91943         1.73328 
        0.72409         1.88471         1.69944 
       0.730186          1.8492         1.66671 
       0.736317         1.82831         1.63468 
       0.742472         1.79382         1.60338 
       0.748622           1.756         1.57293 
        0.75476         1.72177         1.54335 
       0.760888         1.69071         1.51457 
       0.767043         1.67048         1.48641 
       0.773185         1.63353         1.45903 
       0.779291         1.61007          1.4325 
       0.785407         1.58068         1.40659 
       0.791564         1.55748         1.38116 
       0.797719         1.53291         1.35638 
       0.803834         1.51031         1.33236 
       0.809972         1.48372         1.30884 
       0.816124         1.45544         1.28584 
       0.822261         1.42731         1.26346 
       0.828378         1.40818         1.24168 
       0.834502         1.39161          1.2204 
       0.840667         1.35975         1.19948 
       0.846816         1.33914         1.17912 
       0.852925         1.32569         1.15935 
       0.859047         1.30382            1.14 
       0.865192         1.28104         1.12103 
       0.871341         1.26371         1.10248 
       0.877463         1.24679         1.08443 
       0.883569         1.22284         1.06683 
       0.889708         1.20518         1.04954 
       0.895864           1.186         1.03259 
       0.902008         1.16712         1.01604 
       0.908149          1.1525        0.999873 
       0.914301         1.12934        0.984031 
       0.920448         1.11487        0.968547 
       0.926574         1.09788        0.953452 
       0.932687         1.08164        0.938712 
       0.938823         1.07094        0.924231 
       0.944975         1.05488        0.910024 
       0.951105         1.04084        0.896168 
       0.957225         1.02997        0.882625 
       0.963368         1.01359        0.869317 
       0.969511        0.997133        0.856284 
       0.975621        0.981763        0.843589 
       0.981748        0.972237         0.83112 
       0.987916        0.956674        0.818825 
        0.99406        0.941742        0.806826 
        1.00019        0.933091        0.795092 
        1.00632        0.917153        0.783603 
        1.01246        0.905617        0.772324 
        1.01859        0.894626        0.761286 
        1.02471        0.881505        0.750478 
        1.03085        0.872513        0.739844 
        1.03698        0.859104        0.729438 
        1.04314        0.849262        0.719189 
        1.04929        0.837198         0.70916 
        1.05541        0.828233        0.699364 
        1.06154        0.815904        0.689729 
        1.06769        0.806313         0.68026 
        1.07382        0.795452        0.671001 
        1.07993        0.783733        0.661935 
        1.08607        0.778357           0.653 
        1.09222        0.766037        0.644221 
        1.09836        0.759783        0.635614 
        1.10449        0.750158        0.627174 
        1.11063        0.737524        0.618879 
        1.11677        0.728404        0.610737 
         1.1229        0.721034        0.602755 
        1.12903        0.711755        0.594909 
        1.13518        0.704422        0.587197 
        1.14131        0.694437        0.579625 
        1.14745        0.682594        0.572192 
        1.15359        0.677752        0.564888 
        1.15973         0.66741        0.557708 
        1.16584         0.66391        0.550686 
        1.17197         0.65502        0.543774 
        1.17811        0.648683        0.536961 
        1.18424        0.642128        0.530284 
        1.19038        0.632461        0.523701 
        1.19652        0.624327        0.517233 
        1.20267        0.619984        0.510875 
        1.20881        0.611082        0.504625 
        1.21495        0.605938        0.498489 
        1.22108        0.598668        0.492457 
         1.2272        0.593764        0.486539 
        1.23334        0.585381        0.480705 
        1.23949        0.579079        0.474952 
        1.24562        0.573461         0.46931 
        1.25174        0.567657        0.463768 
        1.25789        0.561618        0.458299 
        1.26402        0.553812        0.452928 
        1.27014        0.548184        0.447657 
        1.27628        0.544758        0.442453 
        1.28244        0.536205        0.437322 
        1.28858        0.531507         0.43228 
        1.29471        0.526511        0.427328 
        1.30084        0.519828        0.422458 
        1.30697        0.514524        0.417657 
        1.31312        0.507574        0.412923 
        1.31925        0.503858        0.408278 
        1.32537        0.499184        0.403708 
        1.33151        0.494949        0.399192 
        1.33765        0.489129        0.394748 
        1.34378        0.482862         0.39038 
        1.34992        0.479324        0.386076 
        1.35606        0.473718        0.381827 
         1.3622        0.469637        0.377649 
        1.36833        0.464548        0.373544 
        1.37445         0.45838        0.369502 
        1.38059        0.454705        0.365508 
        1.38675        0.452868        0.361563 
        1.39288        0.446725        0.357692 
        1.39901        0.442513        0.353879 
        1.40515        0.438651        0.350114 
         1.4113        0.433431        0.346405 
        1.41742        0.429452        0.342763 
        1.42355        0.427209        0.339167 
         1.4297        0.421281        0.335612 
        1.43585         0.41747         0.33211 
        1.44198        0.415465         0.32867 
        1.44809        0.409837        0.325286 
        1.45423        0.406353        0.321938 
        1.46036        0.402587        0.318642 
        1.46649        0.399011        0.315391 
        1.47263        0.394914        0.312183 
        1.47877        0.391022        0.309022 
        1.48491        0.387696        0.305899 
        1.49104        0.383342        0.302825 
        1.49718        0.380766        0.299792 
        1.50333         0.37701        0.296795 
        1.50947        0.373887        0.293845 
         1.5156        0.370107         0.29094 
        1.52172        0.366905        0.288074 
        1.52787        0.363189        0.285241 
          1.534         0.36037        0.282449 
        1.54013        0.356683        0.279698 
        1.54627        0.353759        0.276978 
        1.55241        0.350259        0.274294 
        1.55855        0.347193        0.271649 
        1.56467        0.345583        0.269046 
         1.5708        0.341361         0.26647 
        1.57695        0.339228        0.263924 
        1.58308        0.336001        0.261417 
        1.58922        0.333025        0.258941 
        1.59535        0.330022        0.256498 
         1.6015        0.327162        0.254083 
        1.60764        0.324809          0.2517 
        1.61376         0.32136        0.249354 
        1.61989         0.31917        0.247037 
        1.62604        0.316144        0.244743 
        1.63218        0.314189         0.24248 
        1.63831        0.311347        0.240251 
        1.64444        0.308466        0.238049 
        1.65059        0.306057        0.235869 
        1.65673        0.303199        0.233719 
        1.66285        0.301131        0.231601 
        1.66898        0.299399         0.22951 
        1.67512        0.295706         0.22744 
        1.68127        0.293178        0.225393 
         1.6874        0.292012        0.223376 
        1.69353        0.288898        0.221386 
        1.69967        0.286576        0.219414 
        1.70581        0.284395        0.217468 
        1.71193        0.282164        0.215552 
        1.71806        0.279836        0.213656 
        1.72421        0.277693        0.211778 
        1.73035           0.275        0.209925 
        1.73649        0.273596        0.208095 
        1.74262        0.271306        0.206288 
        1.74876        0.268883        0.204501 
        1.75489        0.266737        0.202739 
        1.76101         0.26469        0.200999 
        1.76715        0.262566        0.199276 
        1.77329        0.260729        0.197571 
        1.77943        0.258253        0.195886 
        1.78557        0.256634        0.194222 
        1.79171         0.25489        0.192578 
        1.79785        0.252684        0.190952 
        1.80399        0.250901        0.189346 
        1.81012        0.249091         0.18776 
        1.81625        0.247196        0.186193 
        1.82239        0.245612        0.184641 
        1.82853        0.242928        0.183108 
        1.83466        0.241466        0.181594 
        1.84078        0.239325        0.180098 
        1.84692        0.237845        0.178617 
        1.85306        0.236635        0.177151 
         1.8592        0.234584        0.175703 
        1.86533        0.233204        0.174272 
        1.87147        0.231202        0.172856 
        1.87761        0.229641        0.171455 
        1.88375        0.227509         0.17007 
        1.88988        0.226269        0.168703 
        1.89601        0.224195         0.16735 
        1.90215        0.222986         0.16601 
        1.90829        0.221095        0.164686 
        1.91442        0.219728        0.163376 
        1.92056        0.218159        0.162082 
         1.9267        0.216373          0.1608 
        1.93284        0.214939        0.159532 
        1.93897        0.213299        0.158279 
        1.94509        0.212235        0.157043 
        1.95123        0.210329        0.155816 
        1.95737        0.209229        0.154602 
        1.96349        0.207353        0.153404 
        1.96964        0.206153        0.152215 
        1.97578        0.204495        0.151038 
        1.98192        0.203288        0.149876 
        1.98805        0.202062        0.148726 
        1.99419         0.20048        0.147588 
        2.00033        0.199274        0.146461 
        2.00647        0.197978        0.145346 
         2.0126        0.196305        0.144245 
        2.01874        0.195204        0.143154 
        2.02488        0.194101        0.142072 
        2.03101        0.192404        0.141004 
        2.03714        0.190898        0.139948 
        2.04328        0.190164        0.138902 
        2.04941        0.188768        0.137867 
        2.05554        0.187444        0.136843 
        2.06167        0.186322        0.135828 
        2.06781        0.184495        0.134824 
        2.07396        0.183453        0.133828 
        2.08009        0.182319        0.132844 
        2.08622        0.181209        0.131871 
        2.09237        0.180342        0.130906 
        2.09851        0.179044         0.12995 
        2.10464         0.17781        0.129005 
        2.11077        0.176835        0.128071 
        2.11691        0.175415        0.127144 
        2.12305        0.174285        0.126226 
        2.12918        0.173396         0.12532 
        2.13531        0.172011        0.124422 
        2.14145        0.171139        0.123531 
         2.1476        0.170035        0.122647 
        2.15372        0.169234        0.121777 
        2.15985         0.16771        0.120914 
        2.16599        0.166503        0.120057 
        2.17213        0.165822        0.119209 
        2.17827        0.164798         0.11837 
         2.1844        0.163946        0.117539 
        2.19054        0.162629        0.116717 
        2.19666        0.161381        0.115903 
         2.2028        0.160847        0.115096 
        2.20893        0.159887        0.114296 
        2.21508        0.158571        0.113503 
        2.22122        0.157263        0.112718 
        2.22736        0.156736        0.111941 
        2.23349        0.155703        0.111172 
        2.23962         0.15504         0.11041 
        2.24577        0.153577        0.109654 
         2.2519        0.153007        0.108906 
        2.25802         0.15191        0.108167 
        2.26417        0.151169        0.107432 
        2.27031        0.150048        0.106704 
        2.27644        0.149301        0.105984 
        2.28257        0.148396        0.105271 
        2.28872         0.14743        0.104563 
        2.29486        0.146669        0.103862 
        2.30099        0.145663        0.103168 
        2.30712        0.144956        0.102481 
        2.31326        0.143886        0.101799 
         2.3194        0.143689        0.101123 
        2.32553        0.142655        0.100455 
        2.33166        0.141939       0.0997924 
         2.3378        0.141003       0.0991353 
        2.34394        0.139692       0.0984839 
        2.35007        0.139115       0.0978392 
        2.35619        0.138381       0.0972011 
        2.36233        0.137268       0.0965672 
        2.36848        0.136698       0.0959376 
        2.37462        0.135784       0.0953149 
        2.38075        0.135452       0.0946984 
        2.38689        0.134385       0.0940867 
        2.39303        0.133919       0.0934806 
        2.39916        0.132698       0.0928804 
        2.40529        0.132151       0.0922856 
        2.41143         0.13147       0.0916955 
        2.41757        0.130735       0.0911103 
         2.4237        0.130048       0.0905312 
        2.42983        0.129226       0.0899573 
        2.43598        0.128775       0.0893867 
        2.44211        0.127983       0.0888221 
        2.44823        0.127362       0.0882636 
        2.45437        0.126249       0.0877084 
        2.46052        0.125827       0.0871574 
        2.46665        0.124943       0.0866122 
        2.47279        0.124377       0.0860718 
        2.47892        0.123659       0.0855356 
        2.48507        0.122927       0.0850035 
         2.4912         0.12241       0.0844769 
