# k  (h/Mpc)    Pcb(k)  (Mpc/h)^3    Pcb_linear(k)  (Mpc/h)^3
     0.00783031         3409.99         3430.85 
       0.013688         4300.26         4363.87 
       0.019231         4506.43         4539.38 
      0.0249154         4319.15         4315.56 
      0.0312784         3835.01         3849.55 
      0.0375637         3334.25         3358.68 
      0.0433917         2968.02         2968.98 
      0.0492413         2654.03         2668.71 
      0.0555754         2436.42         2434.85 
      0.0619321         2222.73         2261.65 
       0.067871         2105.61         2121.36 
      0.0738098         1967.53         1977.58 
      0.0800417         1808.28         1812.03 
      0.0862327         1627.28         1636.74 
      0.0921407         1465.73            1472 
      0.0982031         1324.53         1319.69 
       0.104506         1183.36          1189.7 
       0.110769         1089.81         1092.05 
       0.116806         1034.56         1023.62 
       0.122832         973.036         972.332 
       0.129052         931.707         927.355 
       0.135211         893.776         882.324 
       0.141259         837.314         832.963 
       0.147318         775.377          777.99 
       0.153489         723.843         719.349 
       0.159709         676.447         662.327 
       0.165845          616.37         612.395 
       0.171974           591.1         571.247 
       0.178125         560.432         538.947 
       0.184229         526.982          514.18 
        0.19034         513.127         493.957 
       0.196428         495.002         475.478 
       0.202534         466.459          456.34 
       0.208729         453.657         435.127 
       0.214876         434.511         412.387 
       0.220989         404.125         389.145 
       0.227147         391.337         366.548 
        0.23329         373.513         346.095 
       0.239377         360.454         328.623 
       0.245482         342.241         313.974 
       0.251667         327.838          301.57 
       0.257832         323.137          290.81 
       0.263955         306.672         280.823 
       0.270079         296.208         270.818 
        0.27624         283.669         260.383 
       0.282372         274.956         249.625 
        0.28843         271.161         238.907 
       0.294538         258.094         228.425 
       0.300721         246.911         218.529 
        0.30691         242.146         209.597 
       0.313033         232.023         201.755 
       0.319153         227.842         194.796 
       0.325316         219.819         188.422 
        0.33145         213.481         182.453 
       0.337538         206.949         176.666 
       0.343633         200.869          170.89 
       0.349808         194.725         165.025 
       0.355968         189.589         159.227 
       0.362074         185.592         153.642 
       0.368217         181.222         148.295 
       0.374374         176.981         143.294 
       0.380519         169.482         138.676 
       0.386598          165.82         134.456 
       0.392688         161.396         130.508 
        0.39888         158.352         126.698 
       0.405048         154.999          123.04 
       0.411186         152.103          119.48 
       0.417313          148.29         115.989 
       0.423458         144.514         112.562 
       0.429607         141.821         109.228 
       0.435692         139.379         106.055 
       0.441815         135.135         103.012 
       0.447964         131.307         100.115 
       0.454126         128.927         97.3677 
       0.460267         127.919         94.7697 
       0.466387           124.9         92.2942 
        0.47254         123.454         89.8939 
       0.478662         119.314         87.5793 
       0.484765         117.516         85.3347 
       0.490885         114.772          83.142 
       0.497035         113.911          81.001 
       0.503198         111.191          78.928 
       0.509342         108.445         76.9379 
       0.515458         107.243         75.0339 
       0.521598         104.678         73.1989 
       0.527764         103.504         71.4307 
       0.533884         102.509         69.7419 
           0.54         99.9272         68.1113 
       0.546137         97.4622         66.5252 
       0.552299         96.0716         64.9792 
       0.558452         94.2941          63.481 
       0.564573         93.9143         62.0333 
       0.570708         91.1644         60.6249 
       0.576825         90.2628          59.264 
       0.582926         89.1912         57.9508 
       0.589034         87.6694         56.6801 
       0.595184         86.5746         55.4431 
       0.601379         84.3809         54.2371 
       0.607522         83.2322         53.0779 
       0.613639         82.4385         51.9574 
       0.619772          81.017         50.8663 
       0.625918         79.9576          49.804 
       0.632068         78.9668         48.7708 
       0.638161         77.5392         47.7754 
         0.6443          76.912         46.8003 
       0.650464         75.3114         45.8491 
       0.656582         74.9799         44.9317 
       0.662703         74.0733         44.0404 
       0.668861         72.3695         43.1694 
       0.675024         72.1145         42.3223 
       0.681124         71.1514          41.507 
       0.687237         69.7258         40.7118 
       0.693381         69.1238         39.9335 
       0.699536         68.5117          39.174 
       0.705665         67.3844         38.4375 
       0.711789         66.4581         37.7206 
       0.717957          65.535         37.0172 
        0.72409         64.9777         36.3361 
       0.730186         64.5935         35.6767 
       0.736317         63.4215         35.0305 
       0.742472         62.7307         34.3982 
       0.748622         61.8327         33.7824 
        0.75476         60.9283         33.1831 
       0.760888         60.8084         32.5994 
       0.767043         59.7061         32.0276 
       0.773185         59.1535         31.4707 
       0.779291         58.4388         30.9304 
       0.785407         57.6081         30.4022 
       0.791564         57.6254         29.8831 
       0.797719         56.7236         29.3765 
       0.803834         56.2203         28.8851 
       0.809972         55.5415         28.4034 
       0.816124         55.0085         27.9317 
       0.822261         54.3545         27.4722 
       0.828378         54.0666         27.0245 
       0.834502         53.4087         26.5865 
       0.840667         53.0071         26.1556 
       0.846816         52.1679         25.7354 
       0.852925         51.9346         25.3273 
       0.859047         51.6442         24.9272 
       0.865192         50.8253         24.5345 
       0.871341         50.2732         24.1501 
       0.877463         49.9129         23.7758 
       0.883569         49.7133         23.4104 
       0.889708         49.1606         23.0509 
       0.895864         48.6267         22.6982 
       0.902008         48.1377         22.3536 
       0.908149         47.7584         22.0164 
       0.914301         47.4386         21.6857 
       0.920448         47.0166         21.3622 
       0.926574         46.3167         21.0465 
       0.932687         46.0355         20.7379 
       0.938823         45.5492         20.4345 
       0.944975         45.1692         20.1364 
       0.951105          44.818         19.8455 
       0.957225         44.5938         19.5609 
       0.963368         44.0963         19.2809 
       0.969511         43.7314         19.0065 
       0.975621         43.3915         18.7389 
       0.981748         42.9359         18.4759 
       0.987916         42.6847         18.2163 
        0.99406         42.2322         17.9627 
        1.00019         41.9726         17.7145 
        1.00632         41.6568         17.4712 
        1.01246         41.3309         17.2323 
        1.01859         40.9641         16.9982 
        1.02471         40.5896         16.7688 
        1.03085          40.464         16.5429 
        1.03698           40.15         16.3216 
        1.04314         39.8252         16.1035 
        1.04929         39.3998           15.89 
        1.05541         39.2609         15.6812 
        1.06154          39.042         15.4757 
        1.06769         38.4971         15.2736 
        1.07382         38.3359         15.0758 
        1.07993         37.9991          14.882 
        1.08607         37.7626         14.6908 
        1.09222         37.5206         14.5028 
        1.09836         37.1821         14.3184 
        1.10449         37.0258         14.1374 
        1.11063         36.7091         13.9593 
        1.11677          36.673         13.7844 
         1.1229         36.2795         13.6128 
        1.12903         36.0451         13.4441 
        1.13518          35.896          13.278 
        1.14131         35.5817         13.1149 
        1.14745         35.1922         12.9546 
        1.15359         34.9295         12.7971 
        1.15973         34.7489          12.642 
        1.16584          34.527         12.4903 
        1.17197         34.1505         12.3409 
        1.17811         34.0357         12.1934 
        1.18424         33.6768         12.0488 
        1.19038         33.5869         11.9062 
        1.19652          33.344         11.7659 
        1.20267         33.1821          11.628 
        1.20881         32.9411         11.4923 
        1.21495         32.7452         11.3589 
        1.22108         32.6716         11.2278 
         1.2272         32.4352          11.099 
        1.23334         32.2197          10.972 
        1.23949         31.9786         10.8466 
        1.24562         31.6754         10.7236 
        1.25174         31.5687         10.6028 
        1.25789         31.4575         10.4834 
        1.26402         31.2673         10.3661 
        1.27014         31.0643         10.2508 
        1.27628         30.7738          10.137 
        1.28244         30.7632         10.0248 
        1.28858         30.4544         9.91435 
        1.29471         30.2772         9.80586 
        1.30084         30.0699         9.69911 
        1.30697         29.9479          9.5938 
        1.31312         29.7061         9.48991 
        1.31925         29.5343          9.3879 
        1.32537         29.3512          9.2875 
        1.33151          29.177         9.18822 
        1.33765         29.1274         9.09046 
        1.34378         28.9389         8.99432 
        1.34992         28.7788         8.89951 
        1.35606         28.5772         8.80587 
         1.3622         28.3611         8.71376 
        1.36833         28.2723         8.62319 
        1.37445         28.1079         8.53396 
        1.38059         27.9525         8.44572 
        1.38675         27.7365         8.35853 
        1.39288         27.6093         8.27293 
        1.39901         27.4594         8.18858 
        1.40515         27.3536         8.10521 
         1.4113         27.2408         8.02305 
        1.41742         27.0978         7.94235 
        1.42355         26.8788         7.86261 
         1.4297         26.7291         7.78374 
        1.43585         26.5901         7.70598 
        1.44198         26.5049          7.6296 
        1.44809         26.3549          7.5544 
        1.45423         26.2114         7.47994 
        1.46036         26.0815         7.40662 
        1.46649         25.9304         7.33427 
        1.47263         25.8029         7.26283 
        1.47877         25.7155         7.19239 
        1.48491         25.5689         7.12277 
        1.49104         25.4032         7.05423 
        1.49718         25.3058         6.98655 
        1.50333         25.2143         6.91965 
        1.50947         25.0753         6.85377 
         1.5156         24.9226         6.78885 
        1.52172         24.7647         6.72478 
        1.52787          24.665         6.66141 
          1.534         24.5845         6.59894 
        1.54013         24.4851         6.53734 
        1.54627         24.2884         6.47642 
        1.55241         24.1743         6.41627 
        1.55855         24.0744         6.35697 
        1.56467         24.0347         6.29859 
         1.5708         23.8928         6.24078 
        1.57695         23.7576         6.18362 
        1.58308         23.5717          6.1273 
        1.58922         23.4834         6.07166 
        1.59535         23.3837         6.01672 
         1.6015          23.247          5.9624 
        1.60764          23.178         5.90878 
        1.61376         23.1082         5.85596 
        1.61989         22.9252         5.80376 
        1.62604         22.8583         5.75208 
        1.63218         22.7476         5.70106 
        1.63831         22.6168         5.65078 
        1.64444          22.526         5.60109 
        1.65059         22.4211         5.55189 
        1.65673         22.3542         5.50333 
        1.66285         22.1948          5.4555 
        1.66898         22.1489         5.40821 
        1.67512         22.0801          5.3614 
        1.68127         21.9388         5.31511 
         1.6874         21.8659         5.26946 
        1.69353         21.6965         5.22439 
        1.69967         21.6211         5.17973 
        1.70581         21.5538         5.13562 
        1.71193         21.3817          5.0922 
        1.71806         21.3517         5.04918 
        1.72421         21.2759         5.00658 
        1.73035         21.1341         4.96452 
        1.73649         21.0606         4.92296 
        1.74262         20.9362         4.88191 
        1.74876         20.8653          4.8413 
        1.75489         20.8063         4.80124 
        1.76101         20.6814         4.76165 
        1.76715         20.6067         4.72246 
        1.77329         20.5075         4.68365 
        1.77943         20.4082         4.64527 
        1.78557         20.3522         4.60738 
        1.79171         20.2232         4.56991 
        1.79785         20.1685         4.53285 
        1.80399         20.0601         4.49621 
        1.81012         20.0141         4.46002 
        1.81625         19.8802         4.42425 
        1.82239         19.8017         4.38882 
        1.82853           19.73          4.3538 
        1.83466         19.6152          4.3192 
        1.84078         19.5816         4.28501 
        1.84692          19.543         4.25114 
        1.85306         19.4293         4.21759 
         1.8592         19.3471         4.18446 
        1.86533         19.1937         4.15171 
        1.87147         19.1482         4.11927 
        1.87761         19.0687         4.08717 
        1.88375         19.0374         4.05545 
        1.88988         18.8812          4.0241 
        1.89601         18.8486         3.99307 
        1.90215          18.737         3.96234 
        1.90829         18.6616         3.93195 
        1.91442         18.5351         3.90187 
        1.92056         18.5624         3.87215 
         1.9267         18.4635          3.8427 
        1.93284         18.4431         3.81354 
        1.93897         18.3212         3.78474 
        1.94509         18.2471          3.7563 
        1.95123         18.1429         3.72808 
        1.95737         18.1149         3.70013 
        1.96349         17.9983         3.67255 
        1.96964         17.9767         3.64516 
        1.97578         17.9008         3.61805 
        1.98192         17.8128         3.59126 
        1.98805         17.7081         3.56475 
        1.99419         17.6715          3.5385 
        2.00033         17.6119         3.51251 
        2.00647         17.5237         3.48678 
         2.0126         17.4708         3.46136 
        2.01874         17.3698         3.43615 
        2.02488         17.2888         3.41118 
        2.03101         17.2432          3.3865 
        2.03714          17.172         3.36209 
        2.04328         17.0955         3.33789 
        2.04941         17.0096         3.31395 
        2.05554         17.0051         3.29026 
        2.06167         16.9355         3.26678 
        2.06781         16.8482         3.24352 
        2.07396         16.8465         3.22045 
        2.08009         16.7047         3.19765 
        2.08622         16.6652          3.1751 
        2.09237         16.6183         3.15272 
        2.09851          16.506         3.13055 
        2.10464         16.4827         3.10864 
        2.11077         16.4016         3.08696 
        2.11691          16.365         3.06544 
        2.12305         16.2854         3.04413 
        2.12918         16.1748         3.02307 
        2.13531         16.1645         3.00221 
        2.14145         16.0765          2.9815 
         2.1476         15.9985         2.96096 
        2.15372         15.9874         2.94072 
        2.15985         15.9236         2.92065 
        2.16599         15.8561         2.90071 
        2.17213         15.8327         2.88098 
        2.17827         15.7231         2.86144 
         2.1844         15.6713         2.84209 
        2.19054         15.6506         2.82292 
        2.19666          15.576         2.80396 
         2.2028         15.5229         2.78515 
        2.20893         15.4306         2.76651 
        2.21508         15.3973         2.74801 
        2.22122         15.3124         2.72968 
        2.22736          15.296         2.71156 
        2.23349         15.2382         2.69361 
        2.23962         15.1952         2.67581 
        2.24577         15.1319         2.65815 
         2.2519         15.0644         2.64068 
        2.25802         14.9591          2.6234 
        2.26417         14.9855         2.60622 
        2.27031         14.9184         2.58918 
        2.27644         14.8841         2.57234 
        2.28257         14.7702         2.55566 
        2.28872         14.7701         2.53909 
        2.29486         14.7069         2.52268 
        2.30099         14.6485         2.50644 
        2.30712         14.5503         2.49034 
        2.31326         14.5058         2.47435 
         2.3194         14.4799         2.45851 
        2.32553         14.4094         2.44284 
        2.33166         14.3609         2.42732 
         2.3378         14.3172         2.41191 
        2.34394         14.2657         2.39662 
        2.35007         14.2173         2.38149 
        2.35619         14.1551         2.36652 
        2.36233          14.081         2.35163 
        2.36848          14.049         2.33684 
        2.37462         13.9999         2.32222 
        2.38075         13.9656         2.30773 
        2.38689         13.9261         2.29335 
        2.39303         13.8399          2.2791 
        2.39916         13.8333         2.26498 
        2.40529         13.7843         2.25099 
        2.41143         13.7137         2.23711 
        2.41757         13.6493         2.22333 
         2.4237         13.6286          2.2097 
        2.42983         13.5738         2.19618 
        2.43598         13.5329         2.18274 
        2.44211         13.4674         2.16944 
        2.44823         13.4366         2.15628 
        2.45437         13.3959         2.14319 
        2.46052         13.3652          2.1302 
        2.46665         13.3132         2.11734 
        2.47279         13.2439         2.10459 
        2.47892         13.1905         2.09194 
        2.48507         13.1651         2.07938 
         2.4912         13.1299         2.06695 
