# k  (h/Mpc)    P(k)  (Mpc/h)^3    P_linear(k)  (Mpc/h)^3
     0.00783031         11587.4         11674.9 
       0.013688         14977.1         15389.3 
       0.019231         16231.2         16511.5 
      0.0249154           16133         16192.5 
      0.0312784         14679.4         14925.6 
      0.0375637           13046         13383.8 
      0.0433917         11867.2         12049.5 
      0.0492413         10671.6         10947.8 
      0.0555754         9839.58         10038.2 
      0.0619321         8872.56         9346.61 
       0.067871         8468.39         8802.48 
      0.0738098         8009.74         8273.75 
      0.0800417         7436.87         7683.53 
      0.0862327         6790.95         7054.29 
      0.0921407         6223.01         6441.93 
      0.0982031         5724.93          5845.4 
       0.104506         5138.25         5301.87 
       0.110769         4746.35         4863.17 
       0.116806         4523.04         4536.26 
       0.122832         4236.11         4286.27 
       0.129052          4026.1         4079.27 
       0.135211         3916.67         3894.47 
       0.141259         3668.75         3709.06 
       0.147318         3427.36         3507.62 
       0.153489         3259.16         3286.97 
       0.159709          3135.1         3059.55 
       0.165845         2865.24         2844.94 
       0.171974          2784.8          2653.2 
       0.178125         2686.39         2490.85 
       0.184229         2476.75          2360.2 
        0.19034         2440.08         2254.81 
       0.196428         2374.44         2166.65 
       0.202534         2243.67         2085.86 
       0.208729         2204.38         2003.88 
       0.214876         2120.95         1918.09 
       0.220989         2018.88         1827.86 
       0.227147         1970.01          1734.7 
        0.23329         1896.29         1643.78 
       0.239377         1881.25          1559.9 
       0.245482         1794.89         1484.87 
       0.251667         1729.21         1419.15 
       0.257832         1705.42         1363.01 
       0.263955         1632.36         1314.31 
       0.270079         1595.43         1269.74 
        0.27624         1530.65         1226.51 
       0.282372         1515.23          1183.3 
        0.28843         1492.93         1139.75 
       0.294538         1427.06         1095.35 
       0.300721         1400.53         1050.95 
        0.30691         1370.19         1008.35 
       0.313033         1320.41         969.079 
       0.319153         1306.71         933.302 
       0.325316         1291.46         900.734 
        0.33145         1267.12         871.335 
       0.337538         1227.63         844.324 
       0.343633         1200.24         818.666 
       0.349808         1179.35         793.371 
       0.355968         1157.12         768.455 
       0.362074          1125.6         743.965 
       0.368217         1122.46         719.718 
       0.374374         1105.96         696.124 
       0.380519         1069.49         673.597 
       0.386598         1065.06         652.579 
       0.392688         1040.58         632.854 
        0.39888          1018.7          614.11 
       0.405048         1002.24         596.578 
       0.411186         997.908         579.998 
       0.417313         996.724         564.087 
       0.423458         965.592         548.595 
       0.429607         939.976          533.44 
       0.435692         933.603         518.802 
       0.441815         916.844         504.461 
       0.447964         907.292          490.53 
       0.454126         895.071         477.126 
       0.460267         884.739         464.372 
       0.466387         872.529         452.249 
        0.47254          856.47         440.628 
       0.478662         846.924         429.572 
       0.484765          839.83         418.969 
       0.490885         829.816         408.687 
       0.497035         816.489         398.667 
       0.503198         815.476         388.911 
       0.509342         800.877          379.45 
       0.515458         785.567         370.311 
       0.521598         782.942         361.432 
       0.527764         765.928         352.826 
       0.533884         760.177          344.59 
           0.54         753.776         336.658 
       0.546137         744.219         328.989 
       0.552299         740.175         321.556 
       0.558452         732.562         314.376 
       0.564573         725.534         307.446 
       0.570708         720.038         300.701 
       0.576825         705.689         294.169 
       0.582926         703.857         287.839 
       0.589034           695.5          281.68 
       0.595184         688.282          275.66 
       0.601379         677.958          269.78 
       0.607522         669.267         264.131 
       0.613639         668.329          258.68 
       0.619772         663.695         253.379 
       0.625918         653.812         248.223 
       0.632068         649.567          243.21 
       0.638161         641.683         238.381 
         0.6443         636.291         233.649 
       0.650464         631.379         229.028 
       0.656582         626.588         224.564 
       0.662703         619.103         220.216 
       0.668861          613.27          215.96 
       0.675024         609.106         211.814 
       0.681124         600.417         207.822 
       0.687237         599.613         203.929 
       0.693381         590.398         200.121 
       0.699536         589.039         196.408 
       0.705665         583.067         192.806 
       0.711789         581.561           189.3 
       0.717957         573.221         185.857 
        0.72409         568.546         182.518 
       0.730186         568.367         179.283 
       0.736317         560.401         176.109 
       0.742472         553.974         173.002 
       0.748622         551.433         169.974 
        0.75476         546.374         167.026 
       0.760888         543.419         164.155 
       0.767043         540.823         161.341 
       0.773185         537.455           158.6 
       0.779291         530.515         155.939 
       0.785407         527.474         153.337 
       0.791564           523.6         150.779 
       0.797719         516.606         148.281 
       0.803834         518.364         145.856 
       0.809972         511.131         143.477 
       0.816124         506.969         141.148 
       0.822261         503.736         138.877 
       0.828378         501.442         136.664 
       0.834502         494.037         134.498 
       0.840667         493.883         132.366 
       0.846816         487.969         130.287 
       0.852925         487.456         128.266 
       0.859047         483.147         126.284 
       0.865192         480.586         124.339 
       0.871341         474.452         122.434 
       0.877463         472.486         120.578 
       0.883569          468.09         118.765 
       0.889708         463.952         116.981 
       0.895864         460.436          115.23 
       0.902008         459.102         113.518 
       0.908149         455.443         111.843 
       0.914301         453.556         110.199 
       0.920448          448.71          108.59 
       0.926574         446.804          107.02 
       0.932687         444.762         105.484 
       0.938823         439.432         103.973 
       0.944975         437.609         102.489 
       0.951105         434.654         101.039 
       0.957225         428.439         99.6204 
       0.963368         429.725         98.2245 
       0.969511         422.473         96.8557 
       0.975621         422.905         95.5207 
       0.981748         419.807         94.2077 
       0.987916         417.248         92.9115 
        0.99406         413.638         91.6449 
        1.00019         409.505         90.4047 
        1.00632         409.335          89.189 
        1.01246         406.112         87.9941 
        1.01859         401.755         86.8233 
        1.02471         399.647         85.6756 
        1.03085         398.301          84.545 
        1.03698         395.682         83.4375 
        1.04314          393.83         82.3453 
        1.04929         391.269         81.2756 
        1.05541         386.023         80.2294 
        1.06154         385.444         79.1993 
        1.06769         381.614          78.186 
        1.07382         380.219          77.194 
        1.07993         377.838         76.2217 
        1.08607         375.348         75.2624 
        1.09222         372.627         74.3188 
        1.09836         370.825         73.3927 
        1.10449         368.288         72.4836 
        1.11063         365.358         71.5892 
        1.11677         361.873         70.7103 
         1.1229         361.273         69.8478 
        1.12903         358.594         68.9992 
        1.13518         356.098         68.1641 
        1.14131         355.155         67.3434 
        1.14745         350.394         66.5368 
        1.15359         348.325         65.7435 
        1.15973         347.242         64.9629 
        1.16584         345.457         64.1986 
        1.17197         342.716         63.4457 
        1.17811         339.487         62.7027 
        1.18424         338.054         61.9738 
        1.19038         336.232         61.2546 
        1.19652         332.798         60.5471 
        1.20267         332.337          59.851 
        1.20881         330.263          59.166 
        1.21495         327.705          58.493 
        1.22108         326.042         57.8306 
         1.2272         321.796         57.1802 
        1.23334         321.042         56.5384 
        1.23949         319.489         55.9051 
        1.24562         318.265         55.2833 
        1.25174         315.323          54.672 
        1.25789         313.019         54.0682 
        1.26402         312.322         53.4748 
        1.27014          310.68         52.8917 
        1.27628         307.468         52.3158 
        1.28244         306.121         51.7474 
        1.28858         304.315         51.1883 
        1.29471         302.852         50.6388 
        1.30084         301.334          50.098 
        1.30697          298.22         49.5644 
        1.31312         296.307         49.0378 
        1.31925         295.147         48.5207 
        1.32537         293.662         48.0116 
        1.33151         291.127         47.5081 
        1.33765         289.309         47.0122 
        1.34378         287.369         46.5244 
        1.34992         285.163         46.0433 
        1.35606         284.121          45.568 
         1.3622         282.554         45.1003 
        1.36833         280.884         44.6404 
        1.37445         279.609         44.1872 
        1.38059         276.933          43.739 
        1.38675         275.481          43.296 
        1.39288         274.526         42.8609 
        1.39901         271.948          42.432 
        1.40515         270.781         42.0081 
         1.4113         268.737         41.5902 
        1.41742         266.304         41.1796 
        1.42355          266.84         40.7739 
         1.4297         264.197         40.3725 
        1.43585          261.88         39.9766 
        1.44198         260.639         39.5877 
        1.44809         259.568         39.2047 
        1.45423          257.89         38.8254 
        1.46036         256.379         38.4519 
        1.46649         255.234         38.0831 
        1.47263          252.97          37.719 
        1.47877         251.621         37.3599 
        1.48491         249.662         37.0049 
        1.49104         248.132         36.6553 
        1.49718         246.937           36.31 
        1.50333          244.82         35.9686 
        1.50947         244.213         35.6324 
         1.5156         242.472          35.301 
        1.52172         240.876         34.9739 
        1.52787         239.399         34.6503 
          1.534         238.876         34.3312 
        1.54013         236.894         34.0165 
        1.54627         235.756         33.7053 
        1.55241         234.104         33.3979 
        1.55855           233.2         33.0948 
        1.56467         231.432         32.7964 
         1.5708         230.085         32.5008 
        1.57695         228.837         32.2084 
        1.58308         227.427         31.9204 
        1.58922          225.95         31.6357 
        1.59535         224.132         31.3547 
         1.6015         223.308         31.0767 
        1.60764         222.004         30.8022 
        1.61376          220.01         30.5318 
        1.61989         218.701         30.2645 
        1.62604         217.414         29.9998 
        1.63218         216.402         29.7384 
        1.63831         215.857         29.4809 
        1.64444         213.864         29.2263 
        1.65059         213.108         28.9741 
        1.65673         211.261         28.7252 
        1.66285         210.389         28.4799 
        1.66898          209.22         28.2375 
        1.67512          207.71         27.9974 
        1.68127         206.732           27.76 
         1.6874         205.411         27.5258 
        1.69353         204.373         27.2945 
        1.69967         202.879         27.0653 
        1.70581         202.118         26.8389 
        1.71193         200.558          26.616 
        1.71806          199.36         26.3951 
        1.72421         198.445         26.1763 
        1.73035         196.853         25.9603 
        1.73649         195.635         25.7468 
        1.74262         194.823         25.5358 
        1.74876         193.822         25.3271 
        1.75489         192.806         25.1212 
        1.76101         191.437         24.9177 
        1.76715         190.266         24.7161 
        1.77329         188.911         24.5166 
        1.77943         187.828         24.3192 
        1.78557         187.211         24.1242 
        1.79171         186.199         23.9314 
        1.79785         185.031         23.7407 
        1.80399         183.763         23.5521 
        1.81012         182.659         23.3659 
        1.81625         181.651         23.1817 
        1.82239         180.381         22.9993 
        1.82853         179.822          22.819 
        1.83466         178.282         22.6407 
        1.84078         177.628         22.4646 
        1.84692         176.549         22.2901 
        1.85306         175.259         22.1172 
         1.8592         174.722         21.9465 
        1.86533         172.995         21.7777 
        1.87147         172.386         21.6105 
        1.87761         171.404         21.4449 
        1.88375         170.004         21.2813 
        1.88988         169.516         21.1196 
        1.89601         169.091         20.9596 
        1.90215         167.828          20.801 
        1.90829         166.432         20.6442 
        1.91442         165.726          20.489 
        1.92056          164.46         20.3356 
         1.9267         163.906         20.1836 
        1.93284         162.797          20.033 
        1.93897         161.782         19.8843 
        1.94509         160.919         19.7374 
        1.95123         160.086         19.5917 
        1.95737         159.353         19.4473 
        1.96349         158.225         19.3048 
        1.96964         157.483         19.1633 
        1.97578         156.397         19.0232 
        1.98192         155.561         18.8848 
        1.98805         154.789         18.7477 
        1.99419         153.509          18.612 
        2.00033         153.082         18.4776 
        2.00647         152.146         18.3445 
         2.0126         151.246          18.213 
        2.01874         150.349         18.0826 
        2.02488         149.668         17.9534 
        2.03101         149.083         17.8257 
        2.03714         147.901         17.6993 
        2.04328         146.968         17.5741 
        2.04941         146.711         17.4502 
        2.05554         145.814         17.3275 
        2.06167         144.678         17.2059 
        2.06781         143.853         17.0855 
        2.07396         143.149          16.966 
        2.08009         142.523         16.8479 
        2.08622         141.355         16.7311 
        2.09237         140.465         16.6151 
        2.09851         140.105         16.5002 
        2.10464         139.218         16.3867 
        2.11077         138.443         16.2743 
        2.11691         137.809         16.1628 
        2.12305          137.05         16.0522 
        2.12918         136.048         15.9431 
        2.13531         135.328         15.8349 
        2.14145         134.656         15.7275 
         2.1476         133.831         15.6209 
        2.15372         133.174         15.5159 
        2.15985         132.254         15.4117 
        2.16599         131.606         15.3083 
        2.17213          130.98         15.2059 
        2.17827         130.184         15.1044 
         2.1844         129.642          15.004 
        2.19054         128.612         14.9045 
        2.19666             128          14.806 
         2.2028         127.449         14.7083 
        2.20893         126.933         14.6115 
        2.21508         125.616         14.5154 
        2.22122          125.25         14.4202 
        2.22736         124.673          14.326 
        2.23349         124.058         14.2327 
        2.23962         123.344         14.1402 
        2.24577         122.739         14.0484 
         2.2519         121.747         13.9576 
        2.25802          121.32         13.8678 
        2.26417         120.475         13.7785 
        2.27031         119.908         13.6899 
        2.27644         119.459         13.6023 
        2.28257          118.85         13.5155 
        2.28872         118.095         13.4293 
        2.29486         117.579         13.3439 
        2.30099         116.713         13.2594 
        2.30712         116.314         13.1756 
        2.31326         115.579         13.0924 
         2.3194         115.026           13.01 
        2.32553         114.197         12.9284 
        2.33166         114.009         12.8476 
         2.3378         113.227         12.7673 
        2.34394         112.321         12.6878 
        2.35007         111.763          12.609 
        2.35619         111.204         12.5309 
        2.36233         110.738         12.4534 
        2.36848         109.943         12.3764 
        2.37462         109.611         12.3001 
        2.38075         109.027         12.2246 
        2.38689         108.465         12.1497 
        2.39303         107.807         12.0754 
        2.39916         107.416         12.0019 
        2.40529         106.801         11.9289 
        2.41143         106.065         11.8565 
        2.41757         105.387         11.7847 
         2.4237          105.03         11.7136 
        2.42983         104.295         11.6431 
        2.43598         104.048          11.573 
        2.44211         103.404         11.5036 
        2.44823         102.712         11.4349 
        2.45437          102.32         11.3666 
        2.46052         101.628         11.2989 
        2.46665         101.153         11.2317 
        2.47279         100.695         11.1652 
        2.47892         100.152         11.0991 
        2.48507         99.7755         11.0336 
         2.4912         99.0503         10.9687 
