# k  (h/Mpc)    Pcb(k)  (Mpc/h)^3    Pcb_linear(k)  (Mpc/h)^3
     0.00783031          2179.5         2203.49 
       0.013688         2485.76         2486.59 
       0.019231          2320.2         2317.89 
      0.0249154         1952.67         1963.46 
      0.0312784         1541.77         1540.27 
      0.0375637         1208.15         1201.55 
      0.0433917         986.213         985.415 
      0.0492413         854.574         851.391 
      0.0555754         766.123         769.655 
      0.0619321         723.771         718.954 
       0.067871         671.044         673.797 
      0.0738098         614.174         616.658 
      0.0800417         538.953         542.298 
      0.0862327         462.963         462.756 
      0.0921407         395.206         392.935 
      0.0982031         337.024         335.891 
       0.104506           300.1         295.376 
       0.110769         275.781         271.898 
       0.116806         261.745         259.941 
       0.122832          254.83         252.332 
       0.129052         243.487          243.25 
       0.135211          229.83         229.483 
       0.141259         212.908         210.943 
       0.147318         192.655         189.525 
       0.153489         170.793         168.085 
       0.159709         153.223         149.778 
       0.165845         141.089         136.438 
       0.171974         131.024         127.765 
       0.178125         126.129         122.599 
       0.184229         122.638         119.284 
        0.19034          117.71          116.06 
       0.196428          114.31         111.705 
       0.202534         109.364         105.736 
       0.208729         101.514         98.3906 
       0.214876         93.5601         90.6805 
       0.220989         87.2508         83.5324 
       0.227147         80.8084         77.5363 
        0.23329         76.2996         73.0169 
       0.239377          73.464         69.8368 
       0.245482         70.0658         67.5303 
       0.251667          68.847         65.5682 
       0.257832         66.6134         63.5098 
       0.263955         64.1334         61.0771 
       0.270079         61.2204         58.2184 
        0.27624         58.6918         55.0696 
       0.282372         55.7239         51.9298 
        0.28843         52.5864         49.0733 
       0.294538         50.0583         46.6022 
       0.300721         48.4692         44.5692 
        0.30691         46.3309         42.9317 
       0.313033         44.9333         41.5716 
       0.319153         43.0564         40.3083 
       0.325316         42.3659         39.0107 
        0.33145          40.719         37.6219 
       0.337538         39.4031         36.1531 
       0.343633         37.7188         34.6395 
       0.349808            36.4         33.1425 
       0.355968         35.0935          31.755 
       0.362074         33.7876         30.5247 
       0.368217         32.6665         29.4441 
       0.374374         31.5996         28.4891 
       0.380519         30.8096         27.6255 
       0.386598         29.9887          26.812 
       0.392688         29.2956         26.0017 
        0.39888         28.3399         25.1687 
       0.405048         27.5332         24.3267 
       0.411186         26.7428         23.4946 
       0.417313          25.817         22.6916 
       0.423458          25.058         21.9303 
       0.429607         24.3224         21.2249 
       0.435692         23.5351         20.5846 
       0.441815         23.0226         19.9875 
       0.447964         22.5793         19.4239 
       0.454126         21.7174         18.8833 
       0.460267         21.3104         18.3565 
       0.466387         20.6327         17.8377 
        0.47254         20.2372         17.3242 
       0.478662         19.8431          16.825 
       0.484765          19.167          16.343 
       0.490885         18.7024         15.8806 
       0.497035         18.4444         15.4409 
       0.503198         17.9025         15.0248 
       0.509342         17.4352         14.6308 
       0.515458         17.0353         14.2559 
       0.521598         16.6961         13.8936 
       0.527764         16.2856         13.5409 
       0.533884         16.0149         13.1991 
           0.54         15.6094         12.8653 
       0.546137         15.3278         12.5396 
       0.552299         15.0319         12.2234 
       0.558452         14.5627         11.9196 
       0.564573         14.3248          11.629 
       0.570708         14.0445          11.349 
       0.576825         13.6869         11.0808 
       0.582926         13.4069         10.8232 
       0.589034         13.0564         10.5742 
       0.595184         12.8643         10.3309 
       0.601379          12.571         10.0926 
       0.607522         12.3586         9.86252 
       0.613639         12.1893         9.63982 
       0.619772         11.8511         9.42333 
       0.625918          11.758          9.2134 
       0.632068         11.5609          9.0103 
       0.638161         11.2742         8.81562 
         0.6443         11.0417         8.62559 
       0.650464         10.8138         8.44063 
       0.656582         10.7286         8.26247 
       0.662703         10.5178         8.08937 
       0.668861         10.3076         7.92022 
       0.675024         10.1037         7.75574 
       0.681124         9.92567         7.59753 
       0.687237         9.76127         7.44336 
       0.693381         9.63427         7.29271 
       0.699536         9.36576         7.14595 
       0.705665         9.28386         7.00388 
       0.711789         9.09624         6.86585 
       0.717957         8.94362         6.73068 
        0.72409         8.79295         6.59999 
       0.730186         8.66852         6.47362 
       0.736317         8.56409         6.34993 
       0.742472         8.41995         6.22906 
       0.748622         8.29224         6.11147 
        0.75476         8.13098         5.99717 
       0.760888          8.0042         5.88595 
       0.767043         7.89626         5.77712 
       0.773185         7.74236         5.67126 
       0.779291         7.68111         5.56867 
       0.785407         7.56665         5.46847 
       0.791564         7.44283         5.37012 
       0.797719          7.2836         5.27426 
       0.803834         7.25159         5.18136 
       0.809972         7.16381         5.09038 
       0.816124         7.01144         5.00141 
       0.822261         6.89584         4.91481 
       0.828378         6.81209         4.83054 
       0.834502         6.75692         4.74819 
       0.840667         6.62879         4.66724 
       0.846816         6.50753         4.58842 
       0.852925         6.44726         4.51192 
       0.859047         6.36098         4.43701 
       0.865192         6.30194         4.36357 
       0.871341         6.22897         4.29175 
       0.877463         6.12429         4.22188 
       0.883569         6.02632         4.15374 
       0.889708         5.92669         4.08677 
       0.895864         5.85552          4.0211 
       0.902008         5.80306         3.95702 
       0.908149         5.74031         3.89438 
       0.914301         5.66284         3.83299 
       0.920448         5.57512         3.77299 
       0.926574         5.50215         3.71449 
       0.932687         5.43574         3.65736 
       0.938823         5.36606         3.60123 
       0.944975         5.29913         3.54615 
       0.951105         5.23737         3.49243 
       0.957225         5.20939         3.43992 
       0.963368         5.14111         3.38831 
       0.969511         5.07161         3.33776 
       0.975621         5.00794         3.28853 
       0.981748         4.94784         3.24016 
       0.987916         4.90487         3.19247 
        0.99406         4.81852         3.14592 
        1.00019         4.75316          3.1004 
        1.00632         4.73088         3.05582 
        1.01246         4.67243         3.01205 
        1.01859         4.60077         2.96922 
        1.02471          4.5644         2.92728 
        1.03085         4.50754           2.886 
        1.03698         4.44517         2.84562 
        1.04314         4.41053         2.80583 
        1.04929         4.35769         2.76691 
        1.05541         4.30432         2.72888 
        1.06154         4.26581         2.69147 
        1.06769         4.24439         2.65471 
        1.07382         4.17127         2.61876 
        1.07993         4.12385         2.58356 
        1.08607         4.10004         2.54887 
        1.09222         4.05001         2.51477 
        1.09836         4.00366         2.48135 
        1.10449         3.96864         2.44856 
        1.11063         3.91654         2.41634 
        1.11677         3.89169         2.38471 
         1.1229         3.85711          2.3537 
        1.12903         3.80451         2.32321 
        1.13518         3.76277         2.29325 
        1.14131         3.72349         2.26382 
        1.14745         3.67786         2.23493 
        1.15359         3.65517         2.20655 
        1.15973         3.60966         2.17864 
        1.16584         3.57075         2.15134 
        1.17197         3.53771         2.12447 
        1.17811         3.52035         2.09798 
        1.18424         3.47911         2.07202 
        1.19038            3.46         2.04643 
        1.19652         3.41648         2.02127 
        1.20267         3.38192         1.99655 
        1.20881         3.36275         1.97224 
        1.21495         3.32652         1.94837 
        1.22108         3.29137         1.92491 
         1.2272          3.2666         1.90188 
        1.23334         3.22644         1.87919 
        1.23949         3.19388         1.85681 
        1.24562         3.17528         1.83485 
        1.25174         3.14144         1.81329 
        1.25789         3.11786         1.79201 
        1.26402         3.09256         1.77111 
        1.27014         3.06388         1.75059 
        1.27628         3.03615         1.73034 
        1.28244         2.99933         1.71037 
        1.28858         2.98974         1.69074 
        1.29471         2.94945         1.67146 
        1.30084         2.92042         1.65251 
        1.30697         2.91747         1.63382 
        1.31312         2.86643         1.61539 
        1.31925         2.84544         1.59731 
        1.32537         2.82129         1.57952 
        1.33151         2.81116         1.56194 
        1.33765         2.77347         1.54463 
        1.34378         2.75869         1.52763 
        1.34992         2.73885         1.51086 
        1.35606         2.70072         1.49432 
         1.3622         2.69046         1.47805 
        1.36833         2.66309         1.46206 
        1.37445         2.64178         1.44631 
        1.38059         2.63402         1.43075 
        1.38675         2.61122         1.41538 
        1.39288         2.58977          1.4003 
        1.39901          2.5567         1.38544 
        1.40515         2.54052         1.37077 
         1.4113         2.52336         1.35632 
        1.41742         2.50226         1.34212 
        1.42355         2.48111         1.32811 
         1.4297          2.4634         1.31425 
        1.43585         2.44878          1.3006 
        1.44198         2.43329         1.28719 
        1.44809         2.40885           1.274 
        1.45423         2.38911         1.26095 
        1.46036         2.36609          1.2481 
        1.46649         2.35389         1.23542 
        1.47263         2.33188         1.22292 
        1.47877         2.31414         1.21059 
        1.48491         2.29772         1.19841 
        1.49104         2.28289         1.18642 
        1.49718         2.26584         1.17459 
        1.50333         2.25119         1.16291 
        1.50947         2.23011          1.1514 
         1.5156         2.21509         1.14007 
        1.52172          2.1996          1.1289 
        1.52787         2.18419         1.11784 
          1.534          2.1642         1.10696 
        1.54013          2.1522         1.09622 
        1.54627         2.13515         1.08561 
        1.55241         2.11747         1.07514 
        1.55855         2.10623         1.06482 
        1.56467         2.09302         1.05467 
         1.5708          2.0761         1.04462 
        1.57695         2.06032         1.03468 
        1.58308         2.04126          1.0249 
        1.58922         2.03506         1.01524 
        1.59535         2.02046          1.0057 
         1.6015         2.00245        0.996275 
        1.60764           1.991        0.986975 
        1.61376         1.97936        0.977818 
        1.61989          1.9631        0.968771 
        1.62604         1.94943        0.959817 
        1.63218         1.94439        0.950983 
        1.63831          1.9232         0.94228 
        1.64444         1.91296        0.933682 
        1.65059         1.89681        0.925172 
        1.65673         1.88926        0.916777 
        1.66285         1.87264         0.90851 
        1.66898          1.8631        0.900342 
        1.67512         1.84736        0.892258 
        1.68127         1.83597        0.884266 
         1.6874         1.83019         0.87639 
        1.69353         1.80762        0.868615 
        1.69967         1.80024        0.860915 
        1.70581         1.79252        0.853312 
        1.71193         1.77675         0.84583 
        1.71806         1.76926        0.838421 
        1.72421          1.7567        0.831087 
        1.73035         1.74659        0.823849 
        1.73649         1.73475        0.816698 
        1.74262         1.72248        0.809638 
        1.74876         1.71578        0.802657 
        1.75489          1.7001        0.795773 
        1.76101         1.68818        0.788971 
        1.76715          1.6829        0.782239 
        1.77329         1.67317        0.775578 
        1.77943         1.65649        0.768992 
        1.78557         1.64753        0.762491 
        1.79171         1.64273        0.756065 
        1.79785          1.6286        0.749711 
        1.80399         1.62036        0.743432 
        1.81012         1.60969        0.737233 
        1.81625         1.60237        0.731107 
        1.82239         1.59078        0.725042 
        1.82853         1.57772        0.719048 
        1.83466         1.57142        0.713128 
        1.84078         1.56452        0.707281 
        1.84692         1.55598         0.70149 
        1.85306         1.54307        0.695756 
         1.8592         1.53267        0.690096 
        1.86533         1.52496        0.684501 
        1.87147         1.51778        0.678963 
        1.87761         1.50769        0.673483 
        1.88375         1.49899         0.66807 
        1.88988         1.49265        0.662722 
        1.89601         1.48087         0.65743 
        1.90215         1.46923        0.652192 
        1.90829          1.4616        0.647013 
        1.91442         1.45736        0.641889 
        1.92056         1.44656        0.636826 
         1.9267         1.43799        0.631813 
        1.93284         1.43425         0.62685 
        1.93897         1.42479         0.62195 
        1.94509         1.41618        0.617113 
        1.95123         1.40706        0.612315 
        1.95737         1.39755        0.607564 
        1.96349         1.39323        0.602876 
        1.96964         1.38683        0.598224 
        1.97578         1.37379        0.593619 
        1.98192         1.36897        0.589072 
        1.98805         1.36162        0.584571 
        1.99419         1.35618        0.580118 
        2.00033         1.34942        0.575709 
        2.00647         1.33959        0.571346 
         2.0126         1.33552        0.567037 
        2.01874         1.32344        0.562765 
        2.02488         1.31907        0.558533 
        2.03101         1.30922        0.554353 
        2.03714         1.30363         0.55022 
        2.04328         1.29683        0.546123 
        2.04941         1.28737        0.542072 
        2.05554          1.2826        0.538065 
        2.06167         1.27623        0.534093 
        2.06781         1.27147         0.53016 
        2.07396         1.26494        0.526262 
        2.08009         1.25744        0.522409 
        2.08622         1.25147        0.518599 
        2.09237         1.24182         0.51482 
        2.09851         1.23717        0.511077 
        2.10464         1.23414        0.507378 
        2.11077         1.22408         0.50372 
        2.11691         1.21836         0.50009 
        2.12305         1.21332        0.496495 
        2.12918         1.20785        0.492944 
        2.13531          1.1998        0.489428 
        2.14145         1.19479        0.485938 
         2.1476         1.18644        0.482477 
        2.15372         1.18177        0.479068 
        2.15985          1.1761        0.475689 
        2.16599         1.17004        0.472332 
        2.17213         1.16088        0.469011 
        2.17827         1.15889        0.465723 
         2.1844         1.15351        0.462469 
        2.19054         1.14824        0.459245 
        2.19666         1.14171        0.456057 
         2.2028         1.13595        0.452896 
        2.20893         1.13129        0.449763 
        2.21508         1.12494        0.446657 
        2.22122         1.11764        0.443578 
        2.22736         1.11395        0.440536 
        2.23349         1.10944        0.437522 
        2.23962         1.10173        0.434535 
        2.24577          1.0994        0.431573 
         2.2519         1.09409        0.428643 
        2.25802         1.08835        0.425744 
        2.26417         1.08343        0.422865 
        2.27031         1.07861        0.420009 
        2.27644         1.07238        0.417188 
        2.28257         1.06529        0.414393 
        2.28872         1.06325        0.411618 
        2.29486         1.05578         0.40887 
        2.30099         1.05096        0.406152 
        2.30712         1.04643        0.403457 
        2.31326         1.04262        0.400783 
         2.3194         1.03902        0.398134 
        2.32553         1.03489        0.395513 
        2.33166         1.02811        0.392917 
         2.3378          1.0228        0.390341 
        2.34394         1.01699        0.387787 
        2.35007           1.014         0.38526 
        2.35619         1.01003        0.382758 
        2.36233         1.00337        0.380273 
        2.36848        0.999966        0.377804 
        2.37462        0.996295        0.375362 
        2.38075        0.991482        0.372945 
        2.38689        0.987878        0.370546 
        2.39303        0.981144         0.36817 
        2.39916        0.978318        0.365816 
        2.40529        0.973682        0.363483 
        2.41143        0.968719        0.361169 
        2.41757        0.965491        0.358873 
         2.4237        0.962673        0.356602 
        2.42983        0.956195        0.354351 
        2.43598        0.953258        0.352113 
        2.44211        0.948823        0.349898 
        2.44823        0.944522        0.347708 
        2.45437        0.940514        0.345529 
        2.46052         0.93802        0.343368 
        2.46665        0.932247        0.341229 
        2.47279        0.927826        0.339109 
        2.47892        0.923756        0.337005 
        2.48507          0.9217        0.334918 
         2.4912         0.91428        0.332852 
