# k  (h/Mpc)    Pcb(k)  (Mpc/h)^3    Pcb_linear(k)  (Mpc/h)^3
     0.00783031         3608.42         3631.75 
       0.013688         4343.22         4407.63 
       0.019231         4398.51          4429.8 
      0.0249154         4097.74         4089.84 
      0.0312784         3548.91          3557.6 
      0.0375637         3038.69         3056.86 
      0.0433917          2688.7         2686.49 
      0.0492413         2403.71         2413.11 
      0.0555754         2204.46         2200.33 
      0.0619321         2000.75          2031.5 
       0.067871         1871.17         1881.25 
      0.0738098         1717.93         1721.73 
      0.0800417         1547.24         1544.49 
      0.0862327         1369.36            1371 
      0.0921407         1223.28         1222.37 
      0.0982031         1106.71         1097.22 
       0.104506         997.616         999.172 
       0.110769          930.03         929.014 
       0.116806         888.523         877.839 
       0.122832         835.194          832.99 
       0.129052         791.196         785.266 
       0.135211         745.745         732.931 
       0.141259          685.94         677.615 
       0.147318         626.033         622.202 
       0.153489         579.683         570.424 
       0.159709         542.415         526.435 
       0.165845         498.924          492.15 
       0.171974         483.493         465.773 
       0.178125         462.021         444.579 
       0.184229         436.235         425.774 
        0.19034         422.314         406.741 
       0.196428         403.037         386.334 
       0.202534         374.729         364.499 
       0.208729          359.99         342.026 
       0.214876         341.948         320.846 
       0.220989         317.444         302.055 
       0.227147          307.94         285.975 
        0.23329         295.387         272.653 
       0.239377         286.556         261.489 
       0.245482         273.148         251.448 
       0.251667         261.391         241.635 
       0.257832         256.497         231.688 
       0.263955         241.845         221.505 
       0.270079         231.724         211.219 
        0.27624          220.72          201.16 
       0.282372         212.969         191.811 
        0.28843         209.549         183.475 
       0.294538         199.759         176.019 
       0.300721          191.38         169.327 
        0.30691          187.87         163.235 
       0.313033         180.085         157.551 
       0.319153         176.656         152.002 
       0.325316         169.767         146.453 
        0.33145          164.16         140.964 
       0.337538         158.609         135.638 
       0.343633         153.622         130.526 
       0.349808          148.53         125.671 
       0.355968         144.344         121.188 
       0.362074         141.297         117.096 
       0.368217         137.743         113.275 
       0.374374          134.44         109.664 
       0.380519         128.726         106.211 
       0.386598         125.661         102.887 
       0.392688         121.947         99.6343 
        0.39888         119.603         96.4115 
       0.405048          116.75         93.3065 
       0.411186         114.219         90.3516 
       0.417313         111.144         87.5532 
       0.423458         108.169            84.9 
       0.429607         106.059         82.3934 
       0.435692         104.289         80.0377 
       0.441815         100.805         77.7671 
       0.447964         97.7779         75.5699 
       0.454126         95.9716         73.4389 
       0.460267         95.1009         71.3774 
       0.466387         92.6577         69.3878 
        0.47254         91.4487         67.4587 
       0.478662         88.2736         65.6145 
       0.484765         86.7799         63.8513 
       0.490885         84.5499         62.1588 
       0.497035         83.7546         60.5301 
       0.503198         81.7401         58.9628 
       0.509342         79.6224         57.4561 
       0.515458         78.6084         56.0064 
       0.521598         76.6681          54.598 
       0.527764         75.7228         53.2285 
       0.533884         74.7775          51.912 
           0.54         72.8967         50.6399 
       0.546137         70.9483         49.4073 
       0.552299         69.7993         48.2139 
       0.558452         68.4235         47.0651 
       0.564573         68.0554         45.9613 
       0.570708         66.0431         44.8915 
       0.576825         65.3497         43.8593 
       0.582926         64.4659          42.862 
       0.589034         63.2471         41.8941 
       0.595184          62.401          40.949 
       0.601379         60.7905         40.0259 
       0.607522         59.8441         39.1382 
       0.613639         59.2119         38.2814 
       0.619772         58.0907         37.4489 
       0.625918         57.2333         36.6406 
       0.632068         56.5782         35.8565 
       0.638161         55.4751         35.1029 
         0.6443         54.9102         34.3656 
       0.650464         53.6439         33.6466 
       0.656582         53.3776         32.9532 
       0.662703          52.685          32.279 
       0.668861         51.3985         31.6198 
       0.675024         51.0924         30.9787 
       0.681124         50.4865          30.362 
       0.687237         49.4573         29.7612 
       0.693381         48.8583          29.174 
       0.699536         48.4434         28.6017 
       0.705665         47.6176         28.0475 
       0.711789         46.8833         27.5084 
       0.717957         46.1411         26.9799 
        0.72409         45.6832         26.4683 
       0.730186         45.4289         25.9731 
       0.736317         44.5706         25.4879 
       0.742472         44.0455         25.0135 
       0.748622         43.3867         24.5516 
        0.75476         42.5955         24.1024 
       0.760888         42.5323         23.6653 
       0.767043         41.7271         23.2373 
       0.773185          41.299         22.8208 
       0.779291         40.7807          22.417 
       0.785407         40.1918         22.0224 
       0.791564          40.147         21.6349 
       0.797719         39.3718         21.2569 
       0.803834          39.093         20.8904 
       0.809972         38.5128         20.5313 
       0.816124         38.1225         20.1798 
       0.822261         37.6673         19.8376 
       0.828378         37.4189         19.5044 
       0.834502          36.975         19.1786 
       0.840667         36.6372         18.8581 
       0.846816         35.9768         18.5459 
       0.852925         35.8256         18.2428 
       0.859047         35.5848         17.9458 
       0.865192         35.0124         17.6545 
       0.871341         34.6049         17.3696 
       0.877463         34.2903         17.0922 
       0.883569         34.1349         16.8216 
       0.889708         33.6931         16.5555 
       0.895864         33.3012         16.2945 
       0.902008         32.9491         16.0397 
       0.908149         32.6336         15.7905 
       0.914301         32.4118         15.5463 
       0.920448         32.0625         15.3074 
       0.926574         31.6489         15.0745 
       0.932687         31.3803         14.8469 
       0.938823         30.9952         14.6231 
       0.944975          30.756         14.4036 
       0.951105         30.5054         14.1893 
       0.957225         30.3018         13.9797 
       0.963368         29.9132         13.7737 
       0.969511         29.6631         13.5719 
       0.975621         29.4284         13.3752 
       0.981748         29.0866         13.1819 
       0.987916         28.9127         12.9912 
        0.99406          28.552          12.805 
        1.00019          28.386         12.6229 
        1.00632         28.1537         12.4444 
        1.01246         27.9056         12.2692 
        1.01859         27.6213         12.0976 
        1.02471         27.3795         11.9296 
        1.03085         27.2641         11.7641 
        1.03698         27.0451         11.6021 
        1.04314         26.7701         11.4425 
        1.04929         26.4693         11.2863 
        1.05541         26.3771         11.1337 
        1.06154         26.1943         10.9835 
        1.06769          25.831         10.8358 
        1.07382         25.6707         10.6914 
        1.07993          25.444         10.5499 
        1.08607         25.2822         10.4104 
        1.09222         25.0771         10.2733 
        1.09836         24.8395         10.1388 
        1.10449         24.7286         10.0069 
        1.11063         24.5183         9.87717 
        1.11677         24.4528         9.74981 
         1.1229         24.1871         9.62493 
        1.12903         23.9838         9.50213 
        1.13518         23.8597         9.38137 
        1.14131         23.6751         9.26279 
        1.14745         23.3941         9.14633 
        1.15359         23.1967         9.03185 
        1.15973         23.0665         8.91929 
        1.16584         22.8897         8.80915 
        1.17197         22.6471         8.70073 
        1.17811         22.5529          8.5938 
        1.18424          22.331         8.48898 
        1.19038         22.2621         8.38561 
        1.19652         22.0402           8.284 
        1.20267         21.9446         8.18408 
        1.20881         21.7393         8.08583 
        1.21495         21.6198         7.98935 
        1.22108         21.5516         7.89447 
         1.2272         21.3753         7.80135 
        1.23334         21.2348         7.70952 
        1.23949         21.0613         7.61895 
        1.24562          20.848         7.53009 
        1.25174         20.7895         7.44278 
        1.25789         20.6733         7.35659 
        1.26402         20.5434         7.27191 
        1.27014         20.4218         7.18878 
        1.27628         20.2081         7.10669 
        1.28244         20.2026         7.02573 
        1.28858         19.9795         6.94614 
        1.29471         19.8075         6.86797 
        1.30084         19.6855         6.79106 
        1.30697         19.6103         6.71522 
        1.31312         19.4488         6.64043 
        1.31925         19.3374         6.56702 
        1.32537         19.1878         6.49479 
        1.33151           19.07         6.42339 
        1.33765         19.0258          6.3531 
        1.34378         18.9009         6.28401 
        1.34992         18.7762         6.21589 
        1.35606         18.6043         6.14864 
         1.3622          18.485          6.0825 
        1.36833         18.4422          6.0175 
        1.37445         18.3202         5.95348 
        1.38059          18.206         5.89019 
        1.38675         18.0824         5.82768 
        1.39288         17.9531         5.76632 
        1.39901         17.8583         5.70587 
        1.40515         17.7744         5.64615 
         1.4113         17.6692         5.58732 
        1.41742         17.5893         5.52954 
        1.42355           17.44         5.47248 
         1.4297         17.3446         5.41604 
        1.43585         17.2565         5.36043 
        1.44198         17.2038         5.30581 
        1.44809         17.0806         5.25205 
        1.45423         16.9723         5.19884 
        1.46036         16.8772         5.14647 
        1.46649         16.7776         5.09479 
        1.47263         16.7035         5.04378 
        1.47877          16.613          4.9935 
        1.48491         16.5204         4.94382 
        1.49104         16.4179         4.89492 
        1.49718         16.3483         4.84664 
        1.50333         16.2738         4.79895 
        1.50947          16.189         4.75198 
         1.5156         16.0921         4.70572 
        1.52172         15.9842         4.66007 
        1.52787         15.9362         4.61494 
          1.534         15.8535         4.57046 
        1.54013         15.7771         4.52661 
        1.54627         15.6482         4.48326 
        1.55241         15.5523         4.44046 
        1.55855         15.4993         4.39829 
        1.56467          15.459         4.35678 
         1.5708         15.3719         4.31568 
        1.57695         15.2823         4.27506 
        1.58308         15.1685         4.23504 
        1.58922         15.1107         4.19552 
        1.59535         15.0386         4.15651 
         1.6015         14.9158         4.11794 
        1.60764         14.8729         4.07988 
        1.61376         14.8245         4.04241 
        1.61989          14.706         4.00538 
        1.62604         14.6715         3.96872 
        1.63218         14.6019         3.93255 
        1.63831         14.4905         3.89692 
        1.64444         14.4204         3.86171 
        1.65059         14.3525         3.82685 
        1.65673         14.3143         3.79246 
        1.66285          14.199         3.75859 
        1.66898         14.1836         3.72512 
        1.67512         14.1303         3.69199 
        1.68127         14.0166         3.65923 
         1.6874         13.9863         3.62695 
        1.69353         13.8516         3.59507 
        1.69967         13.8116          3.5635 
        1.70581         13.7677         3.53233 
        1.71193          13.677         3.50164 
        1.71806         13.6371         3.47125 
        1.72421          13.563         3.44116 
        1.73035         13.4964         3.41147 
        1.73649         13.4563         3.38213 
        1.74262         13.3445         3.35316 
        1.74876         13.3201          3.3245 
        1.75489         13.2687         3.29624 
        1.76101         13.1676         3.26832 
        1.76715         13.1442         3.24069 
        1.77329         13.0658         3.21333 
        1.77943         12.9908         3.18629 
        1.78557          12.974         3.15959 
        1.79171         12.8801         3.13319 
        1.79785          12.845         3.10709 
        1.80399         12.7614         3.08129 
        1.81012         12.7295         3.05582 
        1.81625         12.6499         3.03064 
        1.82239         12.5967         3.00572 
        1.82853         12.5365         2.98108 
        1.83466         12.4602         2.95674 
        1.84078          12.436          2.9327 
        1.84692         12.4182         2.90889 
        1.85306         12.3461         2.88532 
         1.8592         12.2917         2.86204 
        1.86533         12.2009         2.83903 
        1.87147         12.1603         2.81624 
        1.87761         12.1169          2.7937 
        1.88375         12.0801         2.77143 
        1.88988         11.9846         2.74943 
        1.89601         11.9692         2.72765 
        1.90215         11.8913         2.70609 
        1.90829         11.8316         2.68477 
        1.91442         11.7777         2.66368 
        1.92056         11.7809         2.64284 
         1.9267         11.7164          2.6222 
        1.93284         11.6937         2.60176 
        1.93897         11.6038         2.58158 
        1.94509         11.5616         2.56166 
        1.95123         11.5153          2.5419 
        1.95737         11.4805         2.52233 
        1.96349         11.3968         2.50302 
        1.96964         11.3699         2.48385 
        1.97578         11.3401         2.46488 
        1.98192         11.2883         2.44614 
        1.98805         11.2221         2.42759 
        1.99419         11.1863         2.40924 
        2.00033         11.1482         2.39106 
        2.00647         11.0889         2.37308 
         2.0126         11.0592         2.35531 
        2.01874         10.9903          2.3377 
        2.02488         10.9437         2.32025 
        2.03101         10.9309         2.30302 
        2.03714         10.8671         2.28597 
        2.04328         10.8088         2.26907 
        2.04941         10.7642         2.25236 
        2.05554         10.7498         2.23583 
        2.06167         10.7088         2.21945 
        2.06781          10.655         2.20322 
        2.07396         10.6375         2.18714 
        2.08009         10.5434         2.17124 
        2.08622         10.5476         2.15551 
        2.09237         10.5077         2.13992 
        2.09851         10.4346         2.12447 
        2.10464         10.4216          2.1092 
        2.11077         10.3467          2.0941 
        2.11691         10.3395         2.07911 
        2.12305         10.2814         2.06427 
        2.12918         10.2159         2.04961 
        2.13531         10.2037         2.03509 
        2.14145         10.1561         2.02068 
         2.1476         10.1233         2.00639 
        2.15372         10.0942         1.99231 
        2.15985         10.0467         1.97835 
        2.16599         10.0136         1.96448 
        2.17213         10.0028         1.95076 
        2.17827         9.93495         1.93718 
         2.1844          9.9062         1.92373 
        2.19054         9.87817         1.91041 
        2.19666         9.84082         1.89723 
         2.2028         9.80549         1.88417 
        2.20893         9.74945         1.87122 
        2.21508         9.73093         1.85838 
        2.22122         9.66487         1.84566 
        2.22736         9.64558         1.83308 
        2.23349         9.61006         1.82062 
        2.23962         9.58598         1.80827 
        2.24577         9.55903         1.79602 
         2.2519         9.52545          1.7839 
        2.25802         9.44254         1.77192 
        2.26417         9.45507         1.76001 
        2.27031         9.41464          1.7482 
        2.27644         9.38773         1.73653 
        2.28257         9.31281         1.72496 
        2.28872         9.30478         1.71349 
        2.29486         9.27205         1.70211 
        2.30099         9.24799         1.69087 
        2.30712         9.18011         1.67972 
        2.31326         9.14928         1.66865 
         2.3194         9.12619         1.65769 
        2.32553         9.09615         1.64684 
        2.33166         9.05504          1.6361 
         2.3378         9.03606         1.62543 
        2.34394          8.9999         1.61486 
        2.35007         8.97228          1.6044 
        2.35619         8.93332         1.59404 
        2.36233         8.88572         1.58375 
        2.36848         8.86491         1.57353 
        2.37462         8.83576         1.56342 
        2.38075         8.80976         1.55341 
        2.38689         8.78924         1.54347 
        2.39303         8.73396         1.53363 
        2.39916         8.72389         1.52388 
        2.40529         8.69555         1.51422 
        2.41143         8.64993         1.50463 
        2.41757         8.61364         1.49512 
         2.4237         8.60198         1.48571 
        2.42983         8.56807         1.47639 
        2.43598         8.53716         1.46712 
        2.44211         8.50616         1.45794 
        2.44823         8.47516         1.44886 
        2.45437          8.4412         1.43983 
        2.46052         8.43867         1.43088 
        2.46665          8.3997         1.42201 
        2.47279         8.36524         1.41322 
        2.47892         8.32555         1.40451 
        2.48507         8.30422         1.39585 
         2.4912         8.28397         1.38729 
