# k  (h/Mpc)    Pcb(k)  (Mpc/h)^3    Pcb_linear(k)  (Mpc/h)^3
     0.00783031         12435.4         12499.2 
       0.013688         14805.9         15163.5 
       0.019231         15029.1         15237.3 
      0.0249154         14094.2         14066.6 
      0.0312784         12123.7         12235.2 
      0.0375637         10342.7         10512.6 
      0.0433917         9187.33         9238.72 
      0.0492413         8189.26         8298.42 
      0.0555754         7519.83         7566.59 
      0.0619321         6745.65         6985.93 
       0.067871         6337.74         6469.19 
      0.0738098         5850.66         5920.61 
      0.0800417         5272.97         5311.11 
      0.0862327         4670.27         4714.48 
      0.0921407         4197.92         4203.38 
      0.0982031         3825.35         3773.03 
       0.104506         3437.73         3435.84 
       0.110769         3213.67         3194.58 
       0.116806         3084.41          3018.6 
       0.122832         2895.08         2864.38 
       0.129052          2731.6         2700.27 
       0.135211         2611.95          2520.3 
       0.141259         2397.05         2330.09 
       0.147318         2196.27         2139.54 
       0.153489         2052.84         1961.49 
       0.159709         1957.29         1810.22 
       0.165845         1792.85         1692.33 
       0.171974         1752.38         1601.63 
       0.178125         1691.52         1528.75 
       0.184229         1568.31         1464.08 
        0.19034         1536.28         1398.63 
       0.196428         1482.72         1328.46 
       0.202534         1381.14         1253.38 
       0.208729         1348.11          1176.1 
       0.214876         1282.94         1103.27 
       0.220989         1208.04         1038.66 
       0.227147         1176.52         983.364 
        0.23329         1131.07         937.552 
       0.239377         1119.57         899.164 
       0.245482         1063.96         864.638 
       0.251667         1023.92         830.893 
       0.257832         1008.42         796.688 
       0.263955         956.853         761.673 
       0.270079          925.48         726.305 
        0.27624         886.122         691.714 
       0.282372         870.358         659.566 
        0.28843         859.057         630.903 
       0.294538         816.185         605.265 
       0.300721         796.406         582.251 
        0.30691         780.265         561.302 
       0.313033          747.12         541.758 
       0.319153         736.624         522.678 
       0.325316         725.499         503.595 
        0.33145         708.702         484.723 
       0.337538         683.202         466.407 
       0.343633         665.037         448.828 
       0.349808         649.797         432.134 
       0.355968         637.587          416.72 
       0.362074         615.779          402.65 
       0.368217         613.071         389.511 
       0.374374         602.817         377.094 
       0.380519         579.226          365.22 
       0.386598         573.921         353.791 
       0.392688         560.488         342.604 
        0.39888         546.074         331.522 
       0.405048         535.809         320.845 
       0.411186         534.237         310.685 
       0.417313         528.771         301.062 
       0.423458         512.832         291.939 
       0.429607         498.496         283.319 
       0.435692         492.139         275.219 
       0.441815         483.391         267.411 
       0.447964         474.325         259.856 
       0.454126         468.859         252.529 
       0.460267         461.096          245.44 
       0.466387         453.025         238.598 
        0.47254         446.279         231.965 
       0.478662         437.609         225.623 
       0.484765          432.46          219.56 
       0.490885         428.017          213.74 
       0.497035         419.209          208.14 
       0.503198         418.806          202.75 
       0.509342         409.305          197.57 
       0.515458         401.972         192.585 
       0.521598         396.951         187.742 
       0.527764         390.333         183.032 
       0.533884         387.771         178.506 
           0.54         382.854         174.131 
       0.546137         375.175         169.893 
       0.552299         374.021         165.789 
       0.558452         368.036         161.839 
       0.564573         364.798         158.043 
       0.570708         359.896         154.365 
       0.576825         353.186         150.815 
       0.582926         351.267         147.386 
       0.589034          345.61         144.058 
       0.595184          343.23         140.808 
       0.601379         337.742         137.634 
       0.607522         331.207         134.581 
       0.613639         330.115         131.635 
       0.619772         328.835         128.772 
       0.625918         322.776         125.993 
       0.632068         319.637         123.297 
       0.638161         317.153         120.705 
         0.6443         313.362          118.17 
       0.650464         309.333         115.698 
       0.656582          306.48         113.313 
       0.662703         304.492         110.995 
       0.668861          299.15         108.728 
       0.675024         297.793         106.524 
       0.681124         293.794         104.403 
       0.687237         291.939         102.337 
       0.693381         287.947         100.318 
       0.699536         286.286         98.3504 
       0.705665         283.154         96.4444 
       0.711789         280.926         94.5909 
       0.717957          277.83         92.7736 
        0.72409         274.374         91.0144 
       0.730186         276.089         89.3115 
       0.736317         271.121         87.6432 
       0.742472           268.3         86.0117 
       0.748622         265.463         84.4234 
        0.75476         265.041         82.8789 
       0.760888         261.815         81.3757 
       0.767043         258.844         79.9041 
       0.773185         257.365         78.4721 
       0.779291         253.823         77.0835 
       0.785407         252.848         75.7267 
       0.791564         250.562         74.3942 
       0.797719         246.505         73.0944 
       0.803834         248.312         71.8342 
       0.809972         244.774         70.5992 
       0.816124         241.449         69.3907 
       0.822261         239.702         68.2139 
       0.828378         239.104          67.068 
       0.834502          235.81         65.9477 
       0.840667         235.879         64.8457 
       0.846816         231.392         63.7722 
       0.852925         231.407         62.7299 
       0.859047         229.187         61.7088 
       0.865192         228.582         60.7072 
       0.871341         225.499         59.7272 
       0.877463         223.754         58.7734 
       0.883569         223.122          57.843 
       0.889708         220.987          56.928 
       0.895864         218.912         56.0306 
       0.902008         217.106         55.1544 
       0.908149         215.369         54.2976 
       0.914301         214.073         53.4577 
       0.920448           213.4         52.6364 
       0.926574         211.192         51.8353 
       0.932687         210.437         51.0526 
       0.938823         208.417         50.2834 
       0.944975         207.632         49.5283 
       0.951105         205.356         48.7914 
       0.957225         203.849         48.0709 
       0.963368         203.482         47.3625 
       0.969511         200.219         46.6685 
       0.975621          198.85         45.9921 
       0.981748         198.166         45.3274 
       0.987916         197.289         44.6717 
        0.99406         195.557         44.0316 
        1.00019         194.333         43.4052 
        1.00632         193.387         42.7917 
        1.01246         191.917         42.1891 
        1.01859         190.085         41.5991 
        1.02471         188.668         41.0211 
        1.03085         187.566         40.4522 
        1.03698         186.627         39.8953 
        1.04314         186.199         39.3465 
        1.04929         184.911         38.8093 
        1.05541         183.626         38.2844 
        1.06154         181.908         37.7679 
        1.06769         180.832         37.2602 
        1.07382         180.145         36.7635 
        1.07993         178.215          36.277 
        1.08607         177.498         35.7973 
        1.09222         176.141         35.3258 
        1.09836         175.485         34.8634 
        1.10449          174.01         34.4098 
        1.11063         172.831         33.9638 
        1.11677          171.97         33.5258 
         1.1229          170.85         33.0964 
        1.12903         169.715         32.6741 
        1.13518         168.573         32.2589 
        1.14131         167.867         31.8512 
        1.14745         166.365         31.4507 
        1.15359          165.08          31.057 
        1.15973         164.662           30.67 
        1.16584          163.75         30.2913 
        1.17197         162.791         29.9184 
        1.17811         161.354         29.5507 
        1.18424         160.573         29.1903 
        1.19038         159.626         28.8349 
        1.19652         158.364         28.4855 
        1.20267          157.44         28.1419 
        1.20881         156.357          27.804 
        1.21495         156.161         27.4723 
        1.22108         154.893          27.146 
         1.2272         153.672         26.8258 
        1.23334         153.032           26.51 
        1.23949         152.451         26.1986 
        1.24562         151.304         25.8931 
        1.25174          150.54         25.5928 
        1.25789         149.262         25.2964 
        1.26402         149.052         25.0053 
        1.27014         148.129         24.7194 
        1.27628         146.739         24.4372 
        1.28244         146.141         24.1588 
        1.28858         145.157         23.8851 
        1.29471         144.324         23.6163 
        1.30084         143.401         23.3518 
        1.30697         142.443          23.091 
        1.31312         141.685         22.8339 
        1.31925         140.682         22.5814 
        1.32537         140.228         22.3331 
        1.33151         139.555         22.0875 
        1.33765         138.303         21.8459 
        1.34378          138.13         21.6083 
        1.34992         137.218          21.374 
        1.35606         136.418         21.1428 
         1.3622         135.871         20.9154 
        1.36833         134.474         20.6918 
        1.37445         134.427         20.4717 
        1.38059          133.32         20.2541 
        1.38675         132.576         20.0391 
        1.39288         131.608         19.8281 
        1.39901          130.96         19.6203 
        1.40515         130.512         19.4149 
         1.4113         129.565         19.2126 
        1.41742         128.791         19.0139 
        1.42355         128.572         18.8177 
         1.4297         127.407         18.6237 
        1.43585         126.826         18.4324 
        1.44198         125.605         18.2446 
        1.44809         125.233         18.0598 
        1.45423         124.831         17.8768 
        1.46036         123.725         17.6967 
        1.46649         123.091          17.519 
        1.47263         122.561         17.3436 
        1.47877         121.615         17.1707 
        1.48491         121.239         16.9999 
        1.49104         119.896         16.8317 
        1.49718         119.729         16.6657 
        1.50333         119.267         16.5017 
        1.50947         118.468         16.3402 
         1.5156         117.729         16.1811 
        1.52172          117.08         16.0242 
        1.52787         116.597          15.869 
          1.534         115.917          15.716 
        1.54013          115.25         15.5653 
        1.54627          114.48         15.4162 
        1.55241          114.19          15.269 
        1.55855         113.471          15.124 
        1.56467         112.751         14.9813 
         1.5708         111.751           14.84 
        1.57695         111.613         14.7003 
        1.58308         110.775         14.5627 
        1.58922         110.655         14.4268 
        1.59535         110.106         14.2926 
         1.6015         109.089           14.16 
        1.60764          108.42         14.0291 
        1.61376         108.003         13.9003 
        1.61989         107.531         13.7729 
        1.62604         106.727         13.6469 
        1.63218         106.326         13.5225 
        1.63831         105.642            13.4 
        1.64444         104.951         13.2789 
        1.65059         104.404          13.159 
        1.65673         104.253         13.0408 
        1.66285         103.668         12.9243 
        1.66898         102.826         12.8092 
        1.67512         102.295         12.6953 
        1.68127         101.921         12.5827 
         1.6874         100.996         12.4717 
        1.69353         100.641         12.3621 
        1.69967         100.046         12.2535 
        1.70581         99.8094         12.1463 
        1.71193         99.0679         12.0408 
        1.71806         98.4946         11.9363 
        1.72421         97.9858         11.8328 
        1.73035         97.5093         11.7307 
        1.73649         96.8355         11.6298 
        1.74262         96.5664         11.5302 
        1.74876         95.8275         11.4317 
        1.75489         95.5131         11.3345 
        1.76101          94.957         11.2385 
        1.76715         94.3065         11.1435 
        1.77329         93.8982         11.0494 
        1.77943         93.3945         10.9564 
        1.78557         93.0827         10.8646 
        1.79171         92.5408         10.7738 
        1.79785         91.7346         10.6841 
        1.80399         91.6489         10.5954 
        1.81012         90.8194         10.5078 
        1.81625         90.4332         10.4212 
        1.82239         90.0542         10.3355 
        1.82853         89.4876         10.2508 
        1.83466         88.8835         10.1671 
        1.84078          88.713         10.0844 
        1.84692         88.3891         10.0025 
        1.85306         87.8243         9.92147 
         1.8592         87.4234         9.84142 
        1.86533         86.7903          9.7623 
        1.87147         86.5061         9.68396 
        1.87761         85.6626         9.60644 
        1.88375         85.4246         9.52986 
        1.88988         84.7598          9.4542 
        1.89601         84.7742         9.37932 
        1.90215         84.1255         9.30518 
        1.90829         83.5484         9.23188 
        1.91442         83.1651         9.15937 
        1.92056         82.8784         9.08769 
         1.9267         82.3264         9.01671 
        1.93284         82.0132         8.94644 
        1.93897         81.5877         8.87706 
        1.94509         81.0935         8.80855 
        1.95123          80.678          8.7406 
        1.95737         80.4363         8.67331 
        1.96349         80.0115          8.6069 
        1.96964         79.5649         8.54099 
        1.97578         79.0465         8.47575 
        1.98192         78.6253         8.41131 
        1.98805         78.0947         8.34754 
        1.99419         78.0123         8.28442 
        2.00033         77.3309         8.22193 
        2.00647         77.0023          8.1601 
         2.0126         76.6599           8.099 
        2.01874         76.5046         8.03844 
        2.02488         75.9354         7.97844 
        2.03101         75.4698         7.91917 
        2.03714         75.1642         7.86055 
        2.04328         74.9294         7.80246 
        2.04941         74.4778           7.745 
        2.05554         74.0151         7.68816 
        2.06167          73.489         7.63181 
        2.06781         73.1321         7.57602 
        2.07396         72.8465          7.5207 
        2.08009         72.3565         7.46603 
        2.08622          72.194         7.41197 
        2.09237         71.8447         7.35833 
        2.09851         71.1491         7.30522 
        2.10464         71.0665         7.25271 
        2.11077         70.8093         7.20079 
        2.11691         70.4262         7.14925 
        2.12305          69.959         7.09822 
        2.12918         69.6518          7.0478 
        2.13531         69.2137         6.99788 
        2.14145         68.8565         6.94832 
         2.1476         68.6941         6.89918 
        2.15372         68.1776         6.85076 
        2.15985         67.7996         6.80275 
        2.16599         67.5542         6.75507 
        2.17213         67.1119          6.7079 
        2.17827          66.668         6.66119 
         2.1844         66.4357         6.61496 
        2.19054         66.1823         6.56915 
        2.19666         65.9346         6.52384 
         2.2028         65.4646         6.47892 
        2.20893         65.1733          6.4344 
        2.21508         64.7555         6.39025 
        2.22122         64.4187         6.34649 
        2.22736         64.1648         6.30323 
        2.23349         63.7842         6.26039 
        2.23962         63.6029         6.21792 
        2.24577         63.2013         6.17581 
         2.2519         62.8421         6.13414 
        2.25802         62.5553         6.09292 
        2.26417         62.2075         6.05197 
        2.27031         61.9326         6.01135 
        2.27644         61.6426         5.97123 
        2.28257         61.3161         5.93147 
        2.28872         60.9537           5.892 
        2.29486         60.8041          5.8529 
        2.30099         60.3302         5.81422 
        2.30712         60.1591         5.77589 
        2.31326          59.905         5.73783 
         2.3194         59.5387         5.70013 
        2.32553          59.195         5.66284 
        2.33166         58.9309         5.62589 
         2.3378         58.6942         5.58923 
        2.34394         58.3316         5.55287 
        2.35007         58.0791          5.5169 
        2.35619         57.8159         5.48128 
        2.36233         57.5137         5.44589 
        2.36848          57.202         5.41075 
        2.37462         56.9094         5.37598 
        2.38075         56.6603         5.34155 
        2.38689         56.2622          5.3074 
        2.39303         56.1145         5.27355 
        2.39916         55.7792         5.24003 
        2.40529         55.5978          5.2068 
        2.41143         55.3513         5.17383 
        2.41757         54.9162         5.14114 
         2.4237         54.8493         5.10879 
        2.42983         54.5089         5.07671 
        2.43598         54.2621         5.04483 
        2.44211         53.8743         5.01327 
        2.44823         53.7245         4.98206 
        2.45437         53.3454         4.95102 
        2.46052         53.0631         4.92022 
        2.46665         52.8219         4.88974 
        2.47279         52.6073         4.85952 
        2.47892          52.409         4.82954 
        2.48507         52.0908         4.79978 
         2.4912          51.878         4.77033 
