# k  (h/Mpc)    P(k)  (Mpc/h)^3    P_linear(k)  (Mpc/h)^3
     0.00783031         5261.76         5330.88 
       0.013688          6907.5         6889.18 
       0.019231         7212.45         7212.18 
      0.0249154         6782.88         6874.15 
      0.0312784         6110.88         6149.83 
      0.0375637         5403.24         5403.68 
      0.0433917         4777.28         4831.94 
      0.0492413         4383.66         4405.86 
      0.0555754         3996.35         4075.53 
      0.0619321         3814.74         3812.27 
       0.067871         3507.21         3570.22 
      0.0738098         3240.19         3301.58 
      0.0800417         2913.75         2991.28 
      0.0862327         2632.98         2678.91 
      0.0921407         2387.86         2406.66 
      0.0982031         2148.95         2175.61 
       0.104506         2009.79         1994.92 
       0.110769         1876.59         1867.34 
       0.116806         1768.36         1775.93 
       0.122832         1697.68         1695.99 
       0.129052         1587.95         1608.96 
       0.135211         1495.12         1510.38 
       0.141259          1410.1         1403.38 
       0.147318         1314.82         1294.26 
       0.153489         1204.78          1191.3 
       0.159709         1131.72          1103.7 
       0.165845         1083.07         1035.97 
       0.171974         1021.38         984.737 
       0.178125         979.173         944.338 
       0.184229          945.54         908.634 
        0.19034         887.788         871.817 
       0.196428         866.461         831.209 
       0.202534         833.737         786.654 
       0.208729          786.91         740.012 
       0.214876          740.83         695.697 
       0.220989         716.329         656.416 
       0.227147         676.047         623.116 
        0.23329         650.487          595.97 
       0.239377         636.342         573.614 
       0.245482         598.074         553.657 
       0.251667         591.326         533.954 
       0.257832         570.951          513.54 
       0.263955         550.286         492.154 
       0.270079         530.299         470.157 
        0.27624         520.793         448.441 
       0.282372         498.751         428.232 
        0.28843         483.153         410.336 
       0.294538         462.388         394.525 
       0.300721         458.453         380.524 
        0.30691         438.129         367.897 
       0.313033         428.635         356.093 
       0.319153         413.183         344.432 
       0.325316         402.666         332.565 
        0.33145         390.167         320.646 
       0.337538         384.785         308.948 
       0.343633         372.083         297.672 
       0.349808         360.658          286.99 
       0.355968         355.416         277.192 
       0.362074         346.689         268.339 
       0.368217         337.809         260.127 
       0.374374         326.771         252.387 
       0.380519         321.559         244.955 
       0.386598         313.832         237.728 
       0.392688          310.27         230.584 
        0.39888         302.033         223.431 
       0.405048          295.69           216.5 
       0.411186         289.439         209.896 
       0.417313         283.808         203.654 
       0.423458         278.409         197.763 
       0.429607         272.081         192.229 
       0.435692         264.429          187.04 
       0.441815         262.817         182.035 
       0.447964          258.37         177.177 
       0.454126         247.929         172.435 
       0.460267         245.362         167.814 
       0.466387         242.244         163.332 
        0.47254         237.402         158.974 
       0.478662         235.445         154.803 
       0.484765         229.212         150.818 
       0.490885         225.864         147.004 
       0.497035          222.94          143.34 
       0.503198         217.214         139.816 
       0.509342         214.499         136.422 
       0.515458         211.695         133.148 
       0.521598         208.996         129.958 
       0.527764         205.692         126.843 
       0.533884         202.558         123.839 
           0.54         199.657          120.93 
       0.546137         198.386          118.11 
       0.552299         195.024         115.382 
       0.558452          191.64         112.757 
       0.564573         188.333         110.233 
       0.570708          185.75         107.786 
       0.576825         183.356         105.422 
       0.582926         180.685         103.135 
       0.589034         177.811         100.911 
       0.595184          176.19         98.7342 
       0.601379         174.558         96.6036 
       0.607522          170.55         94.5519 
       0.613639         170.267         92.5696 
       0.619772         166.415         90.6431 
       0.625918         164.955         88.7724 
       0.632068          163.17         86.9571 
       0.638161         161.767         85.2108 
         0.6443         159.473         83.5004 
       0.650464         157.777         81.8301 
       0.656582         156.145         80.2165 
       0.662703         153.578         78.6456 
       0.668861         151.989          77.108 
       0.675024         150.295          75.611 
       0.681124         149.105         74.1702 
       0.687237         146.517         72.7652 
       0.693381         144.848         71.3911 
       0.699536          143.56         70.0509 
       0.705665         144.073         68.7515 
       0.711789         140.374         67.4867 
       0.717957         139.848         66.2452 
        0.72409          137.93         65.0422 
       0.730186         135.689         63.8766 
       0.736317         135.426         62.7335 
       0.742472         134.183         61.6147 
       0.748622         133.156         60.5246 
        0.75476         131.814         59.4637 
       0.760888         130.088         58.4303 
       0.767043         128.992         57.4178 
       0.773185         127.691         56.4318 
       0.779291         126.463         55.4749 
       0.785407         125.599         54.5391 
       0.791564         124.184         53.6193 
       0.797719         122.622         52.7214 
       0.803834         122.159           51.85 
       0.809972         120.276         50.9954 
       0.816124         119.866         50.1585 
       0.822261         118.789         49.3429 
       0.828378         117.686         48.5481 
       0.834502         116.869         47.7705 
       0.840667         115.706          47.005 
       0.846816         114.615         46.2588 
       0.852925         113.496         45.5337 
       0.859047          112.24         44.8229 
       0.865192         111.959         44.1251 
       0.871341         110.925          43.442 
       0.877463         109.555         42.7766 
       0.883569         108.864         42.1271 
       0.889708         108.287         41.4879 
       0.895864         107.327         40.8605 
       0.902008         106.535         40.2475 
       0.908149         105.863         39.6477 
       0.914301         104.718         39.0593 
       0.920448          104.08         38.4835 
       0.926574         103.379         37.9215 
       0.932687         102.802         37.3721 
       0.938823         101.354         36.8317 
       0.944975         100.984         36.3009 
       0.951105         100.111         35.7826 
       0.957225         98.8883         35.2754 
       0.963368         98.6129         34.7764 
       0.969511         98.0661         34.2872 
       0.975621         97.5579         33.8102 
       0.981748         96.6003         33.3411 
       0.987916         95.9326          32.878 
        0.99406         95.4555         32.4256 
        1.00019         94.2787         31.9827 
        1.00632          94.013         31.5485 
        1.01246         93.0915         31.1219 
        1.01859         92.0086          30.704 
        1.02471           92.48         30.2943 
        1.03085         91.3995         29.8907 
        1.03698         90.6071         29.4955 
        1.04314         89.7496         29.1058 
        1.04929         89.4386         28.7241 
        1.05541         88.6898         28.3509 
        1.06154         88.3785         27.9835 
        1.06769         87.7052         27.6221 
        1.07382         87.3531         27.2684 
        1.07993         86.9282         26.9217 
        1.08607         86.0929         26.5797 
        1.09222         85.6937         26.2434 
        1.09836         85.0786         25.9133 
        1.10449         84.5402         25.5894 
        1.11063         83.8771         25.2708 
        1.11677         83.3996         24.9577 
         1.1229         82.9423         24.6506 
        1.12903         81.9181         24.3484 
        1.13518         82.1245          24.051 
        1.14131         81.6323         23.7589 
        1.14745         80.5918         23.4719 
        1.15359         80.4162         23.1895 
        1.15973         79.8284         22.9118 
        1.16584         79.2984         22.6399 
        1.17197         78.8822         22.3721 
        1.17811         78.4768         22.1078 
        1.18424         77.6995         21.8486 
        1.19038         77.4892         21.5929 
        1.19652         77.1463         21.3413 
        1.20267          76.546         21.0939 
        1.20881         76.1052         20.8504 
        1.21495         75.5364         20.6112 
        1.22108         75.1018         20.3759 
         1.2272         74.5485         20.1448 
        1.23334         74.2428         19.9168 
        1.23949         73.9878         19.6918 
        1.24562         73.6193         19.4709 
        1.25174         73.1739         19.2538 
        1.25789         72.7635         19.0394 
        1.26402          72.222         18.8286 
        1.27014         71.6201         18.6216 
        1.27628          71.479         18.4171 
        1.28244         70.8395         18.2154 
        1.28858         70.5786         18.0169 
        1.29471         70.3623         17.8219 
        1.30084         69.8812         17.6299 
        1.30697         69.3233         17.4406 
        1.31312         68.9293         17.2537 
        1.31925         68.8378         17.0702 
        1.32537         68.3753         16.8896 
        1.33151         67.8822          16.711 
        1.33765         67.6837         16.5351 
        1.34378         67.2761         16.3621 
        1.34992         66.6441         16.1915 
        1.35606         66.3606          16.023 
         1.3622         65.9176         15.8572 
        1.36833         65.7839         15.6942 
        1.37445         65.4993         15.5335 
        1.38059         65.0706         15.3747 
        1.38675         64.7078         15.2177 
        1.39288          64.323         15.0635 
        1.39901         64.0521         14.9116 
        1.40515         63.7339         14.7614 
         1.4113         63.4721         14.6134 
        1.41742         62.9921          14.468 
        1.42355         62.7661         14.3244 
         1.4297         62.3467         14.1822 
        1.43585         62.1427         14.0421 
        1.44198         61.8414         13.9044 
        1.44809         61.4404         13.7688 
        1.45423         61.2904         13.6346 
        1.46036         60.8796         13.5023 
        1.46649         60.5437         13.3719 
        1.47263         60.2693          13.243 
        1.47877         60.0856         13.1159 
        1.48491         59.7442         12.9903 
        1.49104         59.3569         12.8666 
        1.49718         58.9414         12.7445 
        1.50333         58.7807         12.6237 
        1.50947         58.4153         12.5048 
         1.5156          58.137         12.3876 
        1.52172         57.9054         12.2719 
        1.52787         57.7704         12.1575 
          1.534          57.385         12.0447 
        1.54013         57.0485         11.9334 
        1.54627          56.919         11.8234 
        1.55241         56.5536         11.7147 
        1.55855         56.1596         11.6076 
        1.56467         55.7938         11.5021 
         1.5708         55.7522         11.3977 
        1.57695         55.3996         11.2944 
        1.58308         55.2801         11.1926 
        1.58922         55.0573          11.092 
        1.59535         54.7202         10.9927 
         1.6015         54.3698         10.8945 
        1.60764          54.256         10.7975 
        1.61376         53.9843          10.702 
        1.61989         53.4714         10.6076 
        1.62604         53.4133         10.5142 
        1.63218         53.1464         10.4219 
        1.63831          52.881         10.3309 
        1.64444         52.7173         10.2411 
        1.65059         52.2318          10.152 
        1.65673          52.072         10.0642 
        1.66285         51.9043         9.97762 
        1.66898         51.5452         9.89205 
        1.67512         51.3272         9.80733 
        1.68127         51.0129         9.72352 
         1.6874         50.9496         9.64089 
        1.69353         50.6008         9.55928 
        1.69967         50.4338         9.47843 
        1.70581         50.2835         9.39855 
        1.71193         49.9106          9.3199 
        1.71806         49.6426         9.24199 
        1.72421         49.4122         9.16482 
        1.73035         49.1969         9.08863 
        1.73649          48.956         9.01332 
        1.74262         48.7499         8.93894 
        1.74876         48.7232         8.86535 
        1.75489         48.2813         8.79275 
        1.76101         48.1148         8.72099 
        1.76715         47.8637         8.64994 
        1.77329         47.6403          8.5796 
        1.77943         47.5032         8.51002 
        1.78557         47.2944         8.44132 
        1.79171         46.9818         8.37337 
        1.79785         46.7811         8.30616 
        1.80399         46.5908         8.23971 
        1.81012          46.437         8.17408 
        1.81625         46.0858          8.1092 
        1.82239         45.9635         8.04493 
        1.82853          45.615         7.98139 
        1.83466         45.4952         7.91861 
        1.84078         45.1715         7.85657 
        1.84692         45.0722          7.7951 
        1.85306         44.8246         7.73422 
         1.8592         44.6549         7.67409 
        1.86533         44.3664         7.61464 
        1.87147         44.2563         7.55576 
        1.87761          44.157         7.49747 
        1.88375         43.8761         7.43988 
        1.88988         43.8186         7.38296 
        1.89601          43.495          7.3266 
        1.90215         43.3553         7.27079 
        1.90829         43.2191          7.2156 
        1.91442         42.9159         7.16098 
        1.92056          42.809         7.10697 
         1.9267         42.4888         7.05347 
        1.93284         42.2626          7.0005 
        1.93897         42.1943         6.94817 
        1.94509         41.9768         6.89649 
        1.95123         41.7869         6.84521 
        1.95737         41.5976         6.79442 
        1.96349         41.3838         6.74428 
        1.96964         41.1304          6.6945 
        1.97578         41.0763         6.64521 
        1.98192         40.8406         6.59651 
        1.98805         40.7023          6.5483 
        1.99419         40.4103         6.50057 
        2.00033         40.2265          6.4533 
        2.00647         40.0968         6.40652 
         2.0126         39.9182         6.36028 
        2.01874         39.7996         6.31443 
        2.02488         39.6854           6.269 
        2.03101         39.4082          6.2241 
        2.03714          39.195         6.17968 
        2.04328         39.0264         6.13565 
        2.04941         38.8677         6.09209 
        2.05554         38.6923         6.04899 
        2.06167         38.5291         6.00625 
        2.06781         38.3649         5.96391 
        2.07396         38.1417         5.92193 
        2.08009         38.0693         5.88043 
        2.08622         37.8635         5.83937 
        2.09237          37.727         5.79863 
        2.09851         37.5069         5.75827 
        2.10464           37.42         5.71837 
        2.11077         37.1488         5.67889 
        2.11691         37.1006          5.6397 
        2.12305         36.8692         5.60089 
        2.12918         36.8055         5.56253 
        2.13531         36.6226         5.52453 
        2.14145         36.4875          5.4868 
         2.1476         36.2335         5.44939 
        2.15372         36.1047         5.41251 
        2.15985         35.9851         5.37594 
        2.16599          35.857          5.3396 
        2.17213          35.758         5.30364 
        2.17827         35.3992         5.26802 
         2.1844         35.3294         5.23277 
        2.19054         35.1887         5.19782 
        2.19666         35.0307         5.16325 
         2.2028         34.9293         5.12897 
        2.20893         34.7752         5.09498 
        2.21508         34.6216         5.06126 
        2.22122         34.4216         5.02784 
        2.22736         34.3138         4.99479 
        2.23349         34.1772         4.96204 
        2.23962         33.9987         4.92958 
        2.24577         33.8167         4.89738 
         2.2519         33.6922         4.86551 
        2.25802         33.6014         4.83398 
        2.26417         33.4301         4.80265 
        2.27031         33.3233         4.77156 
        2.27644         33.1684         4.74084 
        2.28257         33.0537          4.7104 
        2.28872         32.8527         4.68016 
        2.29486         32.7253          4.6502 
        2.30099         32.6391         4.62057 
        2.30712         32.5215         4.59118 
        2.31326         32.3877           4.562 
         2.3194         32.2217         4.53309 
        2.32553         32.0843         4.50448 
        2.33166         31.9076         4.47614 
         2.3378         31.7957           4.448 
        2.34394         31.6573         4.42009 
        2.35007         31.5066         4.39246 
        2.35619         31.4216         4.36511 
        2.36233         31.2839         4.33793 
        2.36848         31.0798         4.31092 
        2.37462         30.9911          4.2842 
        2.38075         30.8474         4.25773 
        2.38689         30.7447         4.23147 
        2.39303         30.5885         4.20544 
        2.39916         30.4627         4.17965 
        2.40529         30.3217         4.15408 
        2.41143          30.231         4.12871 
        2.41757         30.0774         4.10354 
         2.4237         29.9635         4.07862 
        2.42983         29.8566         4.05392 
        2.43598         29.7251         4.02936 
        2.44211          29.601         4.00504 
        2.44823         29.4423         3.98098 
        2.45437         29.3531         3.95705 
        2.46052         29.2108          3.9333 
        2.46665         29.1415         3.90979 
        2.47279         28.9818         3.88648 
        2.47892         28.8429         3.86335 
        2.48507         28.7303         3.84038 
         2.4912         28.6475         3.81765 
