# k  (h/Mpc)    Pcb(k)  (Mpc/h)^3    Pcb_linear(k)  (Mpc/h)^3
     0.00783031         9843.64         9970.79 
       0.013688         12619.5         12535.5 
       0.019231         12931.4           12914 
      0.0249154         11927.3         12136.5 
      0.0312784         10552.5         10649.4 
      0.0375637         9106.09         9108.87 
      0.0433917         7780.97         7894.94 
      0.0492413         6934.92         6971.41 
      0.0555754         6125.58         6277.02 
      0.0619321         5820.71         5802.71 
       0.067871         5336.45         5456.58 
      0.0738098         5000.97         5120.42 
      0.0800417         4566.34         4726.31 
      0.0862327         4183.98          4284.9 
      0.0921407         3807.34          3843.7 
      0.0982031         3368.12         3412.25 
       0.104506         3081.15         3026.27 
       0.110769         2788.89         2727.86 
       0.116806          2573.6         2520.93 
       0.122832         2441.11         2378.12 
       0.129052         2284.87         2272.35 
       0.135211         2194.07            2182 
       0.141259         2120.61          2085.8 
       0.147318         2015.97         1970.71 
       0.153489         1860.43          1834.3 
       0.159709          1747.8         1686.93 
       0.165845         1651.46         1545.53 
       0.171974         1531.69         1420.52 
       0.178125         1441.52         1318.62 
       0.184229         1371.33         1242.09 
        0.19034         1285.14         1186.15 
       0.196428         1266.11         1143.93 
       0.202534         1230.17         1106.98 
       0.208729         1178.09         1067.83 
       0.214876          1125.3         1022.98 
       0.220989         1090.28         971.701 
       0.227147         1033.67         915.643 
        0.23329         987.212         859.385 
       0.239377         961.393         807.472 
       0.245482         894.705          762.22 
       0.251667         884.746         724.584 
       0.257832         851.176         694.758 
       0.263955         824.226         670.837 
       0.270079         796.089         650.011 
        0.27624         788.583         629.732 
       0.282372          756.54         608.383 
        0.28843         741.533         585.421 
       0.294538         705.077         560.664 
       0.300721         700.541         534.982 
        0.30691         668.272         510.029 
       0.313033         654.468         487.251 
       0.319153         635.371         467.141 
       0.325316         616.113         449.679 
        0.33145         599.473         434.747 
       0.337538         591.359         421.601 
       0.343633         573.607         409.325 
       0.349808         554.898         397.055 
       0.355968         550.407         384.527 
       0.362074          540.54         371.717 
       0.368217         525.414         358.586 
       0.374374         504.232         345.567 
       0.380519         500.682          333.09 
       0.386598         488.266         321.592 
       0.392688         485.438         311.082 
        0.39888         471.257         301.399 
       0.405048         462.211         292.632 
       0.411186         453.817         284.505 
       0.417313         445.403         276.737 
       0.423458         437.517         269.102 
       0.429607         429.051          261.47 
       0.435692         419.034          253.93 
       0.441815          415.76         246.422 
       0.447964         407.231         239.054 
       0.454126         395.838         231.967 
       0.460267          390.01         225.299 
       0.466387         385.657         219.064 
        0.47254         378.006         213.188 
       0.478662         376.851         207.694 
       0.484765         364.947         202.476 
       0.490885         361.222         197.419 
       0.497035         354.788         192.456 
       0.503198         348.814         187.583 
       0.509342         346.078         182.805 
       0.515458         342.033         178.145 
       0.521598         335.096         173.602 
       0.527764         329.408          169.21 
       0.533884         326.802         165.035 
           0.54         322.287         161.045 
       0.546137         320.893         157.222 
       0.552299         314.307         153.549 
       0.558452         311.902         150.021 
       0.564573         307.041         146.616 
       0.570708         301.686          143.29 
       0.576825         296.838         140.054 
       0.582926         294.265         136.908 
       0.589034          291.34         133.839 
       0.595184         288.501         130.835 
       0.601379           285.3         127.902 
       0.607522          280.31         125.091 
       0.613639         279.015         122.394 
       0.619772         272.645         119.787 
       0.625918          271.39          117.26 
       0.632068         267.436          114.81 
       0.638161         266.344         112.448 
         0.6443         261.892         110.131 
       0.650464         259.424         107.866 
       0.656582          257.83         105.677 
       0.662703         255.799         103.545 
       0.668861         251.288         101.459 
       0.675024         248.545          99.427 
       0.681124          247.57         97.4726 
       0.687237         244.337         95.5695 
       0.693381         240.739         93.7123 
       0.699536         238.803         91.9054 
       0.705665         237.517         90.1571 
       0.711789         234.477         88.4573 
       0.717957         233.356         86.7895 
        0.72409         230.656         85.1727 
       0.730186         227.929         83.6047 
       0.736317         225.628         82.0658 
       0.742472         224.519         80.5592 
       0.748622         222.718         79.0916 
        0.75476         220.918         77.6645 
       0.760888         217.889         76.2763 
       0.767043         217.639          74.918 
       0.773185         214.969         73.5971 
       0.779291         211.227         72.3165 
       0.785407         210.734         71.0651 
       0.791564          208.66         69.8357 
       0.797719         206.162         68.6359 
       0.803834          205.06         67.4715 
       0.809972         203.521         66.3298 
       0.816124         203.483         65.2118 
       0.822261         200.487         64.1226 
       0.828378         198.843         63.0616 
       0.834502         198.545          62.024 
       0.840667         195.418         61.0033 
       0.846816         194.147          60.009 
       0.852925         193.226         59.0434 
       0.859047         191.248         58.0974 
       0.865192         189.678         57.1693 
       0.871341         187.928         56.2611 
       0.877463         186.682          55.377 
       0.883569          185.66         54.5142 
       0.889708         184.049         53.6655 
       0.895864         181.827         52.8327 
       0.902008         181.164         52.0194 
       0.908149          180.44         51.2238 
       0.914301         178.336         50.4435 
       0.920448         177.021         49.6804 
       0.926574         176.119         48.9357 
       0.932687         175.633          48.208 
       0.938823         173.382         47.4926 
       0.944975         171.853         46.7902 
       0.951105         171.217         46.1046 
       0.957225          169.38          45.434 
       0.963368          167.64         44.7745 
       0.969511         167.128         44.1283 
       0.975621         166.098         43.4983 
       0.981748         165.613         42.8792 
       0.987916         163.655         42.2682 
        0.99406         162.493         41.6716 
        1.00019         162.262         41.0878 
        1.00632         160.691         40.5157 
        1.01246         159.684         39.9538 
        1.01859         158.679         39.4035 
        1.02471         157.407         38.8643 
        1.03085         155.854         38.3335 
        1.03698         155.178         37.8137 
        1.04314         153.918         37.3015 
        1.04929         152.797            36.8 
        1.05541         152.333         36.3098 
        1.06154         151.192         35.8274 
        1.06769         151.086         35.3531 
        1.07382         149.786          34.889 
        1.07993         148.491         34.4343 
        1.08607         147.591         33.9859 
        1.09222         146.973          33.545 
        1.09836         145.684         33.1126 
        1.10449         144.502         32.6883 
        1.11063         143.495          32.271 
        1.11677         143.179         31.8612 
         1.1229         141.696         31.4593 
        1.12903          141.03          31.064 
        1.13518         140.838         30.6751 
        1.14131         139.316         30.2932 
        1.14745           138.8          29.918 
        1.15359         137.774         29.5492 
        1.15973         137.392         29.1864 
        1.16584         135.951         28.8313 
        1.17197         135.372         28.4817 
        1.17811         134.564         28.1369 
        1.18424         133.901         27.7987 
        1.19038         133.461         27.4652 
        1.19652         132.438         27.1373 
        1.20267         131.627         26.8148 
        1.20881         130.571         26.4977 
        1.21495         130.002         26.1861 
        1.22108         129.365         25.8797 
         1.2272         128.241         25.5789 
        1.23334         127.674         25.2822 
        1.23949         126.485         24.9896 
        1.24562          126.08         24.7024 
        1.25174         124.856         24.4202 
        1.25789         124.446         24.1416 
        1.26402         123.854         23.8678 
        1.27014         123.049          23.599 
        1.27628         122.435         23.3335 
        1.28244         121.832         23.0716 
        1.28858         121.342         22.8142 
        1.29471          120.02         22.5612 
        1.30084         119.654         22.3123 
        1.30697         118.905         22.0668 
        1.31312         118.559         21.8247 
        1.31925         117.451          21.587 
        1.32537         117.024         21.3531 
        1.33151         115.895         21.1218 
        1.33765         115.569         20.8941 
        1.34378         114.801         20.6702 
        1.34992         114.626         20.4495 
        1.35606         113.806         20.2315 
         1.3622         112.908         20.0171 
        1.36833         112.444         19.8063 
        1.37445         111.698         19.5987 
        1.38059         111.276         19.3934 
        1.38675         110.399         19.1906 
        1.39288         110.004         18.9915 
        1.39901         109.597         18.7953 
        1.40515         108.846         18.6015 
         1.4113         107.896         18.4104 
        1.41742         107.782         18.2228 
        1.42355         106.927         18.0375 
         1.4297          106.37         17.8542 
        1.43585         105.563         17.6735 
        1.44198         105.341         17.4961 
        1.44809         104.545         17.3214 
        1.45423         103.874         17.1484 
        1.46036         103.676         16.9781 
        1.46649         102.961         16.8101 
        1.47263         102.398         16.6443 
        1.47877         102.056         16.4807 
        1.48491         101.139         16.3191 
        1.49104         100.835           16.16 
        1.49718         100.069          16.003 
        1.50333         99.6188         15.8478 
        1.50947         99.1369         15.6949 
         1.5156         98.6073         15.5443 
        1.52172         97.9837         15.3957 
        1.52787         97.6848         15.2488 
          1.534         97.0391         15.1039 
        1.54013         96.3703         14.9611 
        1.54627         96.0191         14.8199 
        1.55241          95.415         14.6805 
        1.55855         95.0964          14.543 
        1.56467         94.5766         14.4078 
         1.5708         93.9284         14.2738 
        1.57695         93.7812         14.1414 
        1.58308         92.7779          14.011 
        1.58922         92.7501         13.8821 
        1.59535         92.2109         13.7549 
         1.6015         91.6228         13.6291 
        1.60764         91.1416          13.505 
        1.61376         90.8641         13.3828 
        1.61989         90.2341         13.2619 
        1.62604         89.9175         13.1423 
        1.63218          89.452         13.0243 
        1.63831         88.7219          12.908 
        1.64444         88.4237          12.793 
        1.65059         87.8398         12.6792 
        1.65673         87.2259         12.5669 
        1.66285         87.0592         12.4563 
        1.66898         86.4583         12.3469 
        1.67512         86.0203         12.2387 
        1.68127         85.5924         12.1317 
         1.6874         85.1702         12.0261 
        1.69353         84.7091          11.922 
        1.69967         84.1557         11.8188 
        1.70581         83.9863         11.7168 
        1.71193         83.6573         11.6165 
        1.71806         82.9352         11.5171 
        1.72421         82.6065         11.4187 
        1.73035         82.1617         11.3216 
        1.73649         81.7336         11.2256 
        1.74262         81.3463         11.1308 
        1.74876         80.9751          11.037 
        1.75489         80.3277         10.9446 
        1.76101         80.1312         10.8532 
        1.76715         79.6358         10.7627 
        1.77329         79.3209         10.6731 
        1.77943         78.7604         10.5846 
        1.78557          78.581         10.4971 
        1.79171         78.0143         10.4107 
        1.79785         77.7021         10.3252 
        1.80399         77.3666         10.2407 
        1.81012         77.0432         10.1572 
        1.81625         76.4913         10.0748 
        1.82239         76.1721         9.99307 
        1.82853         75.9047         9.91233 
        1.83466         75.3979         9.83256 
        1.84078         75.1413         9.75376 
        1.84692         74.5561         9.67569 
        1.85306         74.2154         9.59839 
         1.8592         73.7565         9.52205 
        1.86533         73.5044         9.44659 
        1.87147         72.9698         9.37186 
        1.87761         72.7364         9.29791 
        1.88375         72.3934         9.22484 
        1.88988         72.0807         9.15264 
        1.89601         71.6039         9.08117 
        1.90215         71.3002         9.01041 
        1.90829         71.0677         8.94044 
        1.91442         70.5918         8.87121 
        1.92056         70.0622         8.80277 
         1.9267         69.9413         8.73498 
        1.93284         69.4353         8.66787 
        1.93897         69.0363         8.60159 
        1.94509         68.7294         8.53615 
        1.95123         68.4208         8.47122 
        1.95737         68.2336         8.40693 
        1.96349         67.6728         8.34347 
        1.96964          67.448         8.28048 
        1.97578         67.1853         8.21811 
        1.98192         66.7615         8.15652 
        1.98805         66.5927         8.09555 
        1.99419         66.0499          8.0352 
        2.00033         65.7704         7.97544 
        2.00647         65.5325          7.9163 
         2.0126         65.0194         7.85787 
        2.01874         64.7454         7.79993 
        2.02488         64.5527         7.74253 
        2.03101         64.2487         7.68582 
        2.03714         63.8092         7.62972 
        2.04328         63.6207         7.57413 
        2.04941         63.2152         7.51913 
        2.05554         62.8967         7.46472 
        2.06167         62.6129         7.41078 
        2.06781         62.3272         7.35736 
        2.07396         61.9699          7.3044 
        2.08009         61.7395         7.25204 
        2.08622         61.4515         7.20026 
        2.09237         61.0736         7.14889 
        2.09851         60.8931         7.09801 
        2.10464         60.4956         7.04771 
        2.11077         60.1129         6.99796 
        2.11691          59.898         6.94858 
        2.12305         59.6318         6.89968 
        2.12918         59.3297         6.85136 
        2.13531          58.981         6.80351 
        2.14145         58.7141           6.756 
         2.1476         58.5083         6.70889 
        2.15372         58.1824         6.66246 
        2.15985         57.8532         6.61643 
        2.16599         57.5771         6.57071 
        2.17213         57.3461         6.52546 
        2.17827         57.0339         6.48066 
         2.1844         56.6866         6.43631 
        2.19054          56.388         6.39236 
        2.19666         56.1679         6.34889 
         2.2028         56.0507         6.30578 
        2.20893         55.7402         6.26306 
        2.21508         55.4136         6.22068 
        2.22122         55.1921         6.17867 
        2.22736         54.9377         6.13715 
        2.23349         54.6694         6.09601 
        2.23962          54.298         6.05523 
        2.24577         54.0006         6.01479 
         2.2519         53.7293         5.97478 
        2.25802         53.6234         5.93519 
        2.26417         53.2633         5.89586 
        2.27031         53.0749         5.85684 
        2.27644         52.7932         5.81829 
        2.28257         52.5114         5.78009 
        2.28872         52.2479         5.74216 
        2.29486          52.044         5.70458 
        2.30099         51.8214         5.66742 
        2.30712         51.5681         5.63056 
        2.31326         51.2194         5.59398 
         2.3194         51.0156         5.55774 
        2.32553         50.7194         5.52188 
        2.33166         50.5133         5.48636 
         2.3378         50.2275          5.4511 
        2.34394         49.9215         5.41614 
        2.35007         49.6699         5.38153 
        2.35619          49.556         5.34727 
        2.36233         49.4265         5.31323 
        2.36848         49.0381         5.27941 
        2.37462         48.8125         5.24596 
        2.38075         48.6064         5.21283 
        2.38689         48.4239         5.17996 
        2.39303          48.208         5.14738 
        2.39916         48.0026         5.11511 
        2.40529         47.7416         5.08312 
        2.41143         47.5222         5.05138 
        2.41757         47.2277          5.0199 
         2.4237         47.1101         4.98875 
        2.42983          46.827         4.95787 
        2.43598         46.5658         4.92716 
        2.44211         46.3941         4.89677 
        2.44823         46.1321          4.8667 
        2.45437         45.9448          4.8368 
        2.46052         45.6048         4.80713 
        2.46665         45.4579         4.77775 
        2.47279         45.3062         4.74864 
        2.47892         45.0987         4.71975 
        2.48507         44.8207         4.69107 
         2.4912         44.6987         4.66268 
