# k  (h/Mpc)    P(k)  (Mpc/h)^3    P_linear(k)  (Mpc/h)^3
     0.00783031          4754.3         4801.75 
       0.013688         5760.01         5865.51 
       0.019231         5844.49         5899.51 
      0.0249154          5448.4         5442.21 
      0.0312784          4705.2         4724.48 
      0.0375637         4015.79         4048.35 
      0.0433917         3546.96         3548.18 
      0.0492413         3161.65         3180.16 
      0.0555754         2899.41          2896.8 
      0.0619321         2626.05         2676.33 
       0.067871         2464.11         2483.02 
      0.0738098         2268.82         2277.96 
      0.0800417         2048.34         2048.05 
      0.0862327         1814.35         1820.06 
      0.0921407         1621.99         1622.17 
      0.0982031         1466.85         1453.58 
       0.104506         1317.89         1320.38 
       0.110769         1226.95         1225.18 
       0.116806         1173.45         1157.03 
       0.122832         1103.05         1099.23 
       0.129052         1047.59         1039.16 
       0.135211         992.924           973.4 
       0.141259         915.252         902.915 
       0.147318          836.68         830.887 
       0.153489         776.527         762.087 
       0.159709         728.261          702.37 
       0.165845         667.321         655.021 
       0.171974         647.567         618.376 
       0.178125         618.986         589.367 
       0.184229         582.473         564.546 
        0.19034         565.996         540.329 
       0.196428         542.476         514.805 
       0.202534          505.12         487.393 
       0.208729         488.313         458.697 
       0.214876         464.782         431.007 
       0.220989         431.965         405.813 
       0.227147         419.688         383.764 
        0.23329         402.564         365.236 
       0.239377         391.625         349.729 
       0.245482         372.578         336.065 
       0.251667         357.109         323.128 
       0.257832         351.686         310.344 
       0.263955         331.818         297.409 
       0.270079         318.725           284.3 
        0.27624         304.361         271.287 
       0.282372          294.81          258.96 
        0.28843         291.119         247.729 
       0.294538         277.025         237.529 
       0.300721         266.031         228.299 
        0.30691          261.47         219.947 
       0.313033         250.389         212.277 
       0.319153         245.865         204.938 
       0.325316         237.778         197.703 
        0.33145         230.639         190.596 
       0.337538         222.816         183.673 
       0.343633         215.859         176.968 
       0.349808         209.185         170.504 
       0.355968         204.002         164.466 
       0.362074         199.347         158.895 
       0.368217         195.249         153.683 
       0.374374         190.528         148.781 
       0.380519         182.577         144.132 
       0.386598         178.931          139.71 
       0.392688         173.987          135.41 
        0.39888         170.533         131.162 
       0.405048         166.808         127.064 
       0.411186         164.023         123.136 
       0.417313         160.049         119.387 
       0.423458         155.888         115.811 
       0.429607          152.64         112.413 
       0.435692         150.097         109.218 
       0.441815         145.907         106.148 
       0.447964         141.683         103.189 
       0.454126         139.152         100.331 
       0.460267         137.908         97.5792 
       0.466387         134.704         94.9243 
        0.47254         133.102         92.3447 
       0.478662         128.593         89.8712 
       0.484765         126.773         87.4993 
       0.490885         124.007         85.2136 
       0.497035         123.018          83.008 
       0.503198         120.346         80.8857 
       0.509342         117.276         78.8489 
       0.515458         115.835         76.8923 
       0.521598         113.029         74.9934 
       0.527764         111.801         73.1492 
       0.533884         110.992         71.3779 
           0.54          108.03         69.6648 
       0.546137         105.489         68.0018 
       0.552299         103.963          66.388 
       0.558452         102.055         64.8321 
       0.564573         101.634         63.3364 
       0.570708         98.7302         61.8866 
       0.576825         97.7016         60.4878 
       0.582926         96.5935         59.1366 
       0.589034         94.9442         57.8254 
       0.595184         93.8068         56.5456 
       0.601379         91.5264         55.2956 
       0.607522         90.0866         54.0932 
       0.613639         89.3294         52.9316 
       0.619772         87.7725         51.8018 
       0.625918         86.8696         50.7036 
       0.632068         85.4465         49.6377 
       0.638161         84.0469         48.6127 
         0.6443         83.4928         47.6099 
       0.650464         81.7293         46.6322 
       0.656582         81.4237          45.689 
       0.662703         80.3568         44.7718 
       0.668861         78.5446         43.8747 
       0.675024         78.3956         43.0018 
       0.681124         77.2186         42.1617 
       0.687237          75.722         41.3428 
       0.693381         75.1806         40.5421 
       0.699536         74.3387         39.7615 
       0.705665         73.2227         39.0052 
       0.711789         72.2276         38.2695 
       0.717957         71.2951         37.5479 
        0.72409         70.6774         36.8492 
       0.730186         70.2453         36.1728 
       0.736317          68.974         35.5098 
       0.742472         68.1585         34.8613 
       0.748622         67.1938         34.2297 
        0.75476         66.5073         33.6154 
       0.760888         66.2987         33.0173 
       0.767043         65.0031         32.4315 
       0.773185         64.2795         31.8614 
       0.779291         63.5424         31.3084 
       0.785407         62.7357         30.7679 
       0.791564          62.726         30.2369 
       0.797719         61.7572         29.7188 
       0.803834         61.2295         29.2163 
       0.809972          60.588         28.7238 
       0.816124         59.9463         28.2417 
       0.822261         59.1694         27.7721 
       0.828378         58.9601         27.3147 
       0.834502         58.1542         26.8673 
       0.840667         57.7537         26.4272 
       0.846816         57.0188         25.9983 
       0.852925          56.534         25.5816 
       0.859047          56.382         25.1734 
       0.865192         55.4355         24.7728 
       0.871341         54.8155         24.3808 
       0.877463         54.4154          23.999 
       0.883569         54.2486         23.6266 
       0.889708         53.6669         23.2601 
       0.895864         53.1559         22.9006 
       0.902008         52.6361         22.5495 
       0.908149          52.109         22.2061 
       0.914301          51.773         21.8693 
       0.920448         51.4741         21.5399 
       0.926574         50.5989         21.2184 
       0.932687         50.3168         20.9043 
       0.938823          49.818         20.5955 
       0.944975         49.3204         20.2923 
       0.951105         48.9785         19.9963 
       0.957225         48.7238         19.7068 
       0.963368         48.2477         19.4221 
       0.969511         47.8194         19.1431 
       0.975621         47.4877         18.8711 
       0.981748         46.9855         18.6037 
       0.987916         46.6728         18.3399 
        0.99406         46.2553         18.0823 
        1.00019           45.89         17.8302 
        1.00632         45.5663         17.5832 
        1.01246         45.2012         17.3405 
        1.01859         44.8986         17.1029 
        1.02471           44.43           16.87 
        1.03085         44.2429         16.6407 
        1.03698         43.9567         16.4163 
        1.04314           43.61          16.195 
        1.04929         43.1365         15.9784 
        1.05541         42.9918         15.7666 
        1.06154         42.7247         15.5582 
        1.06769         42.1299         15.3533 
        1.07382         41.9719         15.1528 
        1.07993         41.6763         14.9564 
        1.08607         41.3551         14.7626 
        1.09222         41.1498         14.5721 
        1.09836         40.7728         14.3852 
        1.10449         40.5994         14.2019 
        1.11063         40.2154         14.0215 
        1.11677         40.1782         13.8444 
         1.1229          39.732         13.6707 
        1.12903          39.508         13.4998 
        1.13518          39.412         13.3317 
        1.14131         38.9998         13.1666 
        1.14745         38.6202         13.0044 
        1.15359         38.3007          12.845 
        1.15973         38.1983         12.6881 
        1.16584         37.9235         12.5346 
        1.17197         37.4699         12.3835 
        1.17811         37.3677         12.2344 
        1.18424         36.8839         12.0881 
        1.19038         36.8291         11.9439 
        1.19652         36.6079         11.8021 
        1.20267         36.4215         11.6627 
        1.20881         36.1498         11.5255 
        1.21495          35.993         11.3908 
        1.22108         35.8751         11.2582 
         1.2272         35.5684         11.1281 
        1.23334         35.3612         10.9998 
        1.23949         35.1095         10.8732 
        1.24562         34.8104          10.749 
        1.25174         34.6527         10.6269 
        1.25789         34.5745         10.5064 
        1.26402         34.3272         10.3879 
        1.27014         34.1371         10.2716 
        1.27628         33.8037         10.1567 
        1.28244          33.791         10.0434 
        1.28858         33.4787         9.93202 
        1.29471         33.2993         9.82255 
        1.30084         33.0553         9.71485 
        1.30697          32.937         9.60862 
        1.31312         32.6678         9.50383 
        1.31925         32.4281         9.40094 
        1.32537         32.2588          9.2997 
        1.33151         32.0556         9.19959 
        1.33765          32.008         9.10102 
        1.34378         31.8359         9.00409 
        1.34992         31.6035         8.90852 
        1.35606         31.4068         8.81414 
         1.3622          31.219          8.7213 
        1.36833          31.092         8.63003 
        1.37445         30.8521         8.54011 
        1.38059         30.7342         8.45121 
        1.38675         30.4868         8.36337 
        1.39288         30.3692         8.27714 
        1.39901         30.1833         8.19217 
        1.40515         30.0705         8.10821 
         1.4113         29.9978         8.02546 
        1.41742         29.8178         7.94419 
        1.42355         29.5497         7.86391 
         1.4297         29.4079          7.7845 
        1.43585         29.2323         7.70622 
        1.44198         29.1337         7.62933 
        1.44809         28.9586         7.55364 
        1.45423         28.8392          7.4787 
        1.46036         28.7116         7.40492 
        1.46649           28.54         7.33212 
        1.47263          28.359         7.26024 
        1.47877          28.248         7.18937 
        1.48491         28.1323         7.11933 
        1.49104         27.9318         7.05039 
        1.49718         27.8583         6.98231 
        1.50333         27.7391         6.91503 
        1.50947         27.5595         6.84878 
         1.5156         27.4186          6.7835 
        1.52172         27.2341         6.71908 
        1.52787         27.1495         6.65537 
          1.534         27.0026         6.59257 
        1.54013         26.9505         6.53065 
        1.54627         26.7065         6.46942 
        1.55241         26.5959         6.40896 
        1.55855         26.4967         6.34937 
        1.56467         26.4164         6.29071 
         1.5708         26.2534         6.23262 
        1.57695         26.1496         6.17518 
        1.58308         25.9171         6.11861 
        1.58922         25.8102         6.06271 
        1.59535         25.7285         6.00753 
         1.6015         25.6163         5.95296 
        1.60764          25.498          5.8991 
        1.61376         25.3911         5.84607 
        1.61989          25.183         5.79364 
        1.62604         25.1146         5.74175 
        1.63218         25.0159         5.69052 
        1.63831         24.8858         5.64004 
        1.64444         24.7749         5.59016 
        1.65059         24.6668         5.54077 
        1.65673         24.5698         5.49203 
        1.66285         24.4565         5.44401 
        1.66898         24.3265         5.39656 
        1.67512         24.2758         5.34958 
        1.68127         24.1512         5.30313 
         1.6874          24.027         5.25733 
        1.69353         23.9043          5.2121 
        1.69967         23.7949          5.1673 
        1.70581         23.6696         5.12305 
        1.71193         23.5297         5.07948 
        1.71806         23.4774         5.03633 
        1.72421         23.4053         4.99361 
        1.73035         23.2538         4.95142 
        1.73649          23.138         4.90974 
        1.74262         23.0296         4.86857 
        1.74876         22.9457         4.82785 
        1.75489         22.8554         4.78769 
        1.76101         22.7347         4.74799 
        1.76715         22.6767         4.70869 
        1.77329         22.5173          4.6698 
        1.77943         22.4595         4.63132 
        1.78557         22.3732         4.59334 
        1.79171         22.2475         4.55578 
        1.79785         22.1614         4.51863 
        1.80399          22.054         4.48191 
        1.81012         22.0004         4.44565 
        1.81625         21.8591         4.40981 
        1.82239          21.767         4.37431 
        1.82853         21.6842         4.33922 
        1.83466         21.5708         4.30455 
        1.84078         21.4942          4.2703 
        1.84692         21.4632         4.23637 
        1.85306         21.3265         4.20277 
         1.8592         21.2701         4.16958 
        1.86533         21.0993         4.13678 
        1.87147         21.0217         4.10429 
        1.87761         20.9512         4.07214 
        1.88375         20.9245         4.04037 
        1.88988         20.7631         4.00898 
        1.89601         20.7038          3.9779 
        1.90215         20.5874         3.94714 
        1.90829         20.5312         3.91671 
        1.91442         20.3722          3.8866 
        1.92056         20.3633         3.85684 
         1.9267         20.2654         3.82736 
        1.93284         20.2598         3.79818 
        1.93897         20.1371         3.76935 
        1.94509         20.0427         3.74089 
        1.95123         19.9138         3.71264 
        1.95737         19.8581         3.68468 
        1.96349         19.7711         3.65707 
        1.96964         19.7888         3.62967 
        1.97578         19.6209         3.60253 
        1.98192         19.5636         3.57573 
        1.98805         19.3984         3.54921 
        1.99419          19.414         3.52295 
        2.00033         19.3078         3.49694 
        2.00647         19.2393         3.47121 
         2.0126         19.1563         3.44578 
        2.01874         19.0755         3.42056 
        2.02488          18.942         3.39558 
        2.03101            18.9          3.3709 
        2.03714         18.8172         3.34648 
        2.04328         18.7767         3.32228 
        2.04941         18.6694         3.29834 
        2.05554         18.6442         3.27466 
        2.06167           18.57         3.25117 
        2.06781         18.4875         3.22792 
        2.07396         18.4546         3.20486 
        2.08009         18.3332         3.18206 
        2.08622         18.2664         3.15951 
        2.09237         18.2356         3.13714 
        2.09851         18.1003         3.11498 
        2.10464         18.0396         3.09308 
        2.11077         17.9863         3.07141 
        2.11691         17.9102          3.0499 
        2.12305         17.8561          3.0286 
        2.12918         17.7702         3.00755 
        2.13531         17.7171         2.98671 
        2.14145         17.6075         2.96601 
         2.1476         17.5212         2.94549 
        2.15372         17.5119         2.92526 
        2.15985          17.443         2.90521 
        2.16599         17.3629         2.88528 
        2.17213         17.3337         2.86557 
        2.17827         17.2152         2.84604 
         2.1844         17.1545         2.82672 
        2.19054         17.1391         2.80757 
        2.19666         17.0442         2.78862 
         2.2028         17.0063         2.76984 
        2.20893         16.8835         2.75121 
        2.21508         16.8364         2.73274 
        2.22122         16.7494         2.71444 
        2.22736         16.7558         2.69634 
        2.23349         16.6551          2.6784 
        2.23962         16.6146         2.66063 
        2.24577         16.5555           2.643 
         2.2519         16.4793         2.62555 
        2.25802         16.3651         2.60829 
        2.26417         16.3653         2.59114 
        2.27031         16.3062         2.57413 
        2.27644         16.2802         2.55732 
        2.28257         16.1527         2.54066 
        2.28872         16.1625         2.52412 
        2.29486         16.0836         2.50773 
        2.30099          15.989         2.49153 
        2.30712         15.9244         2.47545 
        2.31326         15.8729          2.4595 
         2.3194         15.8072         2.44369 
        2.32553         15.7716         2.42805 
        2.33166         15.6776         2.41255 
         2.3378         15.6583         2.39717 
        2.34394         15.5599         2.38192 
        2.35007         15.5262         2.36682 
        2.35619         15.4809         2.35187 
        2.36233         15.4053         2.33702 
        2.36848         15.3308         2.32227 
        2.37462          15.276         2.30767 
        2.38075         15.2421         2.29321 
        2.38689         15.2009         2.27887 
        2.39303         15.1165         2.26465 
        2.39916         15.0808         2.25057 
        2.40529          15.037         2.23661 
        2.41143         14.9614         2.22276 
        2.41757         14.8923         2.20902 
         2.4237         14.8509         2.19542 
        2.42983         14.8205         2.18194 
        2.43598         14.7611         2.16853 
        2.44211         14.6752         2.15526 
        2.44823         14.6564         2.14213 
        2.45437         14.6227         2.12908 
        2.46052         14.5371         2.11612 
        2.46665         14.5194          2.1033 
        2.47279         14.4252         2.09059 
        2.47892         14.3729         2.07797 
        2.48507         14.3326         2.06544 
         2.4912         14.2931         2.05305 
