# k  (h/Mpc)    Pcb(k)  (Mpc/h)^3    Pcb_linear(k)  (Mpc/h)^3
     0.00783031         12349.9         12419.4 
       0.013688         14823.4         15180.7 
       0.019231         15066.4         15274.4 
      0.0249154         14119.5         14093.7 
      0.0312784         12124.6         12236.9 
      0.0375637         10317.1         10486.7 
      0.0433917         9140.88         9191.74 
      0.0492413          8128.7         8238.76 
      0.0555754         7460.43         7504.96 
      0.0619321         6693.84         6933.98 
       0.067871         6302.43          6433.3 
      0.0738098         5829.33         5902.09 
      0.0800417         5263.91          5306.5 
      0.0862327         4666.21         4715.83 
      0.0921407         4193.78         4203.13 
      0.0982031         3815.71         3766.35 
       0.104506         3421.69         3421.24 
       0.110769         3193.63         3174.57 
       0.116806         3064.46         2998.02 
       0.122832          2878.7         2848.25 
       0.129052         2722.21         2692.63 
       0.135211         2609.85         2522.23 
       0.141259         2400.18          2339.6 
       0.147318         2202.33         2152.97 
       0.153489         2059.21         1974.71 
       0.159709         1961.66         1819.97 
       0.165845         1794.39         1697.29 
       0.171974         1752.35         1602.33 
       0.178125          1690.4         1527.17 
       0.184229         1567.56         1462.86 
        0.19034         1537.56         1400.11 
       0.196428         1486.11         1333.97 
       0.202534         1386.62         1262.94 
       0.208729         1355.21         1188.59 
       0.214876         1290.57         1116.84 
       0.220989          1215.8         1051.55 
       0.227147         1184.05         994.421 
        0.23329         1137.72          946.41 
       0.239377         1126.12         906.227 
       0.245482         1070.16         870.823 
       0.251667         1030.64           837.3 
       0.257832         1015.61         804.173 
       0.263955         964.488         770.656 
       0.270079         933.457         736.688 
        0.27624          894.38         702.968 
       0.282372         878.888         671.026 
        0.28843         867.963         641.927 
       0.294538         824.795         615.495 
       0.300721         804.985         591.579 
        0.30691         788.791         569.937 
       0.313033         755.615         550.061 
       0.319153         745.403         531.044 
       0.325316         734.431         512.296 
        0.33145         717.688         493.881 
       0.337538         692.308         475.942 
       0.343633         674.209         458.567 
       0.349808         658.808         441.819 
       0.355968         646.791         426.172 
       0.362074         624.898         411.737 
       0.368217         622.447         398.231 
       0.374374         612.171         385.528 
       0.380519         588.491         373.482 
       0.386598         583.247         362.023 
       0.392688         569.871         350.881 
        0.39888         555.397         339.874 
       0.405048         545.196         329.254 
       0.411186         543.741         319.075 
       0.417313         538.474         309.362 
       0.423458         522.283         300.096 
       0.429607         507.912         291.291 
       0.435692         501.665         283.011 
       0.441815         492.781         275.057 
       0.447964         483.832         267.389 
       0.454126         478.423         259.984 
       0.460267         470.692         252.852 
       0.466387         462.621         245.973 
        0.47254         455.853         239.289 
       0.478662         447.157         232.879 
       0.484765         442.077         226.733 
       0.490885         437.602          220.81 
       0.497035          428.87         215.095 
       0.503198         428.581         209.596 
       0.509342          418.94         204.318 
       0.515458         411.593         199.248 
       0.521598         406.596         194.327 
       0.527764         399.917         189.548 
       0.533884         397.431         184.958 
           0.54         392.493         180.519 
       0.546137          384.76          176.21 
       0.552299          383.76         172.028 
       0.558452         377.659         167.997 
       0.564573         374.481         164.121 
       0.570708         369.577         160.364 
       0.576825         362.782         156.739 
       0.582926         360.915         153.238 
       0.589034         355.224         149.841 
       0.595184         352.886         146.524 
       0.601379         347.376         143.285 
       0.607522         340.778         140.169 
       0.613639         339.776         137.159 
       0.619772         338.513         134.232 
       0.625918          332.44         131.386 
       0.632068         329.222         128.624 
       0.638161         326.885         125.968 
         0.6443          323.01          123.37 
       0.650464         318.962         120.836 
       0.656582         316.126         118.392 
       0.662703         314.145         116.015 
       0.668861          308.77         113.691 
       0.675024         307.384         111.429 
       0.681124          303.37         109.252 
       0.687237          301.55          107.13 
       0.693381         297.524         105.055 
       0.699536         295.837         103.033 
       0.705665         292.751         101.073 
       0.711789         290.546         99.1662 
       0.717957         287.396         97.2965 
        0.72409         283.893          95.486 
       0.730186         285.756         93.7331 
       0.736317         280.681         92.0152 
       0.742472         277.831         90.3346 
       0.748622         274.999         88.6981 
        0.75476         274.626         87.1062 
       0.760888         271.371         85.5563 
       0.767043         268.421         84.0385 
       0.773185         266.975         82.5612 
       0.779291         263.335         81.1282 
       0.785407         262.447         79.7276 
       0.791564         260.071         78.3517 
       0.797719         255.962         77.0093 
       0.803834          257.95         75.7072 
       0.809972         254.388         74.4309 
       0.816124         250.991         73.1817 
       0.822261         249.219         71.9648 
       0.828378         248.677         70.7795 
       0.834502         245.272         69.6203 
       0.840667         245.438         68.4798 
       0.846816         240.844         67.3683 
       0.852925         240.933         66.2888 
       0.859047         238.683         65.2309 
       0.865192         238.158         64.1928 
       0.871341         234.993         63.1769 
       0.877463         233.215         62.1878 
       0.883569          232.62         61.2226 
       0.889708         230.447         60.2731 
       0.895864         228.359         59.3415 
       0.902008         226.553         58.4318 
       0.908149         224.815         57.5418 
       0.914301         223.493          56.669 
       0.920448         222.852         55.8154 
       0.926574         220.616         54.9825 
       0.932687         219.912         54.1686 
       0.938823         217.847         53.3683 
       0.944975         217.084         52.5826 
       0.951105         214.768         51.8156 
       0.957225         213.262         51.0654 
       0.963368         212.934         50.3277 
       0.969511         209.567         49.6047 
       0.975621         208.215         48.8999 
       0.981748         207.556         48.2072 
       0.987916         206.646         47.5236 
        0.99406         204.912          46.856 
        1.00019          203.69         46.2027 
        1.00632         202.753         45.5626 
        1.01246         201.279         44.9338 
        1.01859         199.437          44.318 
        1.02471         197.972         43.7146 
        1.03085         196.901         43.1205 
        1.03698         195.968         42.5388 
        1.04314         195.541         41.9655 
        1.04929         194.261         41.4042 
        1.05541         192.982         40.8555 
        1.06154         191.209         40.3155 
        1.06769         190.123         39.7845 
        1.07382         189.451         39.2649 
        1.07993         187.494         38.7559 
        1.08607         186.771         38.2538 
        1.09222         185.386         37.7602 
        1.09836          184.75         37.2759 
        1.10449         183.207         36.8008 
        1.11063         182.076         36.3335 
        1.11677         181.222         35.8745 
         1.1229         180.041         35.4243 
        1.12903          178.93         34.9816 
        1.13518         177.789          34.546 
        1.14131          177.07         34.1182 
        1.14745         175.566         33.6979 
        1.15359         174.222         33.2847 
        1.15973         173.833         32.8783 
        1.16584         172.895         32.4805 
        1.17197         171.929         32.0888 
        1.17811         170.474         31.7024 
        1.18424          169.74         31.3236 
        1.19038         168.746         30.9499 
        1.19652         167.482         30.5824 
        1.20267         166.529          30.221 
        1.20881         165.408         29.8656 
        1.21495         165.262         29.5164 
        1.22108         163.956          29.173 
         1.2272         162.697         28.8359 
        1.23334         162.079         28.5034 
        1.23949         161.502         28.1753 
        1.24562         160.342         27.8534 
        1.25174         159.569         27.5371 
        1.25789         158.238         27.2247 
        1.26402         158.066         26.9178 
        1.27014         157.158         26.6164 
        1.27628         155.702         26.3188 
        1.28244         155.107         26.0252 
        1.28858         154.122         25.7365 
        1.29471         153.247         25.4528 
        1.30084         152.312         25.1737 
        1.30697          151.34         24.8985 
        1.31312         150.595         24.6269 
        1.31925         149.553         24.3603 
        1.32537         149.098          24.098 
        1.33151         148.436         23.8385 
        1.33765         147.127         23.5831 
        1.34378         147.001          23.332 
        1.34992         146.039         23.0843 
        1.35606         145.234         22.8398 
         1.3622         144.692         22.5992 
        1.36833         143.257         22.3627 
        1.37445         143.249         22.1297 
        1.38059         142.089         21.8993 
        1.38675         141.332         21.6717 
        1.39288         140.322         21.4482 
        1.39901         139.689         21.2281 
        1.40515         139.245         21.0105 
         1.4113         138.266         20.7961 
        1.41742         137.485         20.5855 
        1.42355         137.282         20.3775 
         1.4297         136.083         20.1717 
        1.43585         135.494         19.9688 
        1.44198         134.216         19.7696 
        1.44809         133.835         19.5735 
        1.45423          133.45         19.3793 
        1.46036         132.278         19.1881 
        1.46649         131.619         18.9994 
        1.47263         131.124         18.8132 
        1.47877         130.147         18.6295 
        1.48491         129.769         18.4481 
        1.49104         128.382         18.2694 
        1.49718         128.233          18.093 
        1.50333         127.744         17.9187 
        1.50947         126.948          17.747 
         1.5156         126.184         17.5778 
        1.52172         125.527         17.4109 
        1.52787         125.024         17.2458 
          1.534         124.329         17.0831 
        1.54013         123.638         16.9226 
        1.54627         122.839          16.764 
        1.55241         122.559         16.6073 
        1.55855         121.824         16.4529 
        1.56467         121.055         16.3009 
         1.5708         120.042         16.1504 
        1.57695         119.923         16.0015 
        1.58308         119.034         15.8549 
        1.58922         118.926         15.7101 
        1.59535           118.4         15.5671 
         1.6015         117.337         15.4257 
        1.60764         116.624         15.2861 
        1.61376         116.202         15.1487 
        1.61989         115.723         15.0128 
        1.62604         114.876         14.8784 
        1.63218         114.489         14.7456 
        1.63831         113.785         14.6148 
        1.64444         113.035         14.4856 
        1.65059         112.488         14.3576 
        1.65673         112.355         14.2313 
        1.66285          111.74         14.1069 
        1.66898         110.853         13.9839 
        1.67512         110.324         13.8622 
        1.68127         109.951         13.7418 
         1.6874         108.971         13.6231 
        1.69353         108.613         13.5059 
        1.69967         108.008         13.3898 
        1.70581         107.777         13.2752 
        1.71193         107.008         13.1623 
        1.71806         106.417         13.0505 
        1.72421         105.886         12.9397 
        1.73035         105.406         12.8304 
        1.73649           104.7         12.7224 
        1.74262         104.432         12.6158 
        1.74876         103.646         12.5102 
        1.75489         103.351         12.4062 
        1.76101         102.739         12.3033 
        1.76715         102.085         12.2015 
        1.77329         101.672         12.1007 
        1.77943         101.127          12.001 
        1.78557         100.832         11.9025 
        1.79171         100.268         11.8052 
        1.79785         99.4176          11.709 
        1.80399           99.34         11.6138 
        1.81012          98.475         11.5198 
        1.81625         98.0655          11.427 
        1.82239         97.6863          11.335 
        1.82853         97.0985         11.2441 
        1.83466         96.4393         11.1542 
        1.84078         96.3011         11.0655 
        1.84692         95.9709         10.9775 
        1.85306         95.3796         10.8905 
         1.8592         94.9648         10.8045 
        1.86533         94.2877         10.7195 
        1.87147         94.0039         10.6353 
        1.87761         93.1169          10.552 
        1.88375         92.8897         10.4697 
        1.88988         92.1793         10.3883 
        1.89601         92.1966         10.3078 
        1.90215         91.5285         10.2281 
        1.90829          90.923         10.1492 
        1.91442         90.5415         10.0712 
        1.92056         90.2186         9.99409 
         1.9267         89.6529          9.9177 
        1.93284         89.3431         9.84207 
        1.93897         88.8947         9.76737 
        1.94509         88.3666         9.69361 
        1.95123         87.9454         9.62043 
        1.95737         87.7073         9.54796 
        1.96349         87.2616         9.47642 
        1.96964         86.7772         9.40541 
        1.97578         86.2284         9.33511 
        1.98192          85.799         9.26566 
        1.98805         85.2325         9.19692 
        1.99419         85.1643         9.12888 
        2.00033         84.4331         9.06149 
        2.00647          84.099         8.99481 
         2.0126         83.7264         8.92891 
        2.01874         83.5927         8.86358 
        2.02488         82.9926         8.79884 
        2.03101         82.5127         8.73488 
        2.03714         82.1865         8.67161 
        2.04328         81.9202          8.6089 
        2.04941         81.4554         8.54687 
        2.05554         80.9884         8.48549 
        2.06167         80.4254         8.42464 
        2.06781         80.0281         8.36438 
        2.07396         79.7626         8.30462 
        2.08009         79.2208         8.24555 
        2.08622           79.07         8.18712 
        2.09237         78.7024         8.12915 
        2.09851         77.9665         8.07174 
        2.10464         77.8895         8.01497 
        2.11077         77.6083         7.95882 
        2.11691          77.224         7.90309 
        2.12305         76.7244         7.84789 
        2.12918         76.4005         7.79336 
        2.13531         75.9214         7.73934 
        2.14145         75.5599         7.68571 
         2.1476          75.388         7.63253 
        2.15372         74.8342         7.58012 
        2.15985         74.4327         7.52815 
        2.16599         74.1829         7.47652 
        2.17213          73.723         7.42544 
        2.17827         73.2583         7.37484 
         2.1844         73.0141         7.32477 
        2.19054           72.72         7.27514 
        2.19666         72.4948         7.22605 
         2.2028         71.9793         7.17737 
        2.20893         71.6755         7.12911 
        2.21508         71.2409         7.08125 
        2.22122         70.8748         7.03381 
        2.22736         70.6177         6.98691 
        2.23349         70.2015         6.94045 
        2.23962         70.0316         6.89438 
        2.24577         69.6024          6.8487 
         2.2519         69.2152         6.80349 
        2.25802         68.8925         6.75877 
        2.26417           68.53         6.71433 
        2.27031         68.2392         6.67024 
        2.27644         67.9514         6.62669 
        2.28257         67.6038         6.58352 
        2.28872         67.2203         6.54066 
        2.29486         67.0661          6.4982 
        2.30099         66.5542         6.45619 
        2.30712         66.3661         6.41455 
        2.31326         66.1167          6.3732 
         2.3194         65.7211         6.33224 
        2.32553         65.3669         6.29171 
        2.33166         65.0685         6.25155 
         2.3378         64.8216         6.21169 
        2.34394         64.4364         6.17217 
        2.35007         64.1697         6.13305 
        2.35619         63.8891         6.09432 
        2.36233         63.5728         6.05583 
        2.36848         63.2367          6.0176 
        2.37462         62.9398         5.97978 
        2.38075          62.652         5.94232 
        2.38689         62.2476         5.90515 
        2.39303         62.0808          5.8683 
        2.39916         61.7221         5.83181 
        2.40529         61.5296         5.79564 
        2.41143         61.2719         5.75974 
        2.41757         60.7888         5.72414 
         2.4237         60.7388          5.6889 
        2.42983         60.3843         5.65396 
        2.43598         60.1043         5.61923 
        2.44211         59.7032         5.58484 
        2.44823         59.5367         5.55083 
        2.45437         59.1359           5.517 
        2.46052         58.8221         5.48343 
        2.46665         58.5814         5.45019 
        2.47279         58.3346         5.41725 
        2.47892         58.1454         5.38456 
        2.48507         57.7932          5.3521 
         2.4912         57.5696         5.31998 
