# k  (h/Mpc)    Pcb(k)  (Mpc/h)^3    Pcb_linear(k)  (Mpc/h)^3
     0.00783031         4211.58         4257.42 
       0.013688         5633.75         5617.19 
       0.019231         6008.46         6006.59 
      0.0249154         5779.86         5850.56 
      0.0312784         5309.39         5341.66 
      0.0375637          4746.9         4749.08 
      0.0433917         4209.02         4254.64 
      0.0492413          3843.5         3861.49 
      0.0555754         3487.01         3549.11 
      0.0619321         3319.96         3316.59 
       0.067871         3079.09         3129.65 
      0.0738098         2886.32         2938.71 
      0.0800417         2646.94         2716.68 
      0.0862327          2430.2          2476.8 
      0.0921407         2220.01         2245.84 
      0.0982031         1995.17         2026.79 
       0.104506         1840.91         1834.92 
       0.110769         1692.94         1687.35 
       0.116806         1575.83         1582.48 
       0.122832         1507.45         1504.37 
       0.129052         1420.93         1438.03 
       0.135211         1357.42         1373.92 
       0.141259         1301.13          1304.4 
       0.147318         1231.13         1226.04 
       0.153489         1137.85         1140.41 
       0.159709         1065.76         1054.72 
       0.165845         1008.76         977.481 
       0.171974         937.903         912.186 
       0.178125         889.094          860.02 
       0.184229         853.472         819.999 
        0.19034          803.04         788.114 
       0.196428         789.257         760.189 
       0.202534         767.797         732.183 
       0.208729         732.267         701.294 
       0.214876         693.538         667.615 
       0.220989         672.108         632.254 
       0.227147         630.755         596.859 
        0.23329         602.813         563.956 
       0.239377         584.887         535.279 
       0.245482         547.862         511.032 
       0.251667          540.06         490.678 
       0.257832         522.436         473.483 
       0.263955         505.594          458.06 
       0.270079         489.871         442.964 
        0.27624         482.556         427.257 
       0.282372         463.125          410.83 
        0.28843         447.753         394.073 
       0.294538         428.705         377.275 
       0.300721         423.169         361.062 
        0.30691         403.631         346.215 
       0.313033         393.816         333.137 
       0.319153         378.718         321.636 
       0.325316         369.858         311.309 
        0.33145         358.803         301.856 
       0.337538         354.108         292.836 
       0.343633         343.026         283.867 
       0.349808         333.053         274.672 
       0.355968         327.402         265.439 
       0.362074         318.826         256.374 
       0.368217         310.594         247.558 
       0.374374         300.936         239.226 
       0.380519         295.172         231.512 
       0.386598         288.085         224.506 
       0.392688         284.477         218.025 
        0.39888         277.141         211.859 
       0.405048         271.645         206.003 
       0.411186          265.86          200.32 
       0.417313         260.383         194.729 
       0.423458         255.383          189.19 
       0.429607         249.319         183.733 
       0.435692         242.157         178.487 
       0.441815         240.634          173.42 
       0.447964         236.698         168.579 
       0.454126         226.935         164.001 
       0.460267         224.495           159.7 
       0.466387         221.386         155.628 
        0.47254         217.388         151.707 
       0.478662         215.119         147.939 
       0.484765         209.709          144.28 
       0.490885         206.455         140.687 
       0.497035         203.815         137.159 
       0.503198         198.558         133.722 
       0.509342         195.639         130.403 
       0.515458         193.059         127.219 
       0.521598          190.84         124.153 
       0.527764         187.818         121.206 
       0.533884         184.684         118.399 
           0.54         182.084         115.697 
       0.546137          180.75         113.074 
       0.552299         177.934          110.52 
       0.558452         174.343         108.041 
       0.564573         171.257         105.636 
       0.570708         169.331         103.287 
       0.576825         166.895         101.012 
       0.582926         164.411         98.8133 
       0.589034         161.469         96.6842 
       0.595184         160.046         94.6114 
       0.601379         158.594         92.5918 
       0.607522         154.774         90.6528 
       0.613639         154.697         88.7815 
       0.619772         151.119         86.9605 
       0.625918         149.913         85.1867 
       0.632068         148.206         83.4589 
       0.638161         146.708         81.7906 
         0.6443          144.73         80.1532 
       0.650464         143.014          78.554 
       0.656582         141.558         77.0109 
       0.662703         139.007         75.5117 
       0.668861           137.8          74.047 
       0.675024         136.209         72.6224 
       0.681124         134.844         71.2512 
       0.687237         132.565         69.9132 
       0.693381         131.202         68.6032 
       0.699536          129.76         67.3243 
       0.705665         130.421         66.0833 
       0.711789         126.945          64.875 
       0.717957         126.433         63.6888 
        0.72409         124.638         62.5394 
       0.730186         122.618         61.4258 
       0.736317          122.47         60.3339 
       0.742472         121.058         59.2649 
       0.748622         120.251         58.2233 
        0.75476         118.945         57.2094 
       0.760888         117.423         56.2216 
       0.767043         116.298         55.2536 
       0.773185         115.097         54.3107 
       0.779291         114.217         53.3956 
       0.785407          113.37         52.5006 
       0.791564         111.886         51.6207 
       0.797719          110.55         50.7618 
       0.803834         110.151         49.9281 
       0.809972         108.354         49.1104 
       0.816124         107.742         48.3095 
       0.822261         106.979         47.5289 
       0.828378         105.959         46.7681 
       0.834502         105.027         46.0236 
       0.840667         104.177         45.2906 
       0.846816         103.114         44.5759 
       0.852925         102.044         43.8813 
       0.859047         100.864         43.2002 
       0.865192         100.694         42.5316 
       0.871341          99.851         41.8768 
       0.877463         98.3576          41.239 
       0.883569         97.8225         40.6162 
       0.889708         97.3535         40.0033 
       0.895864         96.4312         39.4017 
       0.902008         95.7315         38.8138 
       0.908149         95.0748         38.2385 
       0.914301          94.112          37.674 
       0.920448         93.3761         37.1216 
       0.926574         92.8142         36.5824 
       0.932687         92.1731         36.0551 
       0.938823         90.8782         35.5365 
       0.944975         90.7161         35.0271 
       0.951105         89.8054         34.5295 
       0.957225          88.751         34.0427 
       0.963368         88.4855         33.5636 
       0.969511         87.9665         33.0939 
       0.975621         87.3819         32.6359 
       0.981748         86.4747         32.1854 
       0.987916         86.0441         31.7407 
        0.99406         85.6125         31.3062 
        1.00019         84.4007         30.8808 
        1.00632         84.2055         30.4638 
        1.01246         83.3566         30.0539 
        1.01859          82.513         29.6523 
        1.02471         82.8372         29.2587 
        1.03085         81.8547         28.8709 
        1.03698         81.1001         28.4911 
        1.04314         80.3079         28.1166 
        1.04929         80.1183         27.7497 
        1.05541         79.3706          27.391 
        1.06154         79.1297         27.0378 
        1.06769         78.4381         26.6903 
        1.07382           78.05         26.3502 
        1.07993         77.7813         26.0168 
        1.08607         77.0054         25.6879 
        1.09222         76.6925         25.3644 
        1.09836          76.087         25.0469 
        1.10449          75.618         24.7353 
        1.11063         74.8185         24.4286 
        1.11677         74.4856         24.1274 
         1.1229         74.2305         23.8318 
        1.12903         73.2374         23.5409 
        1.13518         73.2741         23.2548 
        1.14131         72.9754         22.9735 
        1.14745         72.0443         22.6972 
        1.15359         71.8326         22.4254 
        1.15973         71.1838          22.158 
        1.16584         70.7408         21.8961 
        1.17197         70.4793         21.6382 
        1.17811         70.0228         21.3837 
        1.18424         69.3681         21.1341 
        1.19038         69.3007         20.8878 
        1.19652          68.871         20.6455 
        1.20267         68.3649         20.4071 
        1.20881         67.9061         20.1726 
        1.21495          67.461         19.9422 
        1.22108         67.0409         19.7154 
         1.2272         66.4751         19.4928 
        1.23334         66.2526         19.2731 
        1.23949         66.0149         19.0563 
        1.24562         65.6772         18.8435 
        1.25174         65.2688         18.6342 
        1.25789         64.9181         18.4276 
        1.26402         64.4355         18.2245 
        1.27014         63.9454         18.0249 
        1.27628         63.7399         17.8278 
        1.28244         63.2148         17.6333 
        1.28858         62.9835          17.442 
        1.29471         62.7559          17.254 
        1.30084          62.355         17.0689 
        1.30697         61.8262         16.8863 
        1.31312         61.4336         16.7062 
        1.31925         61.3261         16.5293 
        1.32537         60.9589         16.3551 
        1.33151         60.5752         16.1828 
        1.33765         60.4481         16.0131 
        1.34378          60.118         15.8463 
        1.34992         59.3067         15.6817 
        1.35606         59.1433         15.5191 
         1.3622         58.7832         15.3591 
        1.36833          58.634         15.2018 
        1.37445         58.4681         15.0468 
        1.38059         58.1551         14.8935 
        1.38675         57.7352         14.7419 
        1.39288          57.447         14.5931 
        1.39901         57.0315         14.4465 
        1.40515         56.7868         14.3016 
         1.4113         56.6598         14.1587 
        1.41742         56.0457         14.0183 
        1.42355         56.0204         13.8796 
         1.4297         55.5714         13.7424 
        1.43585         55.4929         13.6071 
        1.44198         55.1086         13.4741 
        1.44809         54.7868         13.3432 
        1.45423         54.6325         13.2136 
        1.46036         54.3081         13.0859 
        1.46649         54.0133         12.9599 
        1.47263         53.7681         12.8355 
        1.47877         53.5436         12.7127 
        1.48491         53.2305         12.5914 
        1.49104         52.9769          12.472 
        1.49718         52.5603          12.354 
        1.50333         52.4121         12.2374 
        1.50947         52.0827         12.1225 
         1.5156         51.8313         12.0093 
        1.52172         51.5673         11.8976 
        1.52787          51.525          11.787 
          1.534         51.1191          11.678 
        1.54013         50.8073         11.5706 
        1.54627         50.7526         11.4642 
        1.55241         50.4419         11.3592 
        1.55855         50.1318         11.2557 
        1.56467         49.8055         11.1538 
         1.5708         49.6839         11.0528 
        1.57695         49.3391          10.953 
        1.58308          49.341         10.8546 
        1.58922         49.0385         10.7574 
        1.59535         48.6962         10.6614 
         1.6015         48.4937         10.5665 
        1.60764         48.3696         10.4727 
        1.61376         48.1263         10.3804 
        1.61989         47.6601         10.2891 
        1.62604         47.5961         10.1988 
        1.63218         47.2759         10.1095 
        1.63831         47.1173         10.0216 
        1.64444         46.9729         9.93467 
        1.65059         46.5361         9.84859 
        1.65673         46.4292         9.76362 
        1.66285         46.2607          9.6799 
        1.66898         45.9352         9.59715 
        1.67512         45.7672         9.51521 
        1.68127          45.461         9.43416 
         1.6874         45.4036         9.35424 
        1.69353         45.1331          9.2753 
        1.69967          44.971          9.1971 
        1.70581         44.7465         9.11983 
        1.71193         44.4387         9.04376 
        1.71806         44.2994         8.96839 
        1.72421         44.0163         8.89375 
        1.73035         43.9117         8.82004 
        1.73649         43.6917         8.74719 
        1.74262         43.4229         8.67523 
        1.74876         43.3854         8.60404 
        1.75489         43.0367          8.5338 
        1.76101         42.8531         8.46437 
        1.76715         42.6676         8.39562 
        1.77329         42.5017         8.32756 
        1.77943         42.3433         8.26023 
        1.78557         42.1173         8.19374 
        1.79171         41.8898         8.12798 
        1.79785         41.7393         8.06294 
        1.80399         41.5552         7.99862 
        1.81012         41.4083          7.9351 
        1.81625         41.1646          7.8723 
        1.82239          41.027         7.81009 
        1.82853         40.6827         7.74858 
        1.83466         40.5472         7.68781 
        1.84078         40.2885         7.62775 
        1.84692         40.2572         7.56824 
        1.85306          39.977          7.5093 
         1.8592         39.8576         7.45109 
        1.86533         39.5868         7.39353 
        1.87147         39.4928         7.33651 
        1.87761         39.4324         7.28008 
        1.88375         39.1421         7.22431 
        1.88988         39.0829         7.16919 
        1.89601         38.8058         7.11461 
        1.90215         38.6956         7.06057 
        1.90829         38.5377         7.00712 
        1.91442         38.2887         6.95422 
        1.92056         38.1878         6.90192 
         1.9267         37.9544         6.85011 
        1.93284         37.7686          6.7988 
        1.93897         37.6545         6.74811 
        1.94509          37.493         6.69806 
        1.95123         37.2957         6.64839 
        1.95737         37.1249         6.59919 
        1.96349         36.9593         6.55063 
        1.96964         36.7325         6.50241 
        1.97578         36.6788         6.45466 
        1.98192         36.4635         6.40749 
        1.98805         36.3365         6.36079 
        1.99419         36.1138         6.31455 
        2.00033          35.935         6.26876 
        2.00647         35.8211         6.22344 
         2.0126         35.6209         6.17864 
        2.01874         35.5329         6.13422 
        2.02488         35.4681          6.0902 
        2.03101         35.2611          6.0467 
        2.03714         35.0148         6.00366 
        2.04328         34.8782           5.961 
        2.04941         34.7455         5.91879 
        2.05554         34.6263         5.87702 
        2.06167         34.4405          5.8356 
        2.06781         34.3074         5.79458 
        2.07396         34.1206         5.75389 
        2.08009         34.0949         5.71367 
        2.08622         33.8851         5.67388 
        2.09237         33.7983         5.63439 
        2.09851         33.5825         5.59528 
        2.10464         33.4755          5.5566 
        2.11077          33.249         5.51834 
        2.11691         33.2556         5.48036 
        2.12305          33.011         5.44273 
        2.12918         32.9409         5.40555 
        2.13531         32.8034         5.36872 
        2.14145         32.6608         5.33214 
         2.1476         32.4326         5.29587 
        2.15372          32.346         5.26012 
        2.15985         32.1845         5.22466 
        2.16599         32.1113         5.18944 
        2.17213         31.9649         5.15457 
        2.17827         31.7384         5.12004 
         2.1844         31.6342         5.08586 
        2.19054         31.5587         5.05198 
        2.19666          31.403         5.01846 
         2.2028         31.3014         4.98521 
        2.20893         31.1362         4.95226 
        2.21508         31.0302         4.91956 
        2.22122         30.8322         4.88715 
        2.22736         30.7626          4.8551 
        2.23349         30.6301         4.82335 
        2.23962          30.495         4.79187 
        2.24577         30.3207         4.76064 
         2.2519         30.1968         4.72973 
        2.25802          30.123         4.69916 
        2.26417         29.9855         4.66876 
        2.27031         29.8794         4.63861 
        2.27644         29.7888         4.60882 
        2.28257         29.6648         4.57929 
        2.28872         29.4552         4.54997 
        2.29486         29.3633         4.52091 
        2.30099         29.2658         4.49216 
        2.30712          29.195         4.46366 
        2.31326         29.0565         4.43535 
         2.3194         28.8885         4.40731 
        2.32553         28.7888         4.37956 
        2.33166         28.6445         4.35206 
         2.3378         28.5211         4.32477 
        2.34394         28.4112          4.2977 
        2.35007         28.2634          4.2709 
        2.35619         28.1486         4.24436 
        2.36233         28.0627         4.21799 
        2.36848         27.9073         4.19178 
        2.37462         27.8244         4.16586 
        2.38075         27.7149         4.14018 
        2.38689         27.6314          4.1147 
        2.39303         27.4627         4.08944 
        2.39916         27.3868         4.06442 
        2.40529          27.232         4.03961 
        2.41143         27.1686         4.01499 
        2.41757          27.049         3.99057 
         2.4237         26.9078         3.96639 
        2.42983         26.8376         3.94242 
        2.43598         26.7323         3.91859 
        2.44211         26.5664         3.89499 
        2.44823         26.4728         3.87164 
        2.45437         26.3528         3.84842 
        2.46052         26.2651         3.82537 
        2.46665         26.2244         3.80255 
        2.47279         26.0701         3.77993 
        2.47892         25.9447         3.75748 
        2.48507         25.8461         3.73519 
         2.4912         25.7642         3.71312 
