# k  (h/Mpc)    P(k)  (Mpc/h)^3    P_linear(k)  (Mpc/h)^3
     0.00783031         4946.86         5010.79 
       0.013688          6621.2         6603.94 
       0.019231         7055.86         7058.21 
      0.0249154         6778.81         6872.84 
      0.0312784         6228.06         6273.76 
      0.0375637          5569.9         5577.07 
      0.0433917         4933.21         4996.01 
      0.0492413         4506.97         4534.08 
      0.0555754         4083.09         4167.09 
      0.0619321         3893.45         3893.94 
       0.067871            3605         3674.36 
      0.0738098         3378.97         3450.11 
      0.0800417         3096.03         3189.38 
      0.0862327         2844.18         2907.72 
      0.0921407         2600.64         2636.55 
      0.0982031         2336.97         2379.37 
       0.104506         2160.07         2154.09 
       0.110769         1986.66         1980.84 
       0.116806         1849.61         1857.71 
       0.122832         1769.14         1766.01 
       0.129052         1665.46         1688.13 
       0.135211         1591.43         1612.86 
       0.141259         1526.56         1531.24 
       0.147318         1444.93         1439.25 
       0.153489         1334.93         1338.73 
       0.159709         1252.58         1238.13 
       0.165845         1187.78         1147.46 
       0.171974         1105.68          1070.8 
       0.178125         1048.37         1009.57 
       0.184229         1006.66         962.582 
        0.19034         946.421         925.154 
       0.196428         931.322         892.373 
       0.202534         905.735         859.496 
       0.208729         864.234         823.233 
       0.214876          819.27         783.697 
       0.220989         794.635         742.188 
       0.227147         747.086         700.637 
        0.23329         714.738         662.012 
       0.239377         695.209         628.348 
       0.245482         650.555         599.886 
       0.251667         642.449         575.993 
       0.257832          621.28         555.808 
       0.263955         601.544         537.703 
       0.270079          582.79         519.981 
        0.27624         575.038         501.542 
       0.282372         551.569          482.26 
        0.28843         534.983         462.589 
       0.294538          511.56         442.869 
       0.300721         506.383         423.838 
        0.30691         483.069          406.41 
       0.313033         472.151         391.057 
       0.319153          455.31         377.557 
       0.325316         443.768         365.434 
        0.33145         430.998         354.338 
       0.337538         425.835         343.749 
       0.343633         412.517         333.221 
       0.349808         400.372         322.427 
       0.355968         394.722         311.589 
       0.362074         385.116         300.947 
       0.368217         375.168         290.598 
       0.374374         362.816         280.818 
       0.380519         356.856         271.762 
       0.386598         348.558         263.539 
       0.392688         344.925         255.931 
        0.39888         335.839         248.693 
       0.405048         329.298         241.818 
       0.411186          322.37         235.147 
       0.417313         316.394         228.585 
       0.423458         310.562         222.082 
       0.429607         303.419         215.677 
       0.435692         295.283         209.518 
       0.441815          293.48          203.57 
       0.447964         288.471         197.888 
       0.454126          277.06         192.514 
       0.460267         274.204         187.465 
       0.466387         270.816         182.685 
        0.47254         265.612         178.082 
       0.478662         263.458         173.659 
       0.484765         256.715         169.364 
       0.490885         253.049         165.146 
       0.497035         249.654         161.005 
       0.503198         243.462          156.97 
       0.509342         240.639         153.075 
       0.515458         237.545         149.337 
       0.521598         234.625         145.737 
       0.527764         230.858         142.278 
       0.533884         227.377         138.984 
           0.54         224.344         135.812 
       0.546137         223.013         132.733 
       0.552299         219.229         129.735 
       0.558452         215.522         126.824 
       0.564573         211.812         124.001 
       0.570708         209.009         121.244 
       0.576825         206.332         118.574 
       0.582926         203.564         115.992 
       0.589034         200.312         113.493 
       0.595184         198.616          111.06 
       0.601379         196.868         108.689 
       0.607522         192.407         106.413 
       0.613639         192.105         104.216 
       0.619772         187.756         102.079 
       0.625918          186.21         99.9967 
       0.632068         184.162         97.9686 
       0.638161         182.754         96.0102 
         0.6443         180.113         94.0882 
       0.650464         178.215         92.2109 
       0.656582         176.563         90.3996 
       0.662703         173.677         88.6397 
       0.668861         171.922         86.9204 
       0.675024         170.026         85.2481 
       0.681124         168.797         83.6384 
       0.687237         165.884         82.0679 
       0.693381         164.008         80.5301 
       0.699536         162.607         79.0288 
       0.705665         163.193         77.5722 
       0.711789          159.08         76.1537 
       0.717957         158.521         74.7613 
        0.72409         156.385         73.4121 
       0.730186         153.852         72.1049 
       0.736317         153.555         70.8231 
       0.742472         152.199         69.5683 
       0.748622          151.15         68.3456 
        0.75476         149.654         67.1555 
       0.760888         147.699         65.9959 
       0.767043         146.432         64.8596 
       0.773185         145.009         63.7528 
       0.779291         143.555         62.6786 
       0.785407          142.67         61.6279 
       0.791564         141.041         60.5951 
       0.797719         139.369         59.5868 
       0.803834         138.826         58.6082 
       0.809972         136.748         57.6484 
       0.816124         136.403         56.7083 
       0.822261          135.08         55.7919 
       0.828378         133.826         54.8989 
       0.834502         133.015         54.0249 
       0.840667         131.624         53.1645 
       0.846816         130.533         52.3255 
       0.852925          129.13         51.5102 
       0.859047         127.808         50.7107 
       0.865192         127.527         49.9258 
       0.871341         126.249         49.1572 
       0.877463         124.861         48.4085 
       0.883569         124.012         47.6775 
       0.889708          123.37          46.958 
       0.895864         122.255         46.2517 
       0.902008         121.414         45.5617 
       0.908149         120.662         44.8863 
       0.914301         119.302         44.2237 
       0.920448         118.644         43.5753 
       0.926574         117.905         42.9423 
       0.932687         117.148         42.3234 
       0.938823         115.601         41.7146 
       0.944975         115.177         41.1166 
       0.951105         114.177         40.5326 
       0.957225         112.798         39.9611 
       0.963368         112.446         39.3988 
       0.969511          111.84         38.8474 
       0.975621         111.302         38.3097 
       0.981748         110.266         37.7809 
       0.987916         109.442         37.2589 
        0.99406          108.95         36.7488 
        1.00019         107.606         36.2495 
        1.00632         107.299         35.7599 
        1.01246         106.237         35.2788 
        1.01859         105.067         34.8075 
        1.02471         105.579         34.3454 
        1.03085         104.397         33.8902 
        1.03698         103.415         33.4443 
        1.04314         102.489         33.0047 
        1.04929         102.131         32.5741 
        1.05541         101.363          32.153 
        1.06154         100.896         31.7383 
        1.06769         100.188         31.3305 
        1.07382          99.788         30.9312 
        1.07993         99.2809         30.5399 
        1.08607         98.3712         30.1538 
        1.09222         97.8793          29.774 
        1.09836         97.1691         29.4013 
        1.10449         96.5781         29.0355 
        1.11063         95.8562         28.6756 
        1.11677         95.3071          28.322 
         1.1229         94.7789          27.975 
        1.12903         93.6796         27.6336 
        1.13518         93.8465         27.2976 
        1.14131         93.2483         26.9675 
        1.14745         92.1092         26.6431 
        1.15359         91.8531         26.3241 
        1.15973         91.2901         26.0101 
        1.16584         90.6596         25.7028 
        1.17197         90.1386         25.4001 
        1.17811         89.6692         25.1013 
        1.18424         88.8054         24.8083 
        1.19038         88.5751         24.5191 
        1.19652         88.1476         24.2348 
        1.20267         87.4555         23.9549 
        1.20881         86.9354         23.6796 
        1.21495          86.325         23.4092 
        1.22108         85.8257          23.143 
         1.2272         85.2725         22.8816 
        1.23334         84.8797         22.6237 
        1.23949         84.4877         22.3692 
        1.24562         84.1733         22.1194 
        1.25174         83.5931         21.8738 
        1.25789         83.1368         21.6313 
        1.26402         82.5735         21.3928 
        1.27014         81.8861         21.1586 
        1.27628         81.6967         20.9272 
        1.28244         80.9377         20.6989 
        1.28858         80.6132         20.4743 
        1.29471         80.3546         20.2536 
        1.30084         79.8121         20.0364 
        1.30697         79.1578         19.8221 
        1.31312         78.7708         19.6106 
        1.31925         78.6321         19.4029 
        1.32537          78.094         19.1984 
        1.33151         77.5554         18.9962 
        1.33765         77.2577         18.7971 
        1.34378         76.8015         18.6012 
        1.34992         76.1276          18.408 
        1.35606          75.816         18.2171 
         1.3622         75.2457         18.0293 
        1.36833         75.1575         17.8446 
        1.37445         74.7229         17.6627 
        1.38059         74.2161         17.4827 
        1.38675         73.8702         17.3048 
        1.39288         73.3801         17.1302 
        1.39901         73.1448          16.958 
        1.40515         72.7762         16.7879 
         1.4113         72.3812         16.6202 
        1.41742         71.8789         16.4554 
        1.42355         71.6416         16.2926 
         1.4297         71.1495         16.1315 
        1.43585         70.8583         15.9727 
        1.44198         70.5631         15.8166 
        1.44809         70.0324         15.6629 
        1.45423         69.8651         15.5108 
        1.46036         69.3945         15.3609 
        1.46649          69.048          15.213 
        1.47263          68.731         15.0669 
        1.47877         68.4759         14.9229 
        1.48491         68.0594         14.7805 
        1.49104         67.6564         14.6403 
        1.49718          67.219         14.5018 
        1.50333         66.9833         14.3649 
        1.50947          66.525           14.23 
         1.5156         66.2656         14.0972 
        1.52172         66.0134          13.966 
        1.52787         65.7766         13.8362 
          1.534         65.4183         13.7083 
        1.54013         64.9909         13.5821 
        1.54627         64.8442         13.4573 
        1.55241          64.383         13.3341 
        1.55855         63.9373         13.2125 
        1.56467         63.5326         13.0929 
         1.5708         63.4461         12.9744 
        1.57695         63.0791         12.8572 
        1.58308           62.92         12.7417 
        1.58922         62.6107         12.6276 
        1.59535         62.2784         12.5149 
         1.6015         61.8661         12.4035 
        1.60764         61.7696         12.2934 
        1.61376         61.4103         12.1851 
        1.61989         60.8374         12.0779 
        1.62604          60.735         11.9718 
        1.63218         60.4672         11.8671 
        1.63831         60.1375         11.7639 
        1.64444         59.9757         11.6618 
        1.65059         59.3866         11.5608 
        1.65673         59.2278          11.461 
        1.66285         59.0361         11.3628 
        1.66898         58.6111         11.2656 
        1.67512         58.3312         11.1694 
        1.68127          57.999         11.0743 
         1.6874         57.8986         10.9805 
        1.69353         57.5048         10.8878 
        1.69967         57.3206          10.796 
        1.70581         57.1405         10.7053 
        1.71193         56.7048          10.616 
        1.71806         56.3641         10.5276 
        1.72421         56.1487         10.4399 
        1.73035         55.8778         10.3534 
        1.73649         55.5943         10.2679 
        1.74262          55.366         10.1834 
        1.74876         55.3162         10.0999 
        1.75489         54.7962         10.0174 
        1.76101         54.6438         9.93591 
        1.76715         54.3245         9.85521 
        1.77329         54.0715         9.77531 
        1.77943         53.9251         9.69627 
        1.78557         53.6934         9.61823 
        1.79171         53.3036         9.54104 
        1.79785         53.0837         9.46469 
        1.80399         52.8259         9.38919 
        1.81012         52.6557         9.31462 
        1.81625         52.2598          9.2409 
        1.82239         52.1003         9.16788 
        1.82853         51.7247         9.09568 
        1.83466         51.5802         9.02434 
        1.84078         51.1961         8.95384 
        1.84692         51.0696         8.88399 
        1.85306         50.7955          8.8148 
         1.8592         50.6079         8.74647 
        1.86533         50.2713          8.6789 
        1.87147         50.1272         8.61197 
        1.87761         49.9948         8.54573 
        1.88375         49.7177         8.48026 
        1.88988         49.6318         8.41556 
        1.89601          49.249          8.3515 
        1.90215         49.0713         8.28806 
        1.90829          48.899         8.22532 
        1.91442         48.5858         8.16322 
        1.92056         48.4343         8.10182 
         1.9267         48.0651           8.041 
        1.93284         47.8105         7.98077 
        1.93897         47.7106         7.92128 
        1.94509         47.4737         7.86252 
        1.95123         47.2718         7.80422 
        1.95737         47.0308         7.74647 
        1.96349         46.7793         7.68946 
        1.96964         46.4961         7.63286 
        1.97578         46.3982         7.57681 
        1.98192         46.1729         7.52144 
        1.98805         46.0216         7.46662 
        1.99419         45.6669         7.41235 
        2.00033         45.4406         7.35859 
        2.00647         45.3145         7.30539 
         2.0126         45.1038          7.2528 
        2.01874         44.9422         7.20066 
        2.02488         44.7701         7.14899 
        2.03101         44.5048         7.09792 
        2.03714         44.2312         7.04741 
        2.04328         44.0455         6.99733 
        2.04941         43.8397         6.94778 
        2.05554         43.6323         6.89875 
        2.06167         43.4688         6.85013 
        2.06781         43.2688         6.80197 
        2.07396         43.0067         6.75421 
        2.08009         42.9047           6.707 
        2.08622         42.6505         6.66029 
        2.09237          42.516         6.61394 
        2.09851         42.2388         6.56802 
        2.10464         42.1176         6.52262 
        2.11077         41.8743         6.47771 
        2.11691         41.7715         6.43312 
        2.12305         41.5021         6.38895 
        2.12918         41.3905         6.34531 
        2.13531         41.2153         6.30207 
        2.14145         41.0269         6.25914 
         2.1476         40.7768         6.21656 
        2.15372         40.6128         6.17459 
        2.15985         40.4897         6.13298 
        2.16599         40.3281         6.09162 
        2.17213         40.2465          6.0507 
        2.17827         39.8006         6.01017 
         2.1844         39.7147         5.97004 
        2.19054         39.5594         5.93027 
        2.19666         39.3687         5.89092 
         2.2028         39.2562          5.8519 
        2.20893         39.0605         5.81321 
        2.21508         38.8908         5.77483 
        2.22122         38.6613         5.73678 
        2.22736          38.503         5.69916 
        2.23349         38.3617         5.66189 
        2.23962         38.1591         5.62494 
        2.24577         37.9481         5.58828 
         2.2519         37.7859           5.552 
        2.25802         37.7293         5.51611 
        2.26417          37.495         5.48043 
        2.27031         37.3564         5.44504 
        2.27644         37.1711         5.41007 
        2.28257         37.0588         5.37541 
        2.28872          36.827         5.34098 
        2.29486         36.6717         5.30687 
        2.30099         36.5741         5.27313 
        2.30712         36.3942         5.23967 
        2.31326         36.2573         5.20644 
         2.3194         36.0864         5.17353 
        2.32553         35.9213         5.14095 
        2.33166         35.7335         5.10867 
         2.3378         35.6208         5.07663 
        2.34394         35.4283         5.04485 
        2.35007         35.2671         5.01339 
        2.35619         35.1763         4.98224 
        2.36233         34.9766         4.95129 
        2.36848         34.7852         4.92053 
        2.37462         34.6756          4.8901 
        2.38075         34.4717         4.85996 
        2.38689          34.353         4.83005 
        2.39303         34.2215         4.80039 
        2.39916          34.047         4.77102 
        2.40529          33.894          4.7419 
        2.41143         33.7794           4.713 
        2.41757            33.6         4.68433 
         2.4237         33.4857         4.65595 
        2.42983         33.3534         4.62781 
        2.43598         33.1877         4.59983 
        2.44211          33.084         4.57213 
        2.44823         32.8946         4.54473 
        2.45437         32.7641         4.51747 
        2.46052         32.6052         4.49041 
        2.46665         32.5025         4.46363 
        2.47279         32.3363         4.43708 
        2.47892         32.1721         4.41072 
        2.48507         32.0319         4.38455 
         2.4912         31.9204         4.35865 
