# k  (h/Mpc)    Pcb(k)  (Mpc/h)^3    Pcb_linear(k)  (Mpc/h)^3
     0.00783031         15810.9         15903.5 
       0.013688         18027.8           18499 
       0.019231         17435.8         17689.6 
      0.0249154           15498         15421.7 
      0.0312784         12526.4         12600.1 
      0.0375637         10197.5         10325.7 
      0.0433917          8861.9         8870.25 
      0.0492413         7876.63         7938.87 
      0.0555754         7278.01         7285.04 
      0.0619321         6537.47         6738.45 
       0.067871         6077.67         6169.24 
      0.0738098         5486.64         5505.95 
      0.0800417         4796.23         4769.07 
      0.0862327         4125.31         4096.99 
      0.0921407         3654.34         3584.29 
      0.0982031         3328.47         3212.98 
       0.104506         3019.24         2969.63 
       0.110769         2869.88         2816.59 
       0.116806          2774.1         2693.34 
       0.122832         2600.35         2549.36 
       0.129052         2414.75         2360.08 
       0.135211         2268.73         2142.45 
       0.141259         2040.04         1926.91 
       0.147318          1849.5          1736.8 
       0.153489         1720.72         1586.58 
       0.159709         1650.61         1481.29 
       0.165845         1528.47         1411.94 
       0.171974         1504.85         1359.71 
       0.178125         1454.38         1307.44 
       0.184229         1343.32         1244.84 
        0.19034         1304.08         1169.31 
       0.196428         1246.02          1086.7 
       0.202534         1148.47         1005.49 
       0.208729         1118.11         933.161 
       0.214876         1059.86         875.837 
       0.220989          1000.8         832.857 
       0.227147         976.656         799.858 
        0.23329         940.384         771.698 
       0.239377         931.536         743.511 
       0.245482         882.354         712.052 
       0.251667         846.564         676.596 
       0.257832         829.283         639.552 
       0.263955         783.791         603.961 
       0.270079         754.524          571.96 
        0.27624          722.51         544.705 
       0.282372         709.206         522.325 
        0.28843         699.307         503.621 
       0.294538         664.316         486.532 
       0.300721         648.076          469.45 
        0.30691         633.398         451.689 
       0.313033         604.777         433.318 
       0.319153         595.518         414.776 
       0.325316         585.357         396.719 
        0.33145         570.108         380.148 
       0.337538         548.663         365.433 
       0.343633          533.92         352.413 
       0.349808         520.983         340.584 
       0.355968          510.93         329.587 
       0.362074         491.858         319.029 
       0.368217         489.092         308.405 
       0.374374         480.595          297.74 
       0.380519         460.822         287.207 
       0.386598         456.019         277.121 
       0.392688          444.18         267.604 
        0.39888         433.007          258.62 
       0.405048         423.404          250.37 
       0.411186         422.508         242.761 
       0.417313         416.646         235.572 
       0.423458          404.97         228.616 
       0.429607         392.594         221.825 
       0.435692         387.269         215.223 
       0.441815         380.062         208.717 
       0.447964          372.03         202.407 
       0.454126          367.73         196.365 
       0.460267         361.467          190.65 
       0.466387         353.646         185.264 
        0.47254          349.22         180.143 
       0.478662         341.737         175.277 
       0.484765         336.673         170.598 
       0.490885         333.419         166.044 
       0.497035         325.998         161.599 
       0.503198         325.261         157.273 
       0.509342         317.933         153.093 
       0.515458         311.837          149.08 
       0.521598         307.556         145.214 
       0.527764         302.672         141.501 
       0.533884          300.06         137.968 
           0.54         296.057         134.568 
       0.546137         289.568         131.271 
       0.552299         288.097         128.066 
       0.558452         283.184         124.966 
       0.564573         281.435         121.977 
       0.570708         276.213         119.071 
       0.576825         271.375         116.265 
       0.582926         269.883         113.558 
       0.589034         264.896         110.938 
       0.595184         263.094         108.394 
       0.601379         258.838         105.919 
       0.607522         253.036         103.545 
       0.613639         252.275         101.253 
       0.619772         251.126         99.0227 
       0.625918         246.234         96.8509 
       0.632068         243.641         94.7405 
       0.638161         241.981         92.7111 
         0.6443         238.303         90.7274 
       0.650464         235.355         88.7968 
       0.656582         232.876         86.9389 
       0.662703          231.78         85.1354 
       0.668861         226.871         83.3739 
       0.675024         226.094         81.6614 
       0.681124         222.713         80.0139 
       0.687237         221.462         78.4079 
       0.693381         217.668          76.838 
       0.699536         216.926         75.3081 
       0.705665         214.273         73.8265 
       0.711789         211.669         72.3864 
       0.717957         210.055         70.9753 
        0.72409         207.035         69.6103 
       0.730186          208.07           68.29 
       0.736317         204.629         66.9972 
       0.742472         202.301         65.7334 
       0.748622         200.079         64.5037 
        0.75476         199.727         63.3081 
       0.760888         197.046         62.1447 
       0.767043         194.241         61.0059 
       0.773185         192.665          59.898 
       0.779291         190.852          58.824 
       0.785407          189.63         57.7748 
       0.791564         188.108         56.7448 
       0.797719         184.896         55.7405 
       0.803834         185.735          54.767 
       0.809972         183.211         53.8134 
       0.816124         180.306         52.8806 
       0.822261         179.323         51.9726 
       0.828378         178.554         51.0887 
       0.834502         176.454         50.2248 
       0.840667         176.319         49.3755 
       0.846816         172.857         48.5483 
       0.852925         172.712         47.7453 
       0.859047         170.868          46.959 
       0.865192          170.25         46.1879 
       0.871341         168.343         45.4336 
       0.877463         166.763         44.6998 
       0.883569         166.453          43.984 
       0.889708         164.924         43.2804 
       0.895864          162.91         42.5904 
       0.902008         161.558          41.917 
       0.908149          160.13         41.2586 
       0.914301         158.989         40.6133 
       0.920448         158.658         39.9825 
       0.926574         156.624         39.3673 
       0.932687         156.398         38.7665 
       0.938823         154.855          38.176 
       0.944975         154.286         37.5965 
       0.951105         152.461         37.0312 
       0.957225         151.345         36.4785 
       0.963368         150.945         35.9353 
       0.969511         148.955         35.4031 
       0.975621         147.133         34.8845 
       0.981748         146.952         34.3751 
       0.987916         146.133         33.8726 
        0.99406         144.907         33.3821 
        1.00019         144.124         32.9023 
        1.00632         142.969         32.4324 
        1.01246         142.004          31.971 
        1.01859         140.705         31.5193 
        1.02471          139.71          31.077 
        1.03085         138.762         30.6416 
        1.03698          138.01         30.2156 
        1.04314         137.525         29.7958 
        1.04929         136.606         29.3851 
        1.05541         135.921         28.9837 
        1.06154         134.427         28.5889 
        1.06769         133.706         28.2009 
        1.07382         132.826         27.8214 
        1.07993         131.754         27.4497 
        1.08607         131.536         27.0833 
        1.09222         130.085         26.7233 
        1.09836         129.423         26.3703 
        1.10449         128.664         26.0241 
        1.11063          127.47         25.6837 
        1.11677         126.948         25.3495 
         1.1229         126.004         25.0219 
        1.12903         124.912         24.6998 
        1.13518         124.182         24.3832 
        1.14131          123.85         24.0722 
        1.14745         122.655         23.7669 
        1.15359         121.904         23.4668 
        1.15973         121.382         23.1718 
        1.16584         120.498         22.8832 
        1.17197         119.983         22.5991 
        1.17811         118.907          22.319 
        1.18424         118.217         22.0444 
        1.19038         117.576         21.7737 
        1.19652         116.725         21.5076 
        1.20267         115.884          21.246 
        1.20881         115.097         20.9887 
        1.21495         114.969         20.7362 
        1.22108         113.934         20.4878 
         1.2272         113.442         20.2441 
        1.23334         112.655         20.0038 
        1.23949         112.111         19.7668 
        1.24562         111.194         19.5344 
        1.25174         111.039          19.306 
        1.25789         109.969         19.0806 
        1.26402          109.52         18.8592 
        1.27014         108.652         18.6418 
        1.27628          108.23         18.4272 
        1.28244         107.592         18.2157 
        1.28858         106.901         18.0077 
        1.29471         106.128         17.8034 
        1.30084         105.432         17.6025 
        1.30697         104.749         17.4044 
        1.31312         104.323         17.2091 
        1.31925         103.367         17.0174 
        1.32537         102.966         16.8288 
        1.33151          102.68         16.6424 
        1.33765         101.844         16.4589 
        1.34378         101.571         16.2786 
        1.34992         100.808         16.1008 
        1.35606         100.393         15.9253 
         1.3622         99.8996         15.7528 
        1.36833         99.0279         15.5832 
        1.37445         98.7835         15.4162 
        1.38059         98.0503         15.2511 
        1.38675         97.4939         15.0881 
        1.39288         96.8698         14.9281 
        1.39901         96.3128         14.7705 
        1.40515         95.8779         14.6148 
         1.4113         95.2848         14.4614 
        1.41742         94.9749         14.3108 
        1.42355          94.425         14.1621 
         1.4297          93.751          14.015 
        1.43585         93.3265         13.8701 
        1.44198         92.5622         13.7277 
        1.44809         92.1894         13.5877 
        1.45423         91.9645          13.449 
        1.46036         91.0448         13.3126 
        1.46649         90.6352          13.178 
        1.47263         90.0021         13.0452 
        1.47877         89.7099         12.9142 
        1.48491           89.21         12.7849 
        1.49104         88.5163         12.6576 
        1.49718         88.0989         12.5319 
        1.50333         87.6519         12.4077 
        1.50947          87.404         12.2855 
         1.5156         86.7996         12.1651 
        1.52172         86.1011         12.0463 
        1.52787         85.9349         11.9289 
          1.534         85.4146         11.8131 
        1.54013         84.8932         11.6991 
        1.54627         84.3689         11.5863 
        1.55241         84.2025          11.475 
        1.55855         83.4208         11.3653 
        1.56467         83.0152         11.2574 
         1.5708         82.2764         11.1505 
        1.57695         82.2022         11.0449 
        1.58308         81.6952         10.9409 
        1.58922         81.3852         10.8381 
        1.59535         81.1779         10.7367 
         1.6015         80.3911         10.6365 
        1.60764         79.9647         10.5376 
        1.61376         79.8085         10.4402 
        1.61989         79.2443          10.344 
        1.62604         78.8466         10.2488 
        1.63218         78.3316         10.1548 
        1.63831         77.9609         10.0622 
        1.64444         77.4706         9.97075 
        1.65059         77.0759         9.88021 
        1.65673         76.9539         9.79089 
        1.66285         76.4621         9.70292 
        1.66898          75.818         9.61601 
        1.67512         75.3621         9.52999 
        1.68127         75.1753         9.44494 
         1.6874         74.7259         9.36112 
        1.69353         74.3109         9.27837 
        1.69967         73.8404         9.19642 
        1.70581         73.5915         9.11549 
        1.71193         73.1383         9.03585 
        1.71806         72.7926         8.95698 
        1.72421         72.3374         8.87891 
        1.73035          71.941         8.80185 
        1.73649         71.6218         8.72572 
        1.74262         71.2624         8.65055 
        1.74876         70.7606         8.57621 
        1.75489         70.5735         8.50291 
        1.76101          70.314         8.43048 
        1.76715         69.7812         8.35879 
        1.77329         69.3788         8.28785 
        1.77943         69.1283          8.2177 
        1.78557         68.8608         8.14847 
        1.79171         68.3116         8.08002 
        1.79785         67.9783         8.01235 
        1.80399         67.7918         7.94546 
        1.81012         67.2178         7.87943 
        1.81625         66.9558         7.81417 
        1.82239         66.5055         7.74956 
        1.82853         66.2975         7.68571 
        1.83466         65.8771         7.62264 
        1.84078          65.581         7.56034 
        1.84692         65.3637         7.49864 
        1.85306         65.1671         7.43755 
         1.8592         64.7213         7.37723 
        1.86533         64.2924         7.31762 
        1.87147         63.9774         7.25859 
        1.87761         63.4217         7.20019 
        1.88375         63.3526          7.1425 
        1.88988         62.9176          7.0855 
        1.89601         62.8259         7.02909 
        1.90215         62.3979         6.97325 
        1.90829         61.9367         6.91805 
        1.91442         61.5752         6.86343 
        1.92056         61.4112         6.80946 
         1.9267         61.1014           6.756 
        1.93284          60.923         6.70309 
        1.93897         60.4403         6.65085 
        1.94509         60.2152         6.59927 
        1.95123         59.8519         6.54811 
        1.95737         59.6327         6.49746 
        1.96349          59.402         6.44747 
        1.96964         59.0356         6.39786 
        1.97578         58.6637         6.34875 
        1.98192         58.2843         6.30026 
        1.98805         57.9725         6.25226 
        1.99419         58.0026         6.20476 
        2.00033         57.4764         6.15774 
        2.00647         57.1307         6.11121 
         2.0126         56.9927         6.06524 
        2.01874         56.8222         6.01967 
        2.02488         56.4663         5.97453 
        2.03101         56.0493         5.92993 
        2.03714         55.8401         5.88584 
        2.04328         55.6666         5.84213 
        2.04941         55.3076         5.79891 
        2.05554         54.9461         5.75616 
        2.06167         54.6596         5.71378 
        2.06781          54.471         5.67182 
        2.07396         54.1175         5.63022 
        2.08009         53.9528         5.58911 
        2.08622         53.5968         5.54845 
        2.09237         53.3994         5.50812 
        2.09851          53.017         5.46819 
        2.10464         52.7554         5.42871 
        2.11077         52.6378         5.38968 
        2.11691         52.3565         5.35094 
        2.12305         52.0062         5.31257 
        2.12918         51.7478         5.27468 
        2.13531         51.5791         5.23715 
        2.14145         51.2248          5.1999 
         2.1476         51.1922         5.16297 
        2.15372         50.7352         5.12658 
        2.15985          50.543          5.0905 
        2.16599         50.3415         5.05467 
        2.17213         50.0576         5.01922 
        2.17827          49.681         4.98412 
         2.1844          49.484         4.94938 
        2.19054         49.3894         4.91496 
        2.19666         49.1234         4.88092 
         2.2028         48.8592         4.84717 
        2.20893         48.5268         4.81372 
        2.21508         48.3099         4.78055 
        2.22122         48.0071         4.74768 
        2.22736         47.8079         4.71519 
        2.23349          47.616         4.68301 
        2.23962         47.4469         4.65111 
        2.24577         47.1567         4.61948 
         2.2519         46.9093         4.58819 
        2.25802         46.7033         4.55724 
        2.26417         46.5097         4.52649 
        2.27031         46.3063         4.49599 
        2.27644         45.9371         4.46586 
        2.28257         45.8157         4.43601 
        2.28872         45.5258         4.40637 
        2.29486         45.3738         4.37701 
        2.30099         45.0588         4.34798 
        2.30712         44.8887          4.3192 
        2.31326         44.7054         4.29063 
         2.3194         44.4955         4.26233 
        2.32553         44.2148         4.23434 
        2.33166         44.0616         4.20661 
         2.3378         43.8266         4.17908 
        2.34394         43.6211          4.1518 
        2.35007         43.4149          4.1248 
        2.35619         43.2334         4.09806 
        2.36233         43.0476         4.07151 
        2.36848         42.7513         4.04513 
        2.37462         42.5628         4.01904 
        2.38075         42.3189         3.99321 
        2.38689         42.1189         3.96758 
        2.39303         42.0249         3.94218 
        2.39916         41.7676         3.91703 
        2.40529         41.6438          3.8921 
        2.41143         41.4361         3.86737 
        2.41757         41.1899         3.84284 
         2.4237          41.032         3.81857 
        2.42983         40.8411         3.79451 
        2.43598         40.6324         3.77059 
        2.44211         40.3871         3.74692 
        2.44823          40.268         3.72351 
        2.45437         39.9764         3.70023 
        2.46052         39.8005         3.67713 
        2.46665         39.5915         3.65427 
        2.47279         39.4489         3.63161 
        2.47892         39.2477         3.60912 
        2.48507         39.0868         3.58681 
         2.4912         38.8489         3.56472 
