# k  (h/Mpc)    P(k)  (Mpc/h)^3    P_linear(k)  (Mpc/h)^3
     0.00783031         318.604         321.647 
       0.013688         374.346         377.448 
       0.019231         366.778         367.792 
      0.0249154         329.423         329.258 
      0.0312784         277.774         277.468 
      0.0375637         232.628         232.481 
      0.0433917         201.745         201.156 
      0.0492413         179.382         179.202 
      0.0555754         163.287         162.777 
      0.0619321         149.334         149.785 
       0.067871         137.918         137.866 
      0.0738098         125.021         124.923 
      0.0800417         110.855         110.561 
      0.0862327          96.963         96.8108 
      0.0921407         85.5995          85.441 
      0.0982031         76.6069         76.2814 
       0.104506         69.4676         69.4575 
       0.110769         64.8069         64.7761 
       0.116806         61.5671         61.3597 
       0.122832         58.2016          58.189 
       0.129052         54.7312         54.5873 
       0.135211         50.7505           50.53 
       0.141259         46.4035         46.2818 
       0.147318         42.1858         42.1555 
       0.153489         38.5992         38.4617 
       0.159709         35.6642         35.4729 
       0.165845          33.252         33.2468 
       0.171974         31.7824         31.5744 
       0.178125         30.3627         30.2007 
       0.184229         28.9855          28.901 
        0.19034         27.6998         27.5053 
       0.196428           26.14         25.9758 
       0.202534         24.3997         24.3582 
       0.208729         22.9081          22.745 
       0.214876         21.5126         21.2848 
       0.220989         20.1527         20.0411 
       0.227147         19.2432         19.0106 
        0.23329         18.3996         18.1657 
       0.239377         17.6812          17.443 
       0.245482         16.9919         16.7639 
       0.251667         16.2302         16.0708 
       0.257832          15.596         15.3533 
       0.263955         14.8045         14.6237 
       0.270079         14.0881         13.9033 
        0.27624          13.368         13.2203 
       0.282372         12.7617         12.6047 
        0.28843         12.2931         12.0671 
       0.294538         11.7984         11.5903 
       0.300721          11.314         11.1566 
        0.30691         10.9684         10.7521 
       0.313033         10.5608         10.3638 
       0.319153         10.2385         9.97894 
       0.325316         9.76321         9.59298 
        0.33145         9.38255         9.21649 
       0.337538         9.04226         8.85764 
       0.343633         8.73192         8.52039 
       0.349808          8.3936          8.2047 
       0.355968         8.09695         7.91524 
       0.362074         7.86125          7.6499 
       0.368217         7.59676         7.39885 
       0.374374         7.39018          7.1583 
       0.380519         7.11875         6.92526 
       0.386598         6.87617         6.70026 
       0.392688         6.64651           6.481 
        0.39888         6.45155         6.26561 
       0.405048         6.25306         6.06073 
       0.411186         6.05306         5.86768 
       0.417313         5.87211         5.68564 
       0.423458         5.67602         5.51334 
       0.429607         5.54268         5.34968 
       0.435692         5.39501         5.19467 
       0.441815         5.22283          5.0444 
       0.447964         5.05902         4.89852 
       0.454126         4.93824         4.75686 
       0.460267         4.82064         4.62043 
       0.466387         4.67789         4.48958 
        0.47254         4.56017         4.36337 
       0.478662         4.43008         4.24309 
       0.484765          4.3178          4.1284 
       0.490885         4.19396         4.01826 
       0.497035         4.07389         3.91191 
       0.503198         3.98808         3.80921 
       0.509342         3.87217         3.71032 
       0.515458         3.78852         3.61517 
       0.521598         3.69777         3.52276 
       0.527764         3.61936         3.43304 
       0.533884         3.50717         3.34706 
           0.54         3.43462         3.26422 
       0.546137         3.34131         3.18411 
       0.552299         3.26891         3.10655 
       0.558452         3.19191          3.0318 
       0.564573         3.12367         2.95992 
       0.570708         3.05348         2.89022 
       0.576825         2.98529         2.82295 
       0.582926         2.91235         2.75798 
       0.589034         2.85855         2.69492 
       0.595184         2.80217          2.6334 
       0.601379         2.73144         2.57338 
       0.607522         2.66895         2.51575 
       0.613639         2.60613         2.46018 
       0.619772         2.56204          2.4062 
       0.625918         2.50753         2.35378 
       0.632068         2.45664         2.30292 
       0.638161         2.40548           2.254 
         0.6443         2.35373         2.20615 
       0.650464         2.30651         2.15951 
       0.656582         2.26951         2.11455 
       0.662703         2.22236         2.07087 
       0.668861         2.16712         2.02818 
       0.675024         2.12781         1.98669 
       0.681124         2.10708         1.94678 
       0.687237         2.05553          1.9079 
       0.693381          2.0059         1.86992 
       0.699536         1.98088          1.8329 
       0.705665         1.94291         1.79706 
       0.711789          1.8986         1.76221 
       0.717957         1.86512         1.72805 
        0.72409         1.83206         1.69499 
       0.730186         1.80818           1.663 
       0.736317          1.7666         1.63168 
       0.742472         1.74112         1.60105 
       0.748622         1.71244         1.57124 
        0.75476         1.67389         1.54226 
       0.760888         1.65202         1.51405 
       0.767043         1.60842         1.48645 
       0.773185         1.58814          1.4596 
       0.779291         1.57028         1.43356 
       0.785407         1.53938         1.40813 
       0.791564         1.51239         1.38315 
       0.797719         1.48615          1.3588 
       0.803834         1.46173         1.33519 
       0.809972         1.43798         1.31206 
       0.816124         1.41514         1.28944 
       0.822261         1.39314          1.2674 
       0.828378         1.36915         1.24596 
       0.834502         1.34671         1.22499 
       0.840667         1.32904         1.20437 
       0.846816         1.30571         1.18429 
       0.852925         1.28272          1.1648 
       0.859047         1.26343          1.1457 
       0.865192         1.24528         1.12697 
       0.871341         1.22814         1.10865 
       0.877463         1.20441         1.09083 
       0.883569         1.18802         1.07344 
       0.889708         1.17309         1.05634 
       0.895864         1.15544         1.03957 
       0.902008         1.13472          1.0232 
       0.908149         1.12005          1.0072 
       0.914301         1.10588        0.991516 
       0.920448          1.0906        0.976181 
       0.926574         1.07734        0.961226 
       0.932687          1.0606        0.946617 
       0.938823         1.04038         0.93226 
       0.944975         1.02958         0.91817 
       0.951105         1.00952        0.904423 
       0.957225         0.99778        0.890982 
       0.963368        0.985987         0.87777 
       0.969511        0.973794        0.864827 
       0.975621        0.957435        0.852215 
       0.981748        0.940489        0.839824 
       0.987916            0.93        0.827603 
        0.99406        0.920034        0.815671 
        1.00019        0.906474        0.803999 
        1.00632        0.897456        0.792567 
        1.01246        0.884433        0.781341 
        1.01859        0.873217        0.770352 
        1.02471        0.858247        0.759588 
        1.03085        0.846657        0.748993 
        1.03698        0.838439        0.738624 
        1.04314        0.827018        0.728408 
        1.04929        0.818863        0.718409 
        1.05541        0.804468        0.708639 
        1.06154        0.796664        0.699027 
        1.06769         0.78726        0.689579 
        1.07382        0.776632        0.680337 
        1.07993        0.766954        0.671285 
        1.08607        0.758091        0.662361 
        1.09222        0.747056        0.653591 
        1.09836        0.739606         0.64499 
        1.10449        0.728354        0.636555 
        1.11063        0.719434        0.628261 
        1.11677         0.71259        0.620118 
         1.1229         0.70122        0.612135 
        1.12903         0.69537        0.604285 
        1.13518        0.685871        0.596567 
        1.14131        0.679004        0.588988 
        1.14745        0.672508        0.581545 
        1.15359        0.662849         0.57423 
        1.15973        0.655917        0.567038 
        1.16584        0.647257        0.560002 
        1.17197         0.63907        0.553075 
        1.17811        0.631483        0.546245 
        1.18424        0.624586         0.53955 
        1.19038        0.616569        0.532949 
        1.19652        0.611891        0.526461 
        1.20267        0.605663        0.520081 
        1.20881        0.595878        0.513808 
        1.21495        0.590584        0.507649 
        1.22108        0.584538        0.501592 
         1.2272        0.576408        0.495649 
        1.23334        0.570901        0.489788 
        1.23949        0.565791        0.484008 
        1.24562        0.559173        0.478338 
        1.25174        0.553351        0.472768 
        1.25789        0.545467        0.467269 
        1.26402        0.540887        0.461868 
        1.27014        0.533343        0.456565 
        1.27628        0.529579         0.45133 
        1.28244         0.52378        0.446167 
        1.28858        0.517006        0.441093 
        1.29471        0.511987        0.436108 
        1.30084         0.50691        0.431205 
        1.30697        0.503101         0.42637 
        1.31312        0.497463        0.421602 
        1.31925        0.491838        0.416923 
        1.32537        0.487112        0.412319 
        1.33151        0.481662        0.407767 
        1.33765         0.47684        0.403288 
        1.34378         0.47119        0.398884 
        1.34992        0.468357        0.394543 
        1.35606        0.462246        0.390258 
         1.3622        0.458233        0.386044 
        1.36833        0.454336        0.381902 
        1.37445        0.449728        0.377823 
        1.38059        0.445135        0.373791 
        1.38675        0.440161        0.369809 
        1.39288        0.435294          0.3659 
        1.39901        0.432146         0.36205 
        1.40515         0.42746        0.358247 
         1.4113        0.424764          0.3545 
        1.41742        0.419986        0.350821 
        1.42355        0.414271        0.347187 
         1.4297        0.412262        0.343594 
        1.43585         0.40722        0.340053 
        1.44198        0.404202        0.336576 
        1.44809        0.399659        0.333153 
        1.45423        0.396541        0.329766 
        1.46036        0.392635        0.326433 
        1.46649        0.388799        0.323144 
        1.47263        0.384433        0.319898 
        1.47877        0.383239        0.316698 
        1.48491          0.3773        0.313537 
        1.49104        0.375972        0.310425 
        1.49718        0.371255        0.307354 
        1.50333         0.36848        0.304319 
        1.50947        0.365458        0.301332 
         1.5156        0.361741        0.298388 
        1.52172        0.358812        0.295485 
        1.52787        0.354527        0.292614 
          1.534        0.352528        0.289784 
        1.54013        0.349254        0.286995 
        1.54627        0.346391        0.284238 
        1.55241        0.343063        0.281516 
        1.55855        0.340071        0.278834 
        1.56467        0.337418        0.276194 
         1.5708        0.333979        0.273581 
        1.57695         0.33107        0.270997 
        1.58308        0.327384        0.268454 
        1.58922        0.325792         0.26594 
        1.59535        0.322333         0.26346 
         1.6015        0.319859        0.261009 
        1.60764        0.316966        0.258589 
        1.61376         0.31436        0.256207 
        1.61989        0.311595        0.253853 
        1.62604        0.308622        0.251524 
        1.63218        0.306992        0.249225 
        1.63831        0.303771         0.24696 
        1.64444        0.301726        0.244722 
        1.65059        0.298519        0.242507 
        1.65673        0.296354        0.240322 
        1.66285        0.294228        0.238169 
        1.66898        0.291626        0.236043 
        1.67512        0.288941        0.233938 
        1.68127        0.286454        0.231857 
         1.6874        0.284649        0.229806 
        1.69353        0.282037        0.227781 
        1.69967        0.279754        0.225775 
        1.70581        0.278031        0.223795 
        1.71193        0.275977        0.221846 
        1.71806         0.27349        0.219916 
        1.72421         0.27112        0.218005 
        1.73035         0.26869        0.216118 
        1.73649        0.267414        0.214255 
        1.74262        0.264419        0.212415 
        1.74876        0.262988        0.210596 
        1.75489        0.261045        0.208801 
        1.76101        0.258657        0.207028 
        1.76715        0.256866        0.205273 
        1.77329        0.254667        0.203536 
        1.77943        0.252579        0.201819 
        1.78557        0.251387        0.200123 
        1.79171        0.249405        0.198447 
        1.79785        0.247038         0.19679 
        1.80399        0.244673        0.195152 
        1.81012        0.243614        0.193535 
        1.81625        0.242037        0.191937 
        1.82239        0.240494        0.190355 
        1.82853        0.237918        0.188791 
        1.83466        0.236135        0.187246 
        1.84078        0.234432         0.18572 
        1.84692        0.232845        0.184209 
        1.85306        0.231306        0.182713 
         1.8592        0.229521        0.181235 
        1.86533        0.228086        0.179775 
        1.87147        0.225876        0.178329 
        1.87761        0.224321        0.176899 
        1.88375        0.222688        0.175486 
        1.88988        0.220841        0.174089 
        1.89601        0.218957        0.172708 
        1.90215        0.217875         0.17134 
        1.90829        0.215963        0.169987 
        1.91442        0.215039        0.168649 
        1.92056        0.213736        0.167327 
         1.9267        0.211789        0.166017 
        1.93284        0.209969        0.164721 
        1.93897        0.208779        0.163441 
        1.94509        0.207533        0.162177 
        1.95123        0.205529        0.160923 
        1.95737        0.204342        0.159682 
        1.96349        0.202867        0.158457 
        1.96964        0.201392        0.157242 
        1.97578        0.199898        0.156038 
        1.98192        0.199013         0.15485 
        1.98805        0.197613        0.153674 
        1.99419        0.196522         0.15251 
        2.00033        0.194797        0.151357 
        2.00647        0.193514        0.150217 
         2.0126        0.192274         0.14909 
        2.01874        0.191038        0.147973 
        2.02488        0.189743        0.146867 
        2.03101        0.188159        0.145774 
        2.03714        0.187689        0.144693 
        2.04328        0.185668        0.143622 
        2.04941         0.18498        0.142562 
        2.05554        0.183655        0.141514 
        2.06167        0.182322        0.140475 
        2.06781        0.180623        0.139446 
        2.07396        0.180049        0.138426 
        2.08009        0.178642        0.137418 
        2.08622        0.177671        0.136422 
        2.09237        0.176485        0.135433 
        2.09851        0.174995        0.134453 
        2.10464        0.174118        0.133485 
        2.11077        0.172731        0.132528 
        2.11691        0.171873        0.131578 
        2.12305        0.170572        0.130637 
        2.12918        0.169398        0.129708 
        2.13531        0.168533        0.128788 
        2.14145        0.167366        0.127874 
         2.1476        0.166397        0.126969 
        2.15372        0.165536        0.126076 
        2.15985         0.16415        0.125191 
        2.16599        0.163104        0.124313 
        2.17213        0.162368        0.123443 
        2.17827          0.1612        0.122582 
         2.1844         0.16038         0.12173 
        2.19054        0.159401        0.120886 
        2.19666        0.158406        0.120051 
         2.2028        0.156955        0.119223 
        2.20893        0.156331        0.118403 
        2.21508        0.155422        0.117589 
        2.22122        0.154569        0.116783 
        2.22736         0.15333        0.115986 
        2.23349        0.152266        0.115196 
        2.23962        0.151527        0.114414 
        2.24577        0.150752        0.113638 
         2.2519         0.14983         0.11287 
        2.25802        0.148812        0.112111 
        2.26417        0.148149        0.111356 
        2.27031        0.147093        0.110608 
        2.27644        0.146714        0.109869 
        2.28257         0.14547        0.109136 
        2.28872        0.144625        0.108409 
        2.29486        0.143828        0.107689 
        2.30099        0.142767        0.106976 
        2.30712        0.142051         0.10627 
        2.31326        0.141055        0.105569 
         2.3194        0.140414        0.104875 
        2.32553        0.139627        0.104188 
        2.33166        0.138774        0.103507 
         2.3378        0.137966        0.102832 
        2.34394        0.137179        0.102162 
        2.35007        0.136418        0.101499 
        2.35619        0.135678        0.100843 
        2.36233        0.134829        0.100192 
        2.36848        0.134081       0.0995443 
        2.37462         0.13358        0.098904 
        2.38075        0.132682         0.09827 
        2.38689        0.131988       0.0976409 
        2.39303        0.131226       0.0970175 
        2.39916        0.130394       0.0964001 
        2.40529        0.129655       0.0957882 
        2.41143        0.128744       0.0951811 
        2.41757        0.128182        0.094579 
         2.4237        0.127524       0.0939832 
        2.42983        0.126953       0.0933926 
        2.43598        0.126097       0.0928055 
        2.44211        0.125037       0.0922244 
        2.44823        0.124881       0.0916496 
        2.45437        0.124107       0.0910781 
        2.46052        0.123361        0.090511 
        2.46665        0.122711       0.0899497 
        2.47279        0.121968       0.0893933 
        2.47892        0.121616       0.0888413 
        2.48507        0.120569       0.0882934 
         2.4912        0.120134       0.0877512 
