# k  (h/Mpc)    Pcb(k)  (Mpc/h)^3    Pcb_linear(k)  (Mpc/h)^3
     0.00783031         1942.95         1957.88 
       0.013688         2270.59         2297.91 
       0.019231         2227.82         2239.28 
      0.0249154         2008.73         2004.75 
      0.0312784         1689.24         1689.46 
      0.0375637         1412.15         1415.56 
      0.0433917         1227.99         1224.83 
      0.0492413         1090.07         1091.16 
      0.0555754         994.821         991.159 
      0.0619321          903.75          912.05 
       0.067871          838.24          839.48 
      0.0738098         760.961         760.671 
      0.0800417         675.875         673.219 
      0.0862327         590.394         589.491 
      0.0921407         521.675          520.26 
      0.0982031         468.412         464.487 
       0.104506         422.875         422.935 
       0.110769         395.055         394.431 
       0.116806         377.026         373.628 
       0.122832         355.057         354.321 
       0.129052         334.632          332.39 
       0.135211         311.653         307.684 
       0.141259         284.436         281.816 
       0.147318         257.976         256.691 
       0.153489         236.948         234.199 
       0.159709         220.199             216 
       0.165845          203.86         202.445 
       0.171974         196.823         192.262 
       0.178125         187.996         183.897 
       0.184229         178.505         175.983 
        0.19034         171.514         167.484 
       0.196428         162.277         158.171 
       0.202534         150.522         148.321 
       0.208729         142.825         138.498 
       0.214876          134.87         129.606 
       0.220989         125.513         122.034 
       0.227147         121.055         115.758 
        0.23329         115.991         110.614 
       0.239377         111.989         106.213 
       0.245482          107.14         102.078 
       0.251667         102.185         97.8574 
       0.257832         99.3053         93.4888 
       0.263955         93.6663         89.0462 
       0.270079         89.3033         84.6598 
        0.27624         84.8072         80.5006 
       0.282372         81.3433          76.752 
        0.28843         79.3017          73.479 
       0.294538         75.9073         70.5749 
       0.300721         72.5919         67.9344 
        0.30691         70.9172         65.4716 
       0.313033         68.0876         63.1068 
       0.319153         66.5163         60.7631 
       0.325316         63.3534         58.4132 
        0.33145          60.936         56.1208 
       0.337538         58.8501         53.9356 
       0.343633         57.0342         51.8821 
       0.349808         54.9159         49.9598 
       0.355968         53.1019         48.1971 
       0.362074         51.9549         46.5815 
       0.368217         50.2909         45.0528 
       0.374374         49.0813          43.588 
       0.380519         47.0434         42.1691 
       0.386598         45.5719         40.7989 
       0.392688         44.0978         39.4638 
        0.39888         43.1368         38.1523 
       0.405048         41.9852         36.9048 
       0.411186         40.7468         35.7293 
       0.417313         39.5399         34.6208 
       0.423458         38.3074         33.5716 
       0.429607         37.6079         32.5751 
       0.435692         36.8897         31.6312 
       0.441815         35.4692         30.7161 
       0.447964         34.3474         29.8279 
       0.454126         33.7144         28.9653 
       0.460267         33.2501         28.1345 
       0.466387         32.2514         27.3378 
        0.47254         31.6875         26.5693 
       0.478662         30.6617         25.8369 
       0.484765         29.9681         25.1385 
       0.490885         29.0683         24.4678 
       0.497035         28.5179         23.8203 
       0.503198         27.9196         23.1949 
       0.509342         27.1013         22.5927 
       0.515458         26.7026         22.0133 
       0.521598         26.0653         21.4507 
       0.527764         25.6413         20.9044 
       0.533884         24.9776         20.3808 
           0.54         24.4975         19.8764 
       0.546137         23.7423         19.3886 
       0.552299         23.3097         18.9163 
       0.558452         22.7821         18.4611 
       0.564573         22.5057         18.0234 
       0.570708         21.9433          17.599 
       0.576825         21.5893         17.1894 
       0.582926         21.1632         16.7938 
       0.589034         20.7301         16.4098 
       0.595184         20.4597         16.0352 
       0.601379         19.8967         15.6697 
       0.607522         19.5351         15.3188 
       0.613639         19.1806         14.9804 
       0.619772         18.8442         14.6518 
       0.625918         18.4565         14.3326 
       0.632068         18.2584         14.0228 
       0.638161         17.8774          13.725 
         0.6443         17.5595         13.4336 
       0.650464          17.118         13.1496 
       0.656582         16.9913         12.8758 
       0.662703          16.753         12.6098 
       0.668861         16.2979         12.3499 
       0.675024         16.0493         12.0973 
       0.681124         15.9886         11.8543 
       0.687237         15.6329         11.6175 
       0.693381         15.2625         11.3862 
       0.699536         15.1757         11.1609 
       0.705665         14.8755         10.9426 
       0.711789         14.5962         10.7304 
       0.717957         14.2875         10.5224 
        0.72409         14.1527         10.3211 
       0.730186         14.0657         10.1263 
       0.736317         13.7453         9.93554 
       0.742472         13.5717         9.74903 
       0.748622         13.3537         9.56752 
        0.75476         13.0069         9.39105 
       0.760888         12.9426         9.21932 
       0.767043         12.6953         9.05124 
       0.773185         12.5375         8.88772 
       0.779291         12.4318          8.7292 
       0.785407         12.2032         8.57432 
       0.791564         12.0776         8.42225 
       0.797719         11.8183         8.27397 
       0.803834         11.7488         8.13021 
       0.809972         11.5145         7.98937 
       0.816124         11.3815         7.85159 
       0.822261          11.243         7.71743 
       0.828378         11.1006         7.58684 
       0.834502         10.9708         7.45917 
       0.840667         10.8466         7.33363 
       0.846816         10.6045         7.21134 
       0.852925           10.55         7.09263 
       0.859047         10.4031         6.97636 
       0.865192         10.2543         6.86232 
       0.871341         10.1164         6.75077 
       0.877463         9.98448         6.64221 
       0.883569         9.91174         6.53633 
       0.889708          9.7432         6.43222 
       0.895864         9.61878         6.33012 
       0.902008         9.49975         6.23046 
       0.908149         9.36227         6.13301 
       0.914301         9.29129          6.0375 
       0.920448         9.16693         5.94413 
       0.926574          9.1083         5.85306 
       0.932687         8.95343          5.7641 
       0.938823         8.82389         5.67668 
       0.944975         8.77022         5.59089 
       0.951105         8.63733         5.50718 
       0.957225         8.58426         5.42533 
       0.963368         8.45415         5.34488 
       0.969511         8.35961         5.26607 
       0.975621         8.26969         5.18928 
       0.981748         8.15012         5.11383 
       0.987916         8.08251         5.03941 
        0.99406         8.00465         4.96675 
        1.00019          7.9313         4.89568 
        1.00632         7.85911         4.82607 
        1.01246         7.75198         4.75771 
        1.01859         7.66733          4.6908 
        1.02471         7.56136         4.62525 
        1.03085         7.52649         4.56074 
        1.03698         7.44694          4.4976 
        1.04314           7.358         4.43539 
        1.04929         7.25627         4.37451 
        1.05541         7.20317         4.31502 
        1.06154         7.13512         4.25649 
        1.06769         7.09433         4.19896 
        1.07382         6.97074         4.14268 
        1.07993          6.9045         4.08756 
        1.08607         6.86746         4.03322 
        1.09222         6.77436         3.97982 
        1.09836         6.75027         3.92745 
        1.10449         6.62823         3.87608 
        1.11063         6.60463         3.82558 
        1.11677          6.5476           3.776 
         1.1229         6.48234         3.72739 
        1.12903         6.42769         3.67959 
        1.13518         6.33622         3.63259 
        1.14131         6.28409         3.58644 
        1.14745         6.20147         3.54112 
        1.15359         6.14879         3.49658 
        1.15973         6.09235         3.45279 
        1.16584         6.04706         3.40994 
        1.17197         5.98587         3.36776 
        1.17811         5.93109         3.32617 
        1.18424          5.8822         3.28541 
        1.19038         5.84137         3.24521 
        1.19652         5.79177          3.2057 
        1.20267         5.74302         3.16685 
        1.20881         5.67583         3.12866 
        1.21495         5.63249         3.09116 
        1.22108         5.58272         3.05427 
         1.2272         5.52567         3.01808 
        1.23334         5.51298          2.9824 
        1.23949         5.44019          2.9472 
        1.24562         5.40378         2.91268 
        1.25174         5.36846         2.87876 
        1.25789          5.2866         2.84527 
        1.26402         5.26482         2.81239 
        1.27014         5.22906          2.7801 
        1.27628         5.16654         2.74822 
        1.28244         5.14774         2.71678 
        1.28858          5.1077         2.68588 
        1.29471         5.03922         2.65553 
        1.30084         4.99547         2.62568 
        1.30697         4.98399         2.59624 
        1.31312         4.92935          2.5672 
        1.31925         4.89075         2.53871 
        1.32537          4.8583         2.51067 
        1.33151         4.81304         2.48296 
        1.33765         4.77492         2.45568 
        1.34378         4.76308         2.42887 
        1.34992         4.71251         2.40244 
        1.35606         4.67797         2.37634 
         1.3622         4.63678         2.35068 
        1.36833         4.60068         2.32546 
        1.37445         4.55926         2.30062 
        1.38059         4.52277         2.27607 
        1.38675           4.492         2.25182 
        1.39288         4.46626         2.22802 
        1.39901         4.41871         2.20458 
        1.40515         4.39717         2.18142 
         1.4113         4.35986          2.1586 
        1.41742         4.33362          2.1362 
        1.42355         4.29571         2.11407 
         1.4297         4.26749          2.0922 
        1.43585         4.24536         2.07063 
        1.44198         4.20592         2.04946 
        1.44809         4.18223         2.02862 
        1.45423          4.1479           2.008 
        1.46036         4.12369          1.9877 
        1.46649         4.09008         1.96767 
        1.47263         4.07077         1.94791 
        1.47877         4.03982         1.92842 
        1.48491         4.01518         1.90917 
        1.49104         3.98157         1.89023 
        1.49718         3.96311         1.87153 
        1.50333         3.92791         1.85305 
        1.50947         3.89456         1.83485 
         1.5156          3.8791         1.81693 
        1.52172         3.85336         1.79925 
        1.52787         3.82837         1.78177 
          1.534         3.80159         1.76454 
        1.54013         3.78182         1.74756 
        1.54627         3.74836         1.73077 
        1.55241         3.71975         1.71419 
        1.55855         3.70834         1.69786 
        1.56467         3.68481         1.68179 
         1.5708         3.65498         1.66588 
        1.57695         3.62167         1.65015 
        1.58308         3.59738         1.63465 
        1.58922         3.58853         1.61935 
        1.59535         3.56352         1.60425 
         1.6015         3.53162         1.58932 
        1.60764         3.51927         1.57459 
        1.61376         3.49158         1.56009 
        1.61989         3.46226         1.54575 
        1.62604         3.44522         1.53157 
        1.63218         3.43037         1.51757 
        1.63831         3.41399         1.50378 
        1.64444         3.38364         1.49015 
        1.65059         3.37139         1.47666 
        1.65673         3.34557         1.46336 
        1.66285         3.32685         1.45025 
        1.66898         3.30532          1.4373 
        1.67512         3.28269         1.42448 
        1.68127         3.26166         1.41181 
         1.6874         3.24742         1.39932 
        1.69353         3.22088         1.38699 
        1.69967         3.20513         1.37478 
        1.70581         3.18657         1.36272 
        1.71193         3.16269         1.35085 
        1.71806         3.14958          1.3391 
        1.72421         3.13217         1.32746 
        1.73035         3.11182         1.31598 
        1.73649         3.09386         1.30463 
        1.74262         3.07752         1.29343 
        1.74876         3.06476         1.28235 
        1.75489          3.0406         1.27142 
        1.76101         3.01992         1.26062 
        1.76715         3.01443         1.24994 
        1.77329         2.99228         1.23936 
        1.77943         2.97057          1.2289 
        1.78557         2.96001         1.21858 
        1.79171         2.94286         1.20838 
        1.79785         2.93124         1.19829 
        1.80399         2.90538         1.18831 
        1.81012         2.89603         1.17847 
        1.81625          2.8742         1.16873 
        1.82239         2.86519          1.1591 
        1.82853         2.84607         1.14958 
        1.83466         2.82178         1.14017 
        1.84078         2.80837         1.13088 
        1.84692         2.79567         1.12168 
        1.85306         2.78068         1.11257 
         1.8592         2.76945         1.10357 
        1.86533         2.75568         1.09468 
        1.87147         2.74292         1.08587 
        1.87761         2.72943         1.07716 
        1.88375         2.71065         1.06856 
        1.88988         2.69685         1.06006 
        1.89601         2.67885         1.05164 
        1.90215         2.66337         1.04331 
        1.90829         2.65916         1.03508 
        1.91442         2.63912         1.02693 
        1.92056         2.63319         1.01888 
         1.9267         2.61362          1.0109 
        1.93284         2.60533         1.00301 
        1.93897         2.58526        0.995215 
        1.94509         2.56848         0.98752 
        1.95123         2.56259        0.979887 
        1.95737           2.551        0.972329 
        1.96349         2.53312         0.96487 
        1.96964         2.52407        0.957468 
        1.97578          2.5103         0.95014 
        1.98192         2.49163        0.942903 
        1.98805          2.4856        0.935742 
        1.99419          2.4721        0.928654 
        2.00033          2.4524        0.921636 
        2.00647         2.45004        0.914692 
         2.0126         2.43769        0.907831 
        2.01874         2.42633        0.901031 
        2.02488         2.41531        0.894293 
        2.03101         2.39724        0.887638 
        2.03714         2.39024        0.881055 
        2.04328          2.3794        0.874533 
        2.04941         2.36617        0.868081 
        2.05554         2.35697        0.861699 
        2.06167         2.34375        0.855372 
        2.06781         2.33394        0.849108 
        2.07396         2.32162        0.842898 
        2.08009         2.31502         0.83676 
        2.08622         2.30432        0.830691 
        2.09237         2.29725        0.824669 
        2.09851         2.27785        0.818707 
        2.10464         2.26856        0.812813 
        2.11077         2.26423        0.806984 
        2.11691         2.24827        0.801199 
        2.12305         2.23614        0.795471 
        2.12918         2.22721        0.789812 
        2.13531         2.21915        0.784208 
        2.14145         2.20921        0.778645 
         2.1476         2.19253         0.77313 
        2.15372         2.18569        0.767696 
        2.15985         2.17695        0.762308 
        2.16599         2.16948        0.756957 
        2.17213         2.16248        0.751663 
        2.17827         2.14567        0.746421 
         2.1844         2.13808        0.741233 
        2.19054         2.12922        0.736093 
        2.19666          2.1218        0.731008 
         2.2028         2.10534        0.725967 
        2.20893         2.10477        0.720971 
        2.21508         2.09201        0.716017 
        2.22122          2.0794        0.711107 
        2.22736         2.07183        0.706253 
        2.23349         2.06202        0.701446 
        2.23962         2.05864        0.696681 
        2.24577         2.04414        0.691956 
         2.2519         2.03816        0.687282 
        2.25802         2.02748        0.682658 
        2.26417         2.02003        0.678063 
        2.27031         2.01102        0.673507 
        2.27644         2.00156        0.669006 
        2.28257         1.99367        0.664546 
        2.28872         1.98641        0.660118 
        2.29486         1.97525        0.655732 
        2.30099         1.96692        0.651394 
        2.30712         1.96168        0.647093 
        2.31326         1.95397        0.642824 
         2.3194         1.94269        0.638596 
        2.32553         1.93746        0.634413 
        2.33166           1.931         0.63027 
         2.3378         1.92335        0.626157 
        2.34394         1.91002         0.62208 
        2.35007         1.90213        0.618045 
        2.35619         1.89816         0.61405 
        2.36233         1.88922        0.610081 
        2.36848         1.88226        0.606139 
        2.37462         1.87499        0.602241 
        2.38075         1.86838         0.59838 
        2.38689         1.86108        0.594549 
        2.39303         1.85285        0.590753 
        2.39916         1.84567        0.586994 
        2.40529         1.83607        0.583268 
        2.41143         1.83137        0.579571 
        2.41757         1.82552        0.575905 
         2.4237         1.81433        0.572277 
        2.42983         1.81055        0.568681 
        2.43598         1.80492        0.565106 
        2.44211         1.79368        0.561567 
        2.44823           1.789        0.558067 
        2.45437         1.77924        0.554587 
        2.46052         1.77368        0.551134 
        2.46665         1.76888        0.547716 
        2.47279         1.75851        0.544328 
        2.47892         1.75504        0.540967 
        2.48507         1.74657        0.537631 
         2.4912          1.7428        0.534329 
