# k  (h/Mpc)    P(k)  (Mpc/h)^3    P_linear(k)  (Mpc/h)^3
     0.00783031         6251.45         6309.01 
       0.013688         7555.81         7707.79 
       0.019231          7673.4         7755.49 
      0.0249154         7145.64         7135.82 
      0.0312784         6113.07         6143.24 
      0.0375637         5142.73         5191.18 
      0.0433917         4476.92         4479.41 
      0.0492413         3935.34         3958.98 
      0.0555754            3581         3576.01 
      0.0619321         3239.72         3307.67 
       0.067871         3067.86         3095.19 
      0.0738098         2860.08         2874.04 
      0.0800417         2609.84         2613.06 
      0.0862327         2321.33         2332.87 
      0.0921407         2067.87         2069.66 
      0.0982031         1849.97         1829.32 
       0.104506         1631.61         1629.21 
       0.110769         1495.57         1484.64 
       0.116806            1420         1388.63 
       0.122832         1335.76         1320.71 
       0.129052         1279.24         1262.62 
       0.135211         1232.24         1202.52 
       0.141259         1149.63         1133.14 
       0.147318         1059.69         1052.94 
       0.153489         983.883         965.877 
       0.159709         918.217         881.129 
       0.165845         830.258         807.874 
       0.171974         797.305         749.057 
       0.178125          756.03          704.69 
       0.184229         707.254         672.342 
        0.19034         691.112         647.018 
       0.196428         668.594         623.965 
       0.202534         627.216         599.229 
       0.208729         612.614         570.576 
       0.214876         585.051          538.87 
       0.220989         543.209         505.959 
       0.227147         525.462         473.915 
        0.23329         500.879          445.23 
       0.239377         486.046          421.26 
       0.245482         460.118         401.757 
       0.251667         441.039         385.793 
       0.257832          435.71         372.287 
       0.263955          412.48         359.762 
       0.270079         397.785         346.969 
        0.27624         381.132         333.262 
       0.282372         370.425         318.799 
        0.28843         366.024         304.224 
       0.294538         346.939         289.925 
       0.300721         333.234         276.529 
        0.30691          326.98         264.601 
       0.313033         312.128         254.344 
       0.319153          306.46         245.416 
       0.325316         298.047         237.358 
        0.33145         289.978         229.827 
       0.337538         280.034         222.477 
       0.343633         271.377         215.027 
       0.349808         263.487         207.374 
       0.355968         257.329         199.731 
       0.362074         250.432         192.356 
       0.368217         246.198         185.315 
       0.374374         239.995         178.779 
       0.380519         229.941          172.82 
       0.386598         225.961         167.424 
       0.392688         219.836         162.427 
        0.39888         215.125         157.619 
       0.405048         210.605         152.988 
       0.411186         207.956         148.464 
       0.417313         203.307         143.992 
       0.423458         197.959          139.58 
       0.429607         193.335         135.282 
       0.435692         189.977         131.192 
       0.441815         185.448         127.283 
       0.447964          180.12          123.59 
       0.454126         177.055         120.103 
       0.460267         175.171         116.821 
       0.466387         171.253         113.706 
        0.47254         169.229         110.689 
       0.478662         163.741         107.769 
       0.484765         161.566         104.931 
       0.490885         158.565         102.157 
       0.497035         156.954         99.4418 
       0.503198         154.224          96.811 
       0.509342         150.142         94.2908 
       0.515458         148.247         91.8894 
       0.521598         144.654         89.5807 
       0.527764         143.163         87.3598 
       0.533884         142.383         85.2438 
           0.54         138.629         83.2051 
       0.546137         135.512         81.2224 
       0.552299         133.801         79.2865 
       0.558452         131.404         77.4079 
       0.564573         130.779         75.5933 
       0.570708         127.242         73.8297 
       0.576825         125.787         72.1271 
       0.582926         124.395         70.4848 
       0.589034         122.372         68.8967 
       0.595184         121.073         67.3539 
       0.601379         118.345         65.8532 
       0.607522         116.272         64.4127 
       0.613639          115.35         63.0211 
       0.619772         113.572          61.665 
       0.625918         112.689          60.344 
       0.632068         110.322         59.0597 
       0.638161         108.868         57.8235 
         0.6443          108.26         56.6137 
       0.650464          106.04         55.4346 
       0.656582         105.588         54.2981 
       0.662703         104.243         53.1941 
       0.668861         102.012         52.1158 
       0.675024         101.996         51.0678 
       0.681124         100.296         50.0602 
       0.687237         98.5785         49.0782 
       0.693381          97.872         48.1181 
       0.699536         96.6709         47.1817 
       0.705665         95.3837         46.2737 
       0.711789         94.1398         45.3901 
       0.717957         92.9989         44.5234 
        0.72409         92.2402         43.6842 
       0.730186         91.7375         42.8721 
       0.736317         90.1271         42.0768 
       0.742472         88.9442         41.2993 
       0.748622         87.6357         40.5427 
        0.75476         87.3973          39.807 
       0.760888         86.7894         39.0908 
       0.767043         85.0833         38.3896 
       0.773185         84.0789          37.707 
       0.779291         83.1613         37.0449 
       0.785407         82.2638         36.3977 
       0.791564         82.0523          35.762 
       0.797719         80.8954         35.1419 
       0.803834         80.3252         34.5405 
       0.809972         79.6686         33.9513 
       0.816124         78.6688         33.3746 
       0.822261         77.6711         32.8131 
       0.828378         77.4979         32.2663 
       0.834502         76.3761         31.7317 
       0.840667         75.8902         31.2059 
       0.846816         75.1638         30.6935 
       0.852925         74.2736          30.196 
       0.859047         74.0645         29.7086 
       0.865192         72.9827         29.2303 
       0.871341         72.1823         28.7623 
       0.877463         71.6761         28.3068 
       0.883569         71.5168         27.8623 
       0.889708         70.7998         27.4252 
       0.895864         70.1983         26.9963 
       0.902008         69.4891         26.5776 
       0.908149         68.6438          26.168 
       0.914301         68.3838         25.7665 
       0.920448         68.1543         25.3738 
       0.926574         66.7956         24.9908 
       0.932687         66.5568         24.6165 
       0.938823         66.0141         24.2486 
       0.944975          65.232         23.8874 
       0.951105          64.739         23.5349 
       0.957225         64.5411         23.1901 
       0.963368         63.9023         22.8512 
       0.969511          63.385          22.519 
       0.975621         62.8843         22.1953 
       0.981748         62.2904         21.8772 
       0.987916         61.8317         21.5633 
        0.99406         61.5132         21.2569 
        1.00019         60.7881          20.957 
        1.00632         60.3731         20.6632 
        1.01246         59.9786         20.3747 
        1.01859         59.7192         20.0922 
        1.02471         59.0504         19.8154 
        1.03085         58.6572         19.5429 
        1.03698         58.3136         19.2762 
        1.04314         57.8539         19.0133 
        1.04929         57.3714          18.756 
        1.05541         57.0857         18.5045 
        1.06154         56.7237         18.2571 
        1.06769         56.0698         18.0138 
        1.07382         55.6767         17.7757 
        1.07993         55.4756         17.5426 
        1.08607         55.0212         17.3127 
        1.09222          54.796         17.0866 
        1.09836         54.3192          16.865 
        1.10449         54.0262         16.6475 
        1.11063         53.5556         16.4336 
        1.11677         53.3971         16.2236 
         1.1229         52.8395         16.0176 
        1.12903         52.6483          15.815 
        1.13518         52.4904         15.6158 
        1.14131         51.9139         15.4202 
        1.14745         51.5275          15.228 
        1.15359         50.9907         15.0391 
        1.15973         50.9814         14.8533 
        1.16584         50.5867         14.6715 
        1.17197         50.0397         14.4925 
        1.17811         49.8635         14.3159 
        1.18424         49.2081         14.1428 
        1.19038         49.1526         13.9721 
        1.19652          48.928         13.8043 
        1.20267         48.5849         13.6393 
        1.20881         48.2593          13.477 
        1.21495          48.064         13.3176 
        1.22108          47.915         13.1608 
         1.2272         47.4043         13.0069 
        1.23334          47.177         12.8551 
        1.23949         46.8798         12.7055 
        1.24562         46.5503         12.5586 
        1.25174         46.2712         12.4143 
        1.25789         46.2053         12.2718 
        1.26402         45.8266         12.1318 
        1.27014         45.6557         11.9944 
        1.27628         45.1711         11.8587 
        1.28244         45.1376         11.7248 
        1.28858         44.7692         11.5932 
        1.29471         44.4864         11.4639 
        1.30084          44.133         11.3367 
        1.30697         44.1418         11.2113 
        1.31312         43.7226         11.0876 
        1.31925         43.3794         10.9661 
        1.32537         43.1962         10.8466 
        1.33151         42.9241         10.7285 
        1.33765         42.7787         10.6122 
        1.34378         42.5774         10.4978 
        1.34992         42.2579         10.3851 
        1.35606         41.9675         10.2738 
         1.3622         41.7999         10.1643 
        1.36833          41.615         10.0567 
        1.37445         41.2058         9.95068 
        1.38059         41.1398         9.84588 
        1.38675         40.7338         9.74234 
        1.39288         40.7058         9.64071 
        1.39901         40.3824         9.54057 
        1.40515         40.2321         9.44164 
         1.4113         40.1811         9.34415 
        1.41742         39.8764         9.24842 
        1.42355         39.5616         9.15385 
         1.4297         39.4114         9.06032 
        1.43585         39.1601         8.96814 
        1.44198         38.9159          8.8776 
        1.44809         38.6936         8.78848 
        1.45423         38.5819         8.70027 
        1.46036         38.4244         8.61342 
        1.46649         38.1903         8.52774 
        1.47263         37.9481         8.44315 
        1.47877         37.8034         8.35976 
        1.48491         37.6392         8.27736 
        1.49104         37.3362         8.19626 
        1.49718         37.2539         8.11618 
        1.50333          37.098         8.03705 
        1.50947         36.8313         7.95913 
         1.5156          36.684         7.88238 
        1.52172         36.4169         7.80663 
        1.52787         36.3072         7.73174 
          1.534         36.0641         7.65792 
        1.54013         36.0617         7.58514 
        1.54627         35.7032         7.51318 
        1.55241         35.5358         7.44215 
        1.55855         35.4633         7.37214 
        1.56467          35.229         7.30322 
         1.5708          35.119         7.23499 
        1.57695         34.9407         7.16753 
        1.58308         34.6438         7.10109 
        1.58922         34.5135         7.03545 
        1.59535         34.3971         6.97066 
         1.6015         34.3408          6.9066 
        1.60764         34.0748         6.84337 
        1.61376         33.8863         6.78112 
        1.61989          33.659         6.71959 
        1.62604         33.5439         6.65868 
        1.63218           33.37         6.59858 
        1.63831         33.2765         6.53935 
        1.64444         33.0983         6.48083 
        1.65059         32.9286         6.42289 
        1.65673          32.784         6.36572 
        1.66285         32.7103         6.30941 
        1.66898         32.4401         6.25376 
        1.67512         32.3822         6.19868 
        1.68127          32.191         6.14422 
         1.6874         32.0292         6.09053 
        1.69353          31.957         6.03751 
        1.69967         31.8122           5.985 
        1.70581         31.5646         5.93314 
        1.71193         31.4214         5.88209 
        1.71806         31.3377         5.83154 
        1.72421         31.1968         5.78148 
        1.73035          31.023         5.73207 
        1.73649         30.8174         5.68324 
        1.74262         30.6458         5.63503 
        1.74876         30.6395         5.58734 
        1.75489         30.4333          5.5403 
        1.76101         30.3284         5.49382 
        1.76715         30.2164         5.44782 
        1.77329         29.9679         5.40228 
        1.77943         29.9318         5.35724 
        1.78557         29.8186         5.31279 
        1.79171         29.6836         5.26883 
        1.79785         29.5374         5.22537 
        1.80399         29.3977          5.1824 
        1.81012         29.3237         5.13998 
        1.81625         29.0571         5.09805 
        1.82239         28.9772         5.05652 
        1.82853         28.8594         5.01548 
        1.83466         28.7228         4.97494 
        1.84078         28.5796         4.93488 
        1.84692         28.4832         4.89521 
        1.85306         28.3031         4.85592 
         1.8592         28.2778         4.81712 
        1.86533         28.1035         4.77877 
        1.87147         27.9677          4.7408 
        1.87761         27.8182         4.70322 
        1.88375         27.7738         4.66609 
        1.88988         27.6234         4.62941 
        1.89601         27.4492          4.5931 
        1.90215         27.3674         4.55715 
        1.90829         27.2885         4.52161 
        1.91442         27.1058         4.48644 
        1.92056         27.0232         4.45168 
         1.9267         26.9372         4.41725 
        1.93284         26.8203         4.38316 
        1.93897         26.7258          4.3495 
        1.94509         26.5866         4.31627 
        1.95123         26.4924          4.2833 
        1.95737         26.3414         4.25065 
        1.96349         26.2701         4.21843 
        1.96964         26.2134         4.18644 
        1.97578         25.9757         4.15478 
        1.98192         25.9051         4.12351 
        1.98805         25.7381         4.09255 
        1.99419         25.6978         4.06191 
        2.00033         25.5513         4.03157 
        2.00647           25.51         4.00155 
         2.0126          25.339         3.97189 
        2.01874         25.2486         3.94248 
        2.02488         25.1079         3.91335 
        2.03101         24.9812         3.88456 
        2.03714         24.9354         3.85609 
        2.04328         24.8229         3.82788 
        2.04941          24.703         3.79997 
        2.05554         24.6353         3.77236 
        2.06167         24.5046         3.74498 
        2.06781         24.4414         3.71788 
        2.07396          24.342           3.691 
        2.08009          24.195         3.66444 
        2.08622         24.1194         3.63817 
        2.09237         24.0683          3.6121 
        2.09851         23.8993         3.58629 
        2.10464         23.7656         3.56077 
        2.11077          23.762         3.53553 
        2.11691         23.6171         3.51048 
        2.12305         23.5346         3.48567 
        2.12918          23.437         3.46116 
        2.13531         23.3597         3.43689 
        2.14145         23.2451         3.41279 
         2.1476         23.1057         3.38889 
        2.15372         23.0724         3.36535 
        2.15985         22.9531           3.342 
        2.16599         22.8318         3.31881 
        2.17213         22.7807         3.29586 
        2.17827         22.6534         3.27314 
         2.1844         22.5879         3.25065 
        2.19054         22.5473         3.22837 
        2.19666         22.3903         3.20632 
         2.2028         22.3676         3.18447 
        2.20893         22.2261          3.1628 
        2.21508         22.1397         3.14132 
        2.22122         22.0327         3.12002 
        2.22736         22.0022         3.09897 
        2.23349         21.8414         3.07812 
        2.23962         21.7959         3.05745 
        2.24577         21.6922         3.03695 
         2.2519         21.6259         3.01666 
        2.25802         21.4854          2.9966 
        2.26417         21.4225         2.97666 
        2.27031          21.354         2.95688 
        2.27644          21.304         2.93735 
        2.28257         21.1925         2.91799 
        2.28872         21.1598         2.89876 
        2.29486         21.0399         2.87972 
        2.30099         20.9174         2.86088 
        2.30712         20.8723         2.84221 
        2.31326         20.7531         2.82367 
         2.3194         20.6914         2.80531 
        2.32553         20.6381         2.78714 
        2.33166         20.5121         2.76914 
         2.3378         20.4701         2.75127 
        2.34394          20.366         2.73356 
        2.35007         20.3098         2.71603 
        2.35619         20.2605         2.69867 
        2.36233         20.0973         2.68143 
        2.36848         20.0356          2.6643 
        2.37462         20.0007         2.64735 
        2.38075         19.9174         2.63057 
        2.38689         19.7946         2.61392 
        2.39303         19.7541         2.59742 
        2.39916         19.6371         2.58108 
        2.40529         19.5969         2.56488 
        2.41143         19.4939          2.5488 
        2.41757         19.3916         2.53286 
         2.4237         19.3515         2.51708 
        2.42983         19.2802         2.50144 
        2.43598         19.1779         2.48589 
        2.44211         19.1325          2.4705 
        2.44823         19.0398         2.45528 
        2.45437         19.0209         2.44014 
        2.46052         18.9059         2.42511 
        2.46665         18.8764         2.41024 
        2.47279         18.7518          2.3955 
        2.47892         18.6854         2.38087 
        2.48507         18.6309         2.36635 
         2.4912         18.5496         2.35198 
