# k  (h/Mpc)    Pcb(k)  (Mpc/h)^3    Pcb_linear(k)  (Mpc/h)^3
     0.00783031         244.611          246.91 
       0.013688         281.841         284.109 
       0.019231         267.832         268.535 
      0.0249154         230.838          230.72 
      0.0312784           184.6         184.243 
      0.0375637         146.786         146.537 
      0.0433917         122.708         122.253 
      0.0492413          107.18             107 
      0.0555754         97.6972         97.3682 
      0.0619321         90.6408         90.8918 
       0.067871          84.797         84.8037 
      0.0738098         77.2356         77.2437 
      0.0800417         67.9095         67.7953 
      0.0862327         58.1337          58.061 
      0.0921407         49.8651         49.7692 
      0.0982031         43.3551         43.1553 
       0.104506         38.5808         38.5396 
       0.110769         35.8937         35.8545 
       0.116806         34.4708         34.3696 
       0.122832         33.2133          33.217 
       0.129052         31.7853          31.735 
       0.135211         29.7448         29.6617 
       0.141259         27.1439         27.1065 
       0.147318         24.3601         24.3536 
       0.153489          21.815         21.7468 
       0.159709         19.7113         19.6182 
       0.165845          18.129          18.116 
       0.171974         17.2497         17.1438 
       0.178125         16.5942         16.5206 
       0.184229         16.0698         16.0335 
        0.19034         15.5675         15.4873 
       0.196428         14.8375         14.7767 
       0.202534         13.8918         13.8904 
       0.208729         12.9546         12.8917 
       0.214876          12.012         11.9164 
       0.220989         11.1147         11.0616 
       0.227147         10.4728         10.3716 
        0.23329         9.95856         9.85682 
       0.239377         9.58065         9.47978 
       0.245482         9.27273         9.17456 
       0.251667         8.93923         8.87739 
       0.257832         8.64543         8.54933 
       0.263955          8.2445         8.17615 
       0.270079           7.836         7.76615 
        0.27624         7.40237         7.34581 
       0.282372         7.01062         6.95043 
        0.28843         6.69613         6.60567 
       0.294538         6.39677         6.31318 
       0.300721         6.12988         6.06879 
        0.30691         5.94659         5.86143 
       0.313033         5.75222         5.67424 
       0.319153         5.59242         5.48918 
       0.325316         5.35792         5.29498 
        0.33145         5.15351         5.09266 
       0.337538         4.95669         4.88774 
       0.343633         4.76896          4.6867 
       0.349808         4.56811         4.49573 
       0.355968         4.39197         4.32275 
       0.362074         4.25168         4.17036 
       0.368217         4.10941         4.03317 
       0.374374         3.99656         3.90751 
       0.380519         3.86216         3.78846 
       0.386598         3.73796         3.67267 
       0.392688         3.61636         3.55698 
        0.39888         3.50689         3.43922 
       0.405048         3.39447         3.32364 
       0.411186         3.28078         3.21273 
       0.417313         3.17642         3.10779 
       0.423458         3.06836         3.00962 
       0.429607         2.99012          2.9186 
       0.435692         2.90771          2.8344 
       0.441815         2.82051         2.75426 
       0.447964         2.73407         2.67706 
       0.454126         2.66788         2.60172 
       0.460267         2.60015         2.52804 
       0.466387         2.52478          2.4563 
        0.47254         2.45772         2.38617 
       0.478662         2.38616         2.31882 
       0.484765         2.32434          2.2546 
       0.490885          2.2565         2.19345 
       0.497035         2.19129         2.13504 
       0.503198         2.14331         2.07918 
       0.509342         2.08296         2.02578 
       0.515458         2.03583         1.97452 
       0.521598         1.98684         1.92464 
       0.527764         1.94345         1.87586 
       0.533884         1.88435         1.82877 
           0.54         1.84322         1.78318 
       0.546137         1.79412         1.73902 
       0.552299         1.75343          1.6963 
       0.558452         1.71135         1.65524 
       0.564573         1.67264         1.61592 
       0.570708         1.63512         1.57796 
       0.576825         1.59869         1.54144 
       0.582926         1.55901          1.5062 
       0.589034          1.5294         1.47195 
       0.595184         1.49784         1.43843 
       0.601379         1.46113         1.40564 
       0.607522          1.4267         1.37411 
       0.613639         1.39344         1.34369 
       0.619772         1.36843         1.31418 
       0.625918          1.3389         1.28554 
       0.632068         1.31042         1.25778 
       0.638161         1.28295         1.23111 
         0.6443          1.2555         1.20505 
       0.650464         1.23095         1.17965 
       0.656582         1.20877         1.15517 
       0.662703         1.18288         1.13138 
       0.668861         1.15469         1.10812 
       0.675024         1.13349         1.08549 
       0.681124         1.11899         1.06372 
       0.687237         1.09278         1.04251 
       0.693381         1.06739         1.02178 
       0.699536         1.05236         1.00159 
       0.705665         1.03213        0.982039 
       0.711789         1.00877        0.963043 
       0.717957        0.991056        0.944432 
        0.72409        0.972654        0.926424 
       0.730186         0.95856        0.909001 
       0.736317        0.937007        0.891937 
       0.742472        0.922829         0.87525 
       0.748622        0.907084        0.859007 
        0.75476        0.887741        0.843213 
       0.760888        0.874944        0.827843 
       0.767043        0.852301        0.812798 
       0.773185        0.841172        0.798161 
       0.779291        0.830362        0.783972 
       0.785407        0.814512        0.770112 
       0.791564        0.799429        0.756504 
       0.797719        0.785635        0.743236 
       0.803834        0.772362        0.730374 
       0.809972        0.759798        0.717774 
       0.816124        0.747398        0.705447 
       0.822261        0.735382        0.693446 
       0.828378        0.722763        0.681763 
       0.834502         0.71051        0.670341 
       0.840667        0.700565         0.65911 
       0.846816        0.688544         0.64817 
       0.852925        0.676346         0.63755 
       0.859047        0.665848        0.627147 
       0.865192        0.656019        0.616944 
       0.871341        0.646732        0.606963 
       0.877463        0.634412         0.59725 
       0.883569        0.625299        0.587775 
       0.889708        0.617054        0.578459 
       0.895864        0.607573        0.569323 
       0.902008         0.59685        0.560404 
       0.908149        0.589009        0.551683 
       0.914301        0.581267        0.543136 
       0.920448        0.572853        0.534778 
       0.926574        0.565297        0.526628 
       0.932687        0.556536        0.518665 
       0.938823        0.546165         0.51084 
       0.944975        0.539853         0.50316 
       0.951105        0.529848        0.495667 
       0.957225        0.522926        0.488341 
       0.963368        0.516808        0.481139 
       0.969511        0.509846        0.474083 
       0.975621        0.501549        0.467208 
       0.981748        0.492839        0.460453 
       0.987916        0.487055        0.453791 
        0.99406        0.481547        0.447286 
        1.00019        0.474182        0.440923 
        1.00632        0.469237         0.43469 
        1.01246        0.462389         0.42857 
        1.01859        0.456351        0.422578 
        1.02471         0.44887        0.416709 
        1.03085        0.442357        0.410933 
        1.03698        0.437886        0.405279 
        1.04314         0.43172        0.399708 
        1.04929        0.427432        0.394256 
        1.05541        0.419917        0.388929 
        1.06154        0.415449        0.383687 
        1.06769        0.410322        0.378535 
        1.07382        0.404916        0.373495 
        1.07993        0.399964        0.368558 
        1.08607        0.394627        0.363691 
        1.09222        0.389372        0.358908 
        1.09836        0.384919        0.354217 
        1.10449         0.37944        0.349615 
        1.11063        0.374507        0.345091 
        1.11677        0.370925        0.340649 
         1.1229        0.365048        0.336294 
        1.12903        0.361573        0.332011 
        1.13518        0.356762        0.327799 
        1.14131        0.352919        0.323664 
        1.14745        0.349811        0.319602 
        1.15359        0.344416         0.31561 
        1.15973        0.340836        0.311685 
        1.16584        0.336375        0.307845 
        1.17197        0.331872        0.304064 
        1.17811         0.32781        0.300335 
        1.18424        0.324284         0.29668 
        1.19038        0.319954        0.293076 
        1.19652        0.317397        0.289534 
        1.20267        0.313918         0.28605 
        1.20881        0.308805        0.282625 
        1.21495        0.305953        0.279262 
        1.22108        0.302875        0.275954 
         1.2272        0.298713        0.272708 
        1.23334        0.295549        0.269507 
        1.23949        0.292985        0.266351 
        1.24562        0.289414        0.263254 
        1.25174        0.286377        0.260211 
        1.25789        0.282253        0.257207 
        1.26402        0.280042        0.254257 
        1.27014        0.276085         0.25136 
        1.27628        0.273787          0.2485 
        1.28244        0.270696         0.24568 
        1.28858        0.267337        0.242907 
        1.29471        0.264708        0.240184 
        1.30084          0.2618        0.237505 
        1.30697        0.259717        0.234863 
        1.31312        0.256891        0.232257 
        1.31925        0.253939          0.2297 
        1.32537        0.251262        0.227184 
        1.33151        0.248606        0.224696 
        1.33765        0.245838        0.222248 
        1.34378        0.243006        0.219841 
        1.34992        0.241448        0.217468 
        1.35606        0.238259        0.215125 
         1.3622        0.236163        0.212821 
        1.36833        0.234196        0.210556 
        1.37445        0.231783        0.208326 
        1.38059        0.229342        0.206121 
        1.38675        0.226624        0.203943 
        1.39288        0.223941        0.201806 
        1.39901        0.222465          0.1997 
        1.40515        0.219976         0.19762 
         1.4113        0.218283         0.19557 
        1.41742        0.216126        0.193557 
        1.42355        0.212944        0.191569 
         1.4297         0.21192        0.189603 
        1.43585         0.20934        0.187666 
        1.44198        0.207757        0.185763 
        1.44809        0.205473         0.18389 
        1.45423        0.203509        0.182036 
        1.46036        0.201588        0.180211 
        1.46649         0.19971        0.178411 
        1.47263        0.197107        0.176634 
        1.47877        0.196535        0.174882 
        1.48491        0.193589        0.173152 
        1.49104        0.192982        0.171448 
        1.49718        0.190482        0.169767 
        1.50333        0.188954        0.168105 
        1.50947        0.187273        0.166469 
         1.5156        0.185391        0.164857 
        1.52172        0.183864        0.163267 
        1.52787        0.181611        0.161695 
          1.534        0.180426        0.160145 
        1.54013        0.178711        0.158618 
        1.54627        0.177326        0.157107 
        1.55241        0.175636        0.155616 
        1.55855        0.174016        0.154147 
        1.56467         0.17259        0.152701 
         1.5708        0.170923        0.151269 
        1.57695        0.169456        0.149854 
        1.58308        0.167434         0.14846 
        1.58922        0.166545        0.147083 
        1.59535          0.1648        0.145724 
         1.6015        0.163651         0.14438 
        1.60764        0.161935        0.143054 
        1.61376        0.160655        0.141749 
        1.61989        0.159148        0.140458 
        1.62604         0.15777        0.139181 
        1.63218        0.156721        0.137921 
        1.63831        0.155153        0.136679 
        1.64444        0.153973        0.135452 
        1.65059        0.152331        0.134237 
        1.65673        0.151261        0.133039 
        1.66285        0.150226        0.131859 
        1.66898        0.148678        0.130692 
        1.67512        0.147391        0.129538 
        1.68127        0.146125        0.128396 
         1.6874        0.145118        0.127271 
        1.69353        0.143742         0.12616 
        1.69967        0.142366        0.125059 
        1.70581        0.141696        0.123973 
        1.71193        0.140659        0.122903 
        1.71806        0.139206        0.121844 
        1.72421        0.137961        0.120795 
        1.73035        0.136951         0.11976 
        1.73649        0.135898        0.118737 
        1.74262        0.134678        0.117727 
        1.74876        0.133927        0.116728 
        1.75489        0.132763        0.115743 
        1.76101         0.13166         0.11477 
        1.76715        0.130656        0.113806 
        1.77329        0.129471        0.112852 
        1.77943        0.128341        0.111909 
        1.78557        0.127734        0.110979 
        1.79171        0.126693        0.110058 
        1.79785        0.125476        0.109148 
        1.80399          0.1243        0.108249 
        1.81012        0.123708         0.10736 
        1.81625        0.122783        0.106483 
        1.82239        0.122049        0.105613 
        1.82853        0.120774        0.104754 
        1.83466        0.119842        0.103906 
        1.84078        0.119004        0.103067 
        1.84692        0.118142        0.102237 
        1.85306        0.117314        0.101415 
         1.8592        0.116397        0.100603 
        1.86533        0.115607       0.0998005 
        1.87147        0.114621       0.0990059 
        1.87761        0.113681       0.0982196 
        1.88375        0.112806       0.0974429 
        1.88988        0.112028       0.0966753 
        1.89601        0.111006       0.0959157 
        1.90215        0.110348       0.0951636 
        1.90829        0.109369         0.09442 
        1.91442        0.108901       0.0936843 
        1.92056        0.108082       0.0929571 
         1.9267        0.107259       0.0922369 
        1.93284        0.106282       0.0915239 
        1.93897        0.105551       0.0908198 
        1.94509        0.104869       0.0901247 
        1.95123        0.104048       0.0894351 
        1.95737        0.103521       0.0887523 
        1.96349        0.102679       0.0880784 
        1.96964        0.101796       0.0874095 
        1.97578        0.101135       0.0867473 
        1.98192        0.100575       0.0860934 
        1.98805       0.0999102       0.0854461 
        1.99419       0.0992651       0.0848055 
        2.00033       0.0983299       0.0841711 
        2.00647       0.0977544       0.0835435 
         2.0126       0.0971808       0.0829233 
        2.01874       0.0964162       0.0823085 
        2.02488       0.0957886       0.0816994 
        2.03101       0.0949863       0.0810976 
        2.03714        0.094795       0.0805025 
        2.04328       0.0936629       0.0799127 
        2.04941       0.0932606       0.0793292 
        2.05554       0.0926656       0.0787521 
        2.06167       0.0919555       0.0781799 
        2.06781        0.091191       0.0776134 
        2.07396       0.0906888       0.0770516 
        2.08009       0.0900452       0.0764964 
        2.08622       0.0895584       0.0759474 
        2.09237       0.0888928       0.0754026 
        2.09851       0.0882512       0.0748632 
        2.10464       0.0877267       0.0743299 
        2.11077       0.0870731       0.0738025 
        2.11691        0.086681        0.073279 
        2.12305       0.0858254       0.0727607 
        2.12918       0.0853294       0.0722486 
        2.13531       0.0848193       0.0717414 
        2.14145       0.0843171       0.0712379 
         2.1476       0.0838093       0.0707387 
        2.15372       0.0832859       0.0702467 
        2.15985       0.0826533        0.069759 
        2.16599       0.0820093       0.0692746 
        2.17213       0.0816991       0.0687953 
        2.17827       0.0811391       0.0683206 
         2.1844       0.0805615       0.0678508 
        2.19054       0.0801289       0.0673853 
        2.19666       0.0796278       0.0669249 
         2.2028       0.0788563       0.0664683 
        2.20893       0.0786106       0.0660158 
        2.21508       0.0780492       0.0655671 
        2.22122       0.0775779       0.0651223 
        2.22736       0.0770593       0.0646826 
        2.23349       0.0765935       0.0642471 
        2.23962       0.0761801       0.0638154 
        2.24577       0.0757309       0.0633873 
         2.2519       0.0751558       0.0629637 
        2.25802       0.0747153       0.0625447 
        2.26417       0.0743634       0.0621283 
        2.27031       0.0738042       0.0617154 
        2.27644       0.0735877       0.0613074 
        2.28257       0.0729274       0.0609031 
        2.28872        0.072504       0.0605018 
        2.29486       0.0721501       0.0601041 
        2.30099       0.0716286       0.0597109 
        2.30712       0.0712613        0.059321 
        2.31326       0.0707026       0.0589339 
         2.3194       0.0703653       0.0585505 
        2.32553       0.0699972       0.0581712 
        2.33166       0.0694675       0.0577954 
         2.3378       0.0690699       0.0574225 
        2.34394       0.0687238       0.0570527 
        2.35007       0.0683472       0.0566867 
        2.35619       0.0680681       0.0563243 
        2.36233       0.0675349       0.0559643 
        2.36848       0.0670881       0.0556067 
        2.37462       0.0668132        0.055253 
        2.38075       0.0663678       0.0549027 
        2.38689       0.0660665       0.0545551 
        2.39303        0.065705       0.0542106 
        2.39916       0.0652051       0.0538695 
        2.40529       0.0648007       0.0535313 
        2.41143       0.0643738       0.0531958 
        2.41757       0.0640983       0.0528631 
         2.4237       0.0637297       0.0525338 
        2.42983       0.0633992       0.0522073 
        2.43598       0.0630196       0.0518828 
        2.44211        0.062547       0.0515615 
        2.44823       0.0623326       0.0512437 
        2.45437       0.0619484       0.0509278 
        2.46052       0.0616205       0.0506142 
        2.46665       0.0612891       0.0503039 
        2.47279        0.060945       0.0499962 
        2.47892       0.0607621       0.0496909 
        2.48507       0.0602282       0.0493879 
         2.4912        0.059985       0.0490881 
