# k  (h/Mpc)    Pcb(k)  (Mpc/h)^3    Pcb_linear(k)  (Mpc/h)^3
     0.00783031         757.859         764.034 
       0.013688         926.314         935.485 
       0.019231         928.373         932.028 
      0.0249154          843.34          843.03 
      0.0312784         710.125         709.982 
      0.0375637         588.884         589.287 
      0.0433917         505.879         504.385 
      0.0492413         446.589         446.466 
      0.0555754         408.411         406.874 
      0.0619321         377.667         379.789 
       0.067871         356.165         356.386 
      0.0738098         329.131         329.205 
      0.0800417         296.071         295.451 
      0.0862327         259.582         259.474 
      0.0921407         227.358         227.088 
      0.0982031         200.458         199.382 
       0.104506         178.225         178.236 
       0.110769         164.649         164.501 
       0.116806         157.114         156.212 
       0.122832         150.362         150.285 
       0.129052         144.621         144.155 
       0.135211         137.227         136.433 
       0.141259         127.218         126.874 
       0.147318         116.013         116.045 
       0.153489         105.504         105.038 
       0.159709         96.1096         95.2587 
       0.165845         87.8131         87.6672 
       0.171974         83.3128         82.2434 
       0.178125         79.4713         78.5554 
       0.184229         76.4267         75.9144 
        0.19034         74.4132         73.5096 
       0.196428         71.5204         70.7487 
       0.202534         67.5238         67.3357 
       0.208729         64.0396          63.294 
       0.214876         60.1102          59.049 
       0.220989         55.6106          55.015 
       0.227147          52.668         51.4805 
        0.23329          49.902          48.648 
       0.239377         47.8278         46.5015 
       0.245482          46.037         44.8397 
       0.251667          44.322         43.4138 
       0.257832          43.278         42.0167 
       0.263955         41.4226          40.493 
       0.270079         39.7151         38.7834 
        0.27624         37.7297         36.9311 
       0.282372         35.9479         35.0668 
        0.28843         34.5759         33.3297 
       0.294538         32.9472         31.7724 
       0.300721         31.4147         30.4347 
        0.30691         30.5515         29.3157 
       0.313033         29.4864         28.3662 
       0.319153         28.8628         27.4974 
       0.325316         27.6391         26.6351 
        0.33145         26.7037          25.746 
       0.337538         25.8475         24.8246 
       0.343633         25.0157         23.8799 
       0.349808          24.005         22.9376 
       0.355968         23.1038         22.0465 
       0.362074         22.4579         21.2396 
       0.368217         21.6779         20.5114 
       0.374374          21.155         19.8592 
       0.380519         20.3737         19.2662 
       0.386598         19.7498          18.712 
       0.392688         19.1643          18.171 
        0.39888         18.7061         17.6215 
       0.405048         18.1903         17.0718 
       0.411186         17.6238         16.5294 
       0.417313         17.0901         16.0009 
       0.423458         16.5026         15.4946 
       0.429607         16.1585         15.0203 
       0.435692         15.7774         14.5831 
       0.441815         15.2353         14.1733 
       0.447964          14.775          13.787 
       0.454126         14.4913         13.4171 
       0.460267         14.2354         13.0588 
       0.466387         13.8182         12.7093 
        0.47254         13.5271          12.364 
       0.478662         13.1326         12.0271 
       0.484765         12.8126         11.7008 
       0.490885         12.4342         11.3866 
       0.497035         12.1114         11.0852 
       0.503198         11.8773         10.7977 
       0.509342         11.5331          10.525 
       0.515458          11.333         10.2661 
       0.521598         11.0791         10.0159 
       0.527764         10.8813         9.77228 
       0.533884         10.5482         9.53662 
           0.54         10.3571         9.30723 
       0.546137         10.0612         9.08334 
       0.552299         9.86456         8.86507 
       0.558452         9.64028         8.65416 
       0.564573          9.4716         8.45169 
       0.570708          9.2632         8.25654 
       0.576825         9.07625         8.06951 
       0.582926         8.87431         7.88963 
       0.589034         8.71171          7.7153 
       0.595184         8.57934         7.54485 
       0.601379         8.35555         7.37797 
       0.607522         8.18487         7.21714 
       0.613639         8.00366         7.06153 
       0.619772         7.88022         6.90998 
       0.625918         7.71818         6.76253 
       0.632068         7.59484         6.61937 
       0.638161         7.44212          6.4818 
         0.6443         7.29307         6.34745 
       0.650464         7.13371         6.21676 
       0.656582         7.05744         6.09093 
       0.662703          6.9328         5.96868 
       0.668861         6.75282         5.84911 
       0.675024         6.63817         5.73261 
       0.681124         6.61182         5.62033 
       0.687237          6.4525         5.51072 
       0.693381         6.28862         5.40349 
       0.699536         6.23749         5.29895 
       0.705665         6.12131         5.19772 
       0.711789         5.98831         5.09936 
       0.717957         5.87668           5.003 
        0.72409         5.80112         4.90975 
       0.730186         5.74655         4.81951 
       0.736317         5.61275         4.73107 
       0.742472          5.5435         4.64453 
       0.748622         5.45869         4.56022 
        0.75476         5.32519         4.47818 
       0.760888         5.27608         4.39827 
       0.767043          5.1476            4.32 
       0.773185         5.08738         4.24382 
       0.779291         5.05215         4.16994 
       0.785407         4.94987         4.09775 
       0.791564         4.87663         4.02685 
       0.797719          4.7925          3.9577 
       0.803834         4.73317         3.89064 
       0.809972         4.65111         3.82492 
       0.816124         4.58959          3.7606 
       0.822261         4.52466         3.69795 
       0.828378          4.4548         3.63693 
       0.834502         4.39257         3.57725 
       0.840667         4.34434         3.51853 
       0.846816         4.26091         3.46131 
       0.852925         4.20494         3.40573 
       0.859047         4.14604         3.35126 
       0.865192         4.08936         3.29782 
       0.871341          4.0343         3.24553 
       0.877463         3.96988         3.19461 
       0.883569         3.92539         3.14493 
       0.889708         3.87452         3.09606 
       0.895864         3.82281         3.04812 
       0.902008         3.76016          3.0013 
       0.908149         3.71375         2.95551 
       0.914301         3.67193         2.91061 
       0.920448         3.62869         2.86669 
       0.926574         3.59809         2.82385 
       0.932687         3.53882         2.78198 
       0.938823         3.47599         2.74082 
       0.944975         3.45103          2.7004 
       0.951105         3.38366         2.66096 
       0.957225         3.35893         2.62238 
       0.963368         3.32137         2.58444 
       0.969511         3.28232         2.54726 
       0.975621         3.23379         2.51102 
       0.981748         3.17668          2.4754 
       0.987916         3.14811         2.44025 
        0.99406         3.12431         2.40592 
        1.00019         3.08412         2.37233 
        1.00632         3.05425         2.33942 
        1.01246         3.00958         2.30709 
        1.01859          2.9762         2.27543 
        1.02471         2.92825         2.24441 
        1.03085         2.90263         2.21387 
        1.03698         2.87299         2.18396 
        1.04314         2.84186         2.15449 
        1.04929         2.80915         2.12563 
        1.05541          2.7686         2.09742 
        1.06154         2.74841         2.06966 
        1.06769         2.72618         2.04237 
        1.07382         2.68304         2.01566 
        1.07993         2.64929          1.9895 
        1.08607         2.63058         1.96369 
        1.09222         2.59307         1.93832 
        1.09836         2.58183         1.91343 
        1.10449         2.53126         1.88901 
        1.11063         2.51042           1.865 
        1.11677         2.48943         1.84141 
         1.1229         2.45519         1.81828 
        1.12903         2.44032         1.79552 
        1.13518         2.40492         1.77315 
        1.14131         2.38308         1.75117 
        1.14745         2.35664         1.72957 
        1.15359         2.33302         1.70834 
        1.15973         2.30708         1.68746 
        1.16584         2.28448         1.66703 
        1.17197         2.25777         1.64691 
        1.17811         2.23524         1.62706 
        1.18424         2.21251          1.6076 
        1.19038         2.19073         1.58841 
        1.19652         2.17329         1.56953 
        1.20267         2.15594         1.55097 
        1.20881         2.12946         1.53272 
        1.21495         2.10983         1.51479 
        1.22108         2.09145         1.49715 
         1.2272          2.0617         1.47983 
        1.23334          2.0512         1.46276 
        1.23949         2.02903         1.44591 
        1.24562         2.01133         1.42938 
        1.25174         1.99538         1.41314 
        1.25789         1.96842         1.39709 
        1.26402         1.94948         1.38133 
        1.27014         1.92942         1.36586 
        1.27628         1.91539         1.35057 
        1.28244         1.89855         1.33549 
        1.28858         1.87979         1.32067 
        1.29471         1.85801          1.3061 
        1.30084         1.84483         1.29177 
        1.30697          1.8326         1.27764 
        1.31312         1.81414         1.26369 
        1.31925         1.79734            1.25 
        1.32537         1.78393         1.23653 
        1.33151         1.76392         1.22321 
        1.33765         1.75017         1.21009 
        1.34378          1.7353          1.1972 
        1.34992         1.72204         1.18448 
        1.35606         1.70519         1.17192 
         1.3622         1.69232         1.15957 
        1.36833         1.67418         1.14743 
        1.37445         1.65896         1.13547 
        1.38059         1.64613         1.12364 
        1.38675         1.63182         1.11196 
        1.39288         1.62153         1.10049 
        1.39901         1.60421         1.08918 
        1.40515         1.59065         1.07802 
         1.4113         1.58259         1.06701 
        1.41742         1.56314          1.0562 
        1.42355         1.54916         1.04552 
         1.4297         1.54118         1.03496 
        1.43585         1.52684         1.02455 
        1.44198         1.51503         1.01432 
        1.44809         1.50321         1.00426 
        1.45423         1.49134        0.994292 
        1.46036         1.47965         0.98448 
        1.46649         1.46208        0.974798 
        1.47263         1.45636         0.96524 
        1.47877         1.44911        0.955815 
        1.48491         1.42871        0.946502 
        1.49104         1.42136        0.937333 
        1.49718         1.40851         0.92828 
        1.50333         1.39788        0.919333 
        1.50947          1.3894        0.910523 
         1.5156          1.3771        0.901842 
        1.52172         1.36767        0.893275 
        1.52787         1.35594        0.884803 
          1.534         1.34874        0.876451 
        1.54013         1.33601        0.868217 
        1.54627         1.32609        0.860074 
        1.55241         1.31364        0.852034 
        1.55855         1.30556         0.84411 
        1.56467         1.29586        0.836308 
         1.5708         1.28654        0.828584 
        1.57695         1.27508        0.820947 
        1.58308         1.26369        0.813424 
        1.58922         1.25883         0.80599 
        1.59535         1.24549        0.798653 
         1.6015         1.23644        0.791398 
        1.60764         1.22952        0.784236 
        1.61376         1.21861        0.777184 
        1.61989         1.21143        0.770213 
        1.62604         1.19891        0.763313 
        1.63218         1.19556        0.756502 
        1.63831         1.18525        0.749791 
        1.64444         1.17649        0.743159 
        1.65059         1.17001        0.736591 
        1.65673         1.15815        0.730111 
        1.66285         1.15132        0.723728 
        1.66898         1.14514        0.717419 
        1.67512         1.13269        0.711173 
        1.68127         1.12553        0.704997 
         1.6874         1.12177        0.698908 
        1.69353         1.11071        0.692895 
        1.69967         1.10455         0.68694 
        1.70581         1.09974        0.681057 
        1.71193         1.08709        0.675266 
        1.71806         1.08238         0.66953 
        1.72421         1.07595         0.66385 
        1.73035         1.06393        0.658243 
        1.73649         1.06305        0.652702 
        1.74262           1.052        0.647229 
        1.74876         1.04553        0.641816 
        1.75489         1.03961        0.636477 
        1.76101         1.02975          0.6312 
        1.76715         1.02492        0.625976 
        1.77329         1.01891        0.620805 
        1.77943         1.01196        0.615691 
        1.78557         1.00734        0.610642 
        1.79171         1.00046        0.605648 
        1.79785        0.993235        0.600711 
        1.80399        0.984679        0.595829 
        1.81012         0.97963        0.591009 
        1.81625        0.972245        0.586244 
        1.82239        0.967567        0.581525 
        1.82853        0.960714        0.576861 
        1.83466        0.953829        0.572252 
        1.84078        0.947635        0.567699 
        1.84692        0.942621        0.563189 
        1.85306        0.938877        0.558722 
         1.8592        0.929721        0.554311 
        1.86533        0.925711        0.549951 
        1.87147         0.91706        0.545632 
        1.87761        0.913531        0.541359 
        1.88375        0.907332        0.537136 
        1.88988        0.900754        0.532963 
        1.89601        0.895431        0.528833 
        1.90215         0.89106        0.524743 
        1.90829        0.885287        0.520699 
        1.91442        0.879615        0.516697 
        1.92056        0.876186        0.512741 
         1.9267        0.869741        0.508823 
        1.93284        0.863088        0.504943 
        1.93897        0.858521        0.501112 
        1.94509        0.854851        0.497329 
        1.95123        0.847252        0.493575 
        1.95737        0.843656        0.489858 
        1.96349        0.838095        0.486189 
        1.96964        0.835225        0.482547 
        1.97578        0.827192         0.47894 
        1.98192        0.822935        0.475379 
        1.98805        0.818632        0.471853 
        1.99419        0.814506        0.468363 
        2.00033        0.810043        0.464907 
        2.00647        0.805728        0.461487 
         2.0126        0.801864        0.458107 
        2.01874        0.796365        0.454756 
        2.02488        0.789928        0.451436 
        2.03101        0.786026        0.448155 
        2.03714        0.783219         0.44491 
        2.04328        0.777484        0.441694 
        2.04941        0.773063        0.438512 
        2.05554        0.768836        0.435364 
        2.06167         0.76483        0.432242 
        2.06781         0.75869        0.429152 
        2.07396        0.756971        0.426087 
        2.08009        0.751749        0.423057 
        2.08622        0.747486         0.42006 
        2.09237        0.743894        0.417087 
        2.09851        0.738832        0.414142 
        2.10464        0.735831        0.411231 
        2.11077        0.729544        0.408351 
        2.11691        0.726416        0.405493 
        2.12305        0.724697        0.402662 
        2.12918        0.718629        0.399865 
        2.13531        0.714852        0.397094 
        2.14145        0.710764        0.394343 
         2.1476        0.707847        0.391616 
        2.15372        0.703945        0.388928 
        2.15985        0.699556        0.386262 
        2.16599          0.6968        0.383615 
        2.17213        0.692504        0.380995 
        2.17827        0.687767          0.3784 
         2.1844        0.685343        0.375832 
        2.19054        0.681685        0.373286 
        2.19666        0.678575        0.370768 
         2.2028         0.67427        0.368272 
        2.20893        0.671508        0.365797 
        2.21508        0.667417        0.363342 
        2.22122        0.664839        0.360909 
        2.22736        0.658921        0.358503 
        2.23349        0.655795         0.35612 
        2.23962        0.653916        0.353758 
        2.24577        0.650331        0.351415 
         2.2519        0.646755        0.349096 
        2.25802        0.644606        0.346803 
        2.26417        0.639597        0.344523 
        2.27031        0.637124        0.342263 
        2.27644        0.635096        0.340029 
        2.28257        0.629816        0.337815 
        2.28872        0.628589        0.335617 
        2.29486        0.623934        0.333439 
        2.30099        0.621341        0.331285 
        2.30712        0.618316        0.329149 
        2.31326        0.615322        0.327028 
         2.3194        0.612222        0.324928 
        2.32553        0.608512        0.322849 
        2.33166        0.607138         0.32079 
         2.3378        0.603313        0.318746 
        2.34394        0.600506        0.316719 
        2.35007         0.59593        0.314712 
        2.35619        0.593075        0.312726 
        2.36233        0.590832        0.310752 
        2.36848        0.589249        0.308791 
        2.37462        0.585871        0.306851 
        2.38075        0.582539         0.30493 
        2.38689        0.580535        0.303024 
        2.39303        0.577294        0.301134 
        2.39916         0.57457        0.299263 
        2.40529        0.572985        0.297408 
        2.41143        0.568348        0.295567 
        2.41757        0.566508        0.293741 
         2.4237        0.563692        0.291933 
        2.42983        0.560592        0.290142 
        2.43598        0.558435         0.28836 
        2.44211        0.555207        0.286597 
        2.44823        0.553396        0.284852 
        2.45437        0.551331        0.283118 
        2.46052        0.548987        0.281396 
        2.46665        0.545563        0.279692 
        2.47279        0.543277        0.278002 
        2.47892        0.540669        0.276325 
        2.48507        0.539159        0.274661 
         2.4912        0.535642        0.273014 
