# k  (h/Mpc)    Pcb(k)  (Mpc/h)^3    Pcb_linear(k)  (Mpc/h)^3
     0.00783031         487.097         491.154 
       0.013688         596.035         601.443 
       0.019231          597.18         599.245 
      0.0249154         542.037         542.036 
      0.0312784          456.67         456.497 
      0.0375637         378.854         378.897 
      0.0433917          325.26         324.308 
      0.0492413         287.249         287.069 
      0.0555754         262.536         261.613 
      0.0619321         243.134         244.198 
       0.067871         229.076          229.15 
      0.0738098         211.641         211.674 
      0.0800417         190.318         189.971 
      0.0862327         166.918         166.838 
      0.0921407          146.18         146.015 
      0.0982031         128.786           128.2 
       0.104506         114.608         114.604 
       0.110769         105.845         105.772 
       0.116806         100.897         100.442 
       0.122832         96.6524         96.6313 
       0.129052          92.925           92.69 
       0.135211         88.1124         87.7246 
       0.141259         81.7312         81.5781 
       0.147318         74.5769         74.6156 
       0.153489         67.7643         67.5382 
       0.159709          61.653         61.2502 
       0.165845         56.4048         56.3689 
       0.171974          53.387         52.8815 
       0.178125         50.9285         50.5102 
       0.184229         49.0357          48.812 
        0.19034         47.6986         47.2658 
       0.196428          45.841         45.4906 
       0.202534         43.3516         43.2961 
       0.208729         41.0321         40.6973 
       0.214876         38.4638         37.9678 
       0.220989         35.6325          35.374 
       0.227147         33.6603         33.1014 
        0.23329         31.8683         31.2801 
       0.239377         30.5129         29.8999 
       0.245482         29.3984         28.8314 
       0.251667         28.3238         27.9145 
       0.257832         27.6007         27.0162 
       0.263955         26.4621         26.0365 
       0.270079         25.3671         24.9373 
        0.27624         24.1002         23.7463 
       0.282372         22.9378         22.5476 
        0.28843         22.0001         21.4306 
       0.294538         20.9662         20.4293 
       0.300721         20.0022         19.5692 
        0.30691         19.4175         18.8497 
       0.313033         18.7532         18.2391 
       0.319153         18.3272         17.6805 
       0.325316         17.5723         17.1261 
        0.33145         16.9809         16.5544 
       0.337538         16.4277         15.9619 
       0.343633         15.8832         15.3545 
       0.349808         15.2353         14.7486 
       0.355968         14.6559         14.1756 
       0.362074         14.2156         13.6568 
       0.368217         13.7187         13.1886 
       0.374374         13.3737         12.7692 
       0.380519         12.8979         12.3879 
       0.386598         12.5015         12.0316 
       0.392688          12.131         11.6838 
        0.39888         11.8223         11.3304 
       0.405048         11.4858          10.977 
       0.411186         11.1243         10.6282 
       0.417313         10.7864         10.2884 
       0.423458         10.4123         9.96288 
       0.429607         10.1779         9.65788 
       0.435692         9.92031         9.37676 
       0.441815         9.59724         9.11324 
       0.447964         9.30957         8.86485 
       0.454126         9.11813         8.62703 
       0.460267         8.93672         8.39664 
       0.466387         8.67927         8.17192 
        0.47254         8.48143         7.94993 
       0.478662          8.2398          7.7333 
       0.484765         8.03511          7.5235 
       0.490885         7.80136         7.32143 
       0.497035         7.58536         7.12766 
       0.503198         7.43518         6.94281 
       0.509342          7.2226         6.76747 
       0.515458         7.08454         6.60096 
       0.521598         6.92507         6.44013 
       0.527764         6.79333         6.28346 
       0.533884         6.58517         6.13194 
           0.54         6.46014         5.98444 
       0.546137          6.2825         5.84048 
       0.552299         6.15401         5.70014 
       0.558452         6.01307         5.56452 
       0.564573         5.89639         5.43434 
       0.570708         5.76755         5.30886 
       0.576825         5.64535          5.1886 
       0.582926           5.515         5.07294 
       0.589034         5.41672         4.96085 
       0.595184         5.32422         4.85125 
       0.601379         5.18952         4.74395 
       0.607522         5.07774         4.64054 
       0.613639         4.96189         4.54048 
       0.619772         4.88439         4.44304 
       0.625918         4.78391         4.34823 
       0.632068         4.69695         4.25618 
       0.638161         4.60227         4.16772 
         0.6443         4.50775         4.08134 
       0.650464         4.41518         3.99731 
       0.656582         4.35746          3.9164 
       0.662703         4.27412          3.8378 
       0.668861         4.16659         3.76091 
       0.675024         4.09447         3.68601 
       0.681124           4.069         3.61381 
       0.687237         3.97006         3.54333 
       0.693381         3.87183         3.47438 
       0.699536         3.83342         3.40717 
       0.705665         3.76229         3.34208 
       0.711789         3.67843         3.27883 
       0.717957         3.61362         3.21687 
        0.72409          3.5584         3.15691 
       0.730186         3.51921         3.09889 
       0.736317         3.43859         3.04202 
       0.742472         3.39417         2.98638 
       0.748622         3.34153         2.93217 
        0.75476         3.26363         2.87942 
       0.760888         3.22797         2.82804 
       0.767043         3.14471         2.77771 
       0.773185          3.1084         2.72873 
       0.779291         3.08137         2.68123 
       0.785407         3.02027         2.63481 
       0.791564         2.97167         2.58922 
       0.797719         2.92177         2.54476 
       0.803834         2.87917         2.50164 
       0.809972         2.83221         2.45938 
       0.816124         2.79155         2.41803 
       0.822261         2.75039         2.37774 
       0.828378         2.70577         2.33851 
       0.834502         2.66505         2.30013 
       0.840667         2.63387         2.26238 
       0.846816         2.58676         2.22558 
       0.852925          2.5463         2.18984 
       0.859047         2.50984         2.15482 
       0.865192         2.47544         2.12046 
       0.871341         2.44266         2.08684 
       0.877463         2.39961          2.0541 
       0.883569         2.36978         2.02215 
       0.889708         2.34124         1.99073 
       0.895864         2.30824         1.95991 
       0.902008         2.26837          1.9298 
       0.908149         2.24064         1.90036 
       0.914301         2.21422         1.87149 
       0.920448         2.18681         1.84325 
       0.926574         2.16469          1.8157 
       0.932687         2.13075         1.78878 
       0.938823          2.0913         1.76231 
       0.944975         2.07353         1.73633 
       0.951105         2.03287         1.71097 
       0.957225         2.01398         1.68616 
       0.963368         1.99201         1.66176 
       0.969511         1.96856         1.63786 
       0.975621         1.93724         1.61456 
       0.981748         1.90273         1.59165 
       0.987916         1.88422         1.56905 
        0.99406         1.86754         1.54698 
        1.00019         1.84184         1.52538 
        1.00632         1.82458         1.50422 
        1.01246         1.79818         1.48343 
        1.01859         1.77736         1.46308 
        1.02471         1.74762         1.44313 
        1.03085         1.72789         1.42349 
        1.03698         1.71163         1.40426 
        1.04314         1.69117         1.38531 
        1.04929         1.67408         1.36676 
        1.05541         1.64629         1.34862 
        1.06154         1.63345         1.33077 
        1.06769          1.6169         1.31322 
        1.07382         1.59391         1.29605 
        1.07993         1.57406         1.27922 
        1.08607         1.55968         1.26263 
        1.09222          1.5372         1.24632 
        1.09836         1.52656         1.23031 
        1.10449         1.50037         1.21461 
        1.11063          1.4847         1.19917 
        1.11677         1.47204         1.18401 
         1.1229         1.44964         1.16913 
        1.12903         1.44003          1.1545 
        1.13518         1.41973         1.14011 
        1.14131         1.40708         1.12598 
        1.14745          1.3928          1.1121 
        1.15359         1.37588         1.09844 
        1.15973         1.36131         1.08502 
        1.16584         1.34522         1.07188 
        1.17197          1.3292         1.05894 
        1.17811         1.31523         1.04618 
        1.18424         1.30154         1.03367 
        1.19038         1.28652         1.02133 
        1.19652         1.27709         1.00919 
        1.20267         1.26621        0.997257 
        1.20881         1.24774        0.985519 
        1.21495         1.23698         0.97399 
        1.22108         1.22559        0.962649 
         1.2272         1.20802        0.951517 
        1.23334         1.19901        0.940537 
        1.23949         1.18793        0.929705 
        1.24562         1.17564        0.919076 
        1.25174         1.16496         0.90863 
        1.25789         1.14941        0.898316 
        1.26402         1.13842        0.888182 
        1.27014         1.12472         0.87823 
        1.27628         1.11775        0.868403 
        1.28244         1.10668        0.858708 
        1.28858         1.09337        0.849175 
        1.29471         1.08222        0.839809 
        1.30084         1.07401        0.830595 
        1.30697         1.06625        0.821505 
        1.31312         1.05456         0.81254 
        1.31925          1.0443        0.803737 
        1.32537         1.03561        0.795075 
        1.33151         1.02397         0.78651 
        1.33765         1.01498        0.778077 
        1.34378         1.00422        0.769785 
        1.34992        0.997972        0.761608 
        1.35606        0.986303        0.753534 
         1.3622        0.978732        0.745592 
        1.36833        0.969574        0.737785 
        1.37445        0.960313        0.730094 
        1.38059        0.951937         0.72249 
        1.38675        0.942822        0.714977 
        1.39288         0.93447        0.707601 
        1.39901        0.926142        0.700334 
        1.40515        0.917084        0.693153 
         1.4113         0.91271        0.686076 
        1.41742        0.901443        0.679126 
        1.42355        0.891383         0.67226 
         1.4297        0.887069        0.665469 
        1.43585        0.877499        0.658775 
        1.44198        0.870975        0.652199 
        1.44809         0.86272        0.645727 
        1.45423        0.856169        0.639319 
        1.46036        0.848695         0.63301 
        1.46649        0.839807        0.626784 
        1.47263        0.833493        0.620638 
        1.47877        0.830301        0.614578 
        1.48491        0.817894         0.60859 
        1.49104        0.814585        0.602695 
        1.49718        0.805184        0.596874 
        1.50333         0.79989        0.591121 
        1.50947        0.794552        0.585456 
         1.5156         0.78702        0.579874 
        1.52172        0.781102        0.574366 
        1.52787        0.772903        0.568918 
          1.534        0.769147        0.563548 
        1.54013        0.762046        0.558254 
        1.54627        0.755884        0.553018 
        1.55241          0.7486        0.547849 
        1.55855        0.743426        0.542753 
        1.56467        0.737272        0.537737 
         1.5708        0.731209        0.532771 
        1.57695        0.724778         0.52786 
        1.58308        0.717823        0.523022 
        1.58922        0.714499        0.518243 
        1.59535        0.707255        0.513525 
         1.6015        0.701645         0.50886 
        1.60764        0.696785        0.504255 
        1.61376        0.691135        0.499721 
        1.61989         0.68615        0.495239 
        1.62604        0.679047        0.490802 
        1.63218        0.676458        0.486423 
        1.63831        0.669697        0.482107 
        1.64444        0.665338        0.477843 
        1.65059        0.659903         0.47362 
        1.65673        0.654423        0.469453 
        1.66285        0.650343        0.465349 
        1.66898        0.645889        0.461292 
        1.67512        0.638933        0.457276 
        1.68127        0.634277        0.453305 
         1.6874        0.631473         0.44939 
        1.69353        0.625492        0.445524 
        1.69967        0.621687        0.441695 
        1.70581        0.617946        0.437912 
        1.71193        0.612808        0.434188 
        1.71806        0.608788          0.4305 
        1.72421        0.603838        0.426848 
        1.73035        0.597548        0.423243 
        1.73649        0.596822         0.41968 
        1.74262        0.589785        0.416161 
        1.74876        0.586492        0.412681 
        1.75489         0.58296        0.409248 
        1.76101        0.577291        0.405855 
        1.76715         0.57397        0.402496 
        1.77329        0.570205        0.399171 
        1.77943        0.565793        0.395882 
        1.78557        0.563619        0.392636 
        1.79171        0.559069        0.389425 
        1.79785        0.554656         0.38625 
        1.80399        0.549178        0.383112 
        1.81012        0.547027        0.380012 
        1.81625        0.543557        0.376949 
        1.82239        0.540184        0.373914 
        1.82853        0.535548        0.370915 
        1.83466        0.531546        0.367952 
        1.84078        0.527543        0.365025 
        1.84692        0.524917        0.362124 
        1.85306        0.522047        0.359252 
         1.8592        0.517587        0.356416 
        1.86533         0.51489        0.353612 
        1.87147        0.509705        0.350836 
        1.87761        0.507099        0.348088 
        1.88375         0.50394        0.345373 
        1.88988        0.499712         0.34269 
        1.89601        0.496139        0.340034 
        1.90215        0.494081        0.337404 
        1.90829        0.489956        0.334804 
        1.91442        0.487492        0.332231 
        1.92056        0.485217        0.329687 
         1.9267        0.480855        0.327168 
        1.93284        0.477316        0.324673 
        1.93897        0.475009        0.322209 
        1.94509        0.472553        0.319777 
        1.95123        0.467971        0.317363 
        1.95737        0.465344        0.314973 
        1.96349         0.46234        0.312614 
        1.96964        0.459804        0.310272 
        1.97578        0.456171        0.307953 
        1.98192        0.454116        0.305663 
        1.98805        0.451447        0.303396 
        1.99419        0.448953        0.301152 
        2.00033        0.445946         0.29893 
        2.00647        0.443275        0.296731 
         2.0126        0.440406        0.294558 
        2.01874        0.437856        0.292403 
        2.02488        0.434525        0.290268 
        2.03101        0.431872        0.288159 
        2.03714        0.430493        0.286072 
        2.04328        0.426395        0.284004 
        2.04941        0.424598        0.281958 
        2.05554        0.421957        0.279934 
        2.06167        0.419356        0.277927 
        2.06781        0.415472         0.27594 
        2.07396        0.414685        0.273969 
        2.08009        0.411532        0.272021 
        2.08622        0.409378        0.270094 
        2.09237        0.407031        0.268182 
        2.09851        0.403745        0.266289 
        2.10464        0.401986        0.264417 
        2.11077        0.398361        0.262565 
        2.11691        0.396861        0.260727 
        2.12305        0.395142        0.258907 
        2.12918        0.392169        0.257109 
        2.13531        0.390091        0.255327 
        2.14145        0.387602        0.253559 
         2.1476        0.385728        0.251805 
        2.15372        0.383625        0.250076 
        2.15985        0.380616        0.248363 
        2.16599        0.379135         0.24666 
        2.17213        0.377004        0.244975 
        2.17827        0.374025        0.243307 
         2.1844        0.373007        0.241656 
        2.19054        0.370821        0.240019 
        2.19666        0.368605          0.2384 
         2.2028         0.36573        0.236795 
        2.20893        0.364557        0.235203 
        2.21508        0.362345        0.233625 
        2.22122        0.360641        0.232061 
        2.22736        0.357346        0.230514 
        2.23349         0.35515        0.228982 
        2.23962        0.353963        0.227462 
        2.24577        0.352055        0.225956 
         2.2519        0.350386        0.224465 
        2.25802        0.348273         0.22299 
        2.26417        0.346181        0.221525 
        2.27031        0.344365        0.220071 
        2.27644        0.343632        0.218635 
        2.28257        0.340496        0.217211 
        2.28872        0.339179        0.215798 
        2.29486         0.33704        0.214398 
        2.30099        0.335223        0.213013 
        2.30712        0.333404        0.211639 
        2.31326        0.331596        0.210276 
         2.3194        0.330251        0.208925 
        2.32553        0.328159        0.207589 
        2.33166         0.32689        0.206264 
         2.3378        0.324843         0.20495 
        2.34394        0.323178        0.203647 
        2.35007        0.321122        0.202357 
        2.35619        0.318929         0.20108 
        2.36233        0.317834         0.19981 
        2.36848         0.31643        0.198549 
        2.37462        0.315133        0.197302 
        2.38075        0.313167        0.196067 
        2.38689        0.311847        0.194841 
        2.39303        0.310018        0.193626 
        2.39916        0.308175        0.192423 
        2.40529        0.307016         0.19123 
        2.41143        0.304836        0.190046 
        2.41757        0.303475        0.188872 
         2.4237         0.30205         0.18771 
        2.42983        0.300702        0.186558 
        2.43598        0.299133        0.185413 
        2.44211        0.296838        0.184279 
        2.44823        0.296253        0.183157 
        2.45437        0.294993        0.182042 
        2.46052        0.293252        0.180935 
        2.46665        0.291509        0.179839 
        2.47279        0.290122        0.178752 
        2.47892        0.289024        0.177674 
        2.48507        0.287491        0.176604 
         2.4912        0.286083        0.175545 
