# k  (h/Mpc)    Pcb(k)  (Mpc/h)^3    Pcb_linear(k)  (Mpc/h)^3
     0.00783031         10540.8         10600.9 
       0.013688         12712.4         12997.1 
       0.019231         12921.2         13083.1 
      0.0249154         12045.6           12020 
      0.0312784         10242.8         10318.2 
      0.0375637         8578.45         8694.13 
      0.0433917         7468.76         7489.96 
      0.0492413         6555.37         6619.33 
      0.0555754         5979.24         5987.75 
      0.0619321         5389.66         5549.89 
       0.067871         5121.63          5200.8 
      0.0738098         4785.06         4830.59 
      0.0800417         4361.02         4387.16 
      0.0862327         3871.39         3908.38 
      0.0921407          3453.2         3459.39 
      0.0982031         3096.62         3052.17 
       0.104506         2729.44         2716.94 
       0.110769         2510.89         2478.64 
       0.116806         2394.48         2323.37 
       0.122832         2255.46         2214.92 
       0.129052         2155.66          2121.1 
       0.135211         2087.61         2020.94 
       0.141259         1940.31         1902.57 
       0.147318         1787.81          1764.6 
       0.153489         1664.11         1615.09 
       0.159709         1566.55         1470.76 
       0.165845         1417.24         1347.61 
       0.171974         1370.01         1250.37 
       0.178125         1309.38         1178.43 
       0.184229         1216.95         1126.84 
        0.19034         1195.84         1086.47 
       0.196428         1160.62         1048.81 
       0.202534         1087.25         1007.09 
       0.208729            1066         957.822 
       0.214876         1016.52         903.032 
       0.220989         950.768         846.426 
       0.227147         922.078         791.901 
        0.23329         881.458          743.79 
       0.239377         866.056         704.251 
       0.245482         820.379         672.608 
       0.251667         789.505         646.953 
       0.257832         779.726         625.141 
       0.263955          739.87         604.523 
       0.270079         715.294         582.954 
        0.27624         685.723         559.485 
       0.282372         671.412         534.604 
        0.28843         663.918         509.597 
       0.294538         629.046          485.29 
       0.300721         610.596         462.781 
        0.30691         598.907         443.025 
       0.313033         572.085         426.214 
       0.319153         563.375         411.672 
       0.325316         553.586         398.493 
        0.33145         540.668         386.041 
       0.337538         521.261         373.695 
       0.343633         506.582         361.056 
       0.349808         493.823         347.989 
       0.355968          484.44         334.957 
       0.362074         468.129         322.447 
       0.368217         465.067         310.599 
       0.374374         455.866          299.71 
       0.380519         437.476         289.841 
       0.386598          432.68         280.952 
       0.392688         422.303         272.703 
        0.39888         411.468         264.716 
       0.405048         403.623         256.969 
       0.411186         401.955          249.34 
       0.417313          396.32         241.765 
       0.423458         384.917         234.291 
       0.429607         374.498         227.023 
       0.435692         368.827         220.136 
       0.441815         362.223         213.597 
       0.447964         354.277         207.438 
       0.454126         349.944         201.641 
       0.460267         344.421         196.188 
       0.466387         337.913         190.999 
        0.47254         333.357         185.948 
       0.478662         325.505         181.045 
       0.484765         321.627         176.268 
       0.490885         317.843         171.587 
       0.497035         312.048         167.009 
       0.503198         310.951         162.584 
       0.509342         303.116         158.359 
       0.515458         298.512         154.338 
       0.521598         293.171         150.479 
       0.527764         289.368          146.77 
       0.533884         287.922         143.235 
           0.54         283.116         139.823 
       0.546137         276.952         136.496 
       0.552299         275.697         133.243 
       0.558452         271.042         130.084 
       0.564573         269.079         127.034 
       0.570708         264.146         124.069 
       0.576825         259.927          121.21 
       0.582926         257.757         118.454 
       0.589034         253.864         115.794 
       0.595184         252.139         113.211 
       0.601379         247.977         110.698 
       0.607522         242.906         108.284 
       0.613639         241.804         105.948 
       0.619772         240.291         103.671 
       0.625918         237.038         101.453 
       0.632068         233.033         99.2959 
       0.638161         231.633         97.2199 
         0.6443         229.267         95.1887 
       0.650464         225.495         93.2091 
       0.656582         223.677         91.3017 
       0.662703         222.166         89.4492 
       0.668861         217.908         87.6403 
       0.675024         217.362         85.8824 
       0.681124         214.569          84.192 
       0.687237          212.61         82.5444 
       0.693381         209.809         80.9328 
       0.699536         208.135         79.3604 
       0.705665         206.087         77.8354 
       0.711789         203.873         76.3512 
       0.717957         201.788         74.8955 
        0.72409         199.404         73.4863 
       0.730186         200.345         72.1228 
       0.736317         196.985         70.7877 
       0.742472          194.45         69.4826 
       0.748622         191.878         68.2124 
        0.75476         192.431         66.9773 
       0.760888         189.924         65.7749 
       0.767043         187.137         64.5974 
       0.773185         185.784          63.451 
       0.779291         183.463         62.3389 
       0.785407         182.691         61.2518 
       0.791564         180.982         60.1839 
       0.797719         178.163         59.1422 
       0.803834         179.049          58.132 
       0.809972         177.126         57.1421 
       0.816124         174.294         56.1734 
       0.822261         173.149         55.2302 
       0.828378         172.867         54.3117 
       0.834502         170.484         53.4136 
       0.840667         170.255         52.5302 
       0.846816         167.619         51.6694 
       0.852925         166.706         50.8335 
       0.859047         165.152         50.0145 
       0.865192         164.706         49.2109 
       0.871341         162.694         48.4246 
       0.877463         161.261         47.6591 
       0.883569         161.203         46.9122 
       0.889708         159.612         46.1775 
       0.895864         158.157         45.4569 
       0.902008         156.641         44.7532 
       0.908149         155.092         44.0649 
       0.914301         154.548         43.3901 
       0.920448         154.194         42.7301 
       0.926574         151.901         42.0863 
       0.932687         151.684         41.4572 
       0.938823         150.527         40.8388 
       0.944975         149.426         40.2317 
       0.951105         148.027         39.6392 
       0.957225         147.336         39.0598 
       0.963368         146.187           38.49 
       0.969511         144.742         37.9317 
       0.975621         143.424         37.3875 
       0.981748         142.693         36.8527 
       0.987916         141.978         36.3251 
        0.99406         141.121         35.8099 
        1.00019         140.108         35.3057 
        1.00632         139.124         34.8118 
        1.01246         138.302         34.3267 
        1.01859         137.356         33.8517 
        1.02471         136.371         33.3863 
        1.03085         135.336         32.9282 
        1.03698         134.377         32.4796 
        1.04314          133.97         32.0376 
        1.04929         133.334         31.6049 
        1.05541         132.429         31.1819 
        1.06154         131.225         30.7658 
        1.06769         130.501         30.3566 
        1.07382         129.843         29.9563 
        1.07993         128.871         29.5641 
        1.08607         128.148         29.1774 
        1.09222         127.269         28.7973 
        1.09836         126.444         28.4244 
        1.10449          125.59         28.0586 
        1.11063         124.853         27.6988 
        1.11677         124.201         27.3455 
         1.1229         123.149          26.999 
        1.12903         122.522         26.6582 
        1.13518          121.73         26.3231 
        1.14131         121.139          25.994 
        1.14745          120.49         25.6706 
        1.15359         119.218         25.3528 
        1.15973         118.917         25.0402 
        1.16584         118.172         24.7343 
        1.17197         117.605         24.4332 
        1.17811         116.563         24.1361 
        1.18424         116.096         23.8449 
        1.19038         115.518         23.5577 
        1.19652         114.818         23.2753 
        1.20267         114.044         22.9976 
        1.20881         113.257         22.7245 
        1.21495         112.822         22.4562 
        1.22108         112.184         22.1924 
         1.2272         111.343         21.9335 
        1.23334         111.094         21.6781 
        1.23949         110.448         21.4262 
        1.24562         109.596          21.179 
        1.25174         109.127         20.9362 
        1.25789         108.334         20.6964 
        1.26402         108.015         20.4608 
        1.27014         107.286         20.2295 
        1.27628         106.404          20.001 
        1.28244         106.264         19.7757 
        1.28858         105.317         19.5542 
        1.29471          104.74         19.3366 
        1.30084          104.05         19.1225 
        1.30697         103.694         18.9113 
        1.31312         103.014         18.7031 
        1.31925         102.323         18.4986 
        1.32537          101.96         18.2975 
        1.33151         101.733         18.0986 
        1.33765          100.83         17.9028 
        1.34378         100.511         17.7103 
        1.34992         100.116         17.5205 
        1.35606          99.425          17.333 
         1.3622         99.2147         17.1487 
        1.36833         98.1791         16.9675 
        1.37445         97.9454          16.789 
        1.38059         97.4437         16.6125 
        1.38675         96.6858         16.4382 
        1.39288         96.2116         16.2671 
        1.39901         95.6358         16.0984 
        1.40515         95.2672         15.9318 
         1.4113         94.7779         15.7677 
        1.41742         94.2063         15.6065 
        1.42355         93.9534         15.4472 
         1.4297         93.2288         15.2897 
        1.43585         92.8205         15.1345 
        1.44198         92.1291          14.982 
        1.44809         91.5792         14.8319 
        1.45423         91.5499         14.6833 
        1.46036         90.7332         14.5371 
        1.46649         90.2037         14.3927 
        1.47263         89.8269         14.2503 
        1.47877         89.3603         14.1098 
        1.48491         88.9452          13.971 
        1.49104         88.1548         13.8344 
        1.49718         87.9594         13.6995 
        1.50333         87.6014         13.5663 
        1.50947         87.2223          13.435 
         1.5156         86.8889         13.3057 
        1.52172          86.119         13.1781 
        1.52787         85.7892          13.052 
          1.534         85.3396         12.9276 
        1.54013         85.0512          12.805 
        1.54627          84.318         12.6838 
        1.55241         84.2134         12.5641 
        1.55855         83.4944         12.4462 
        1.56467         82.8855         12.3301 
         1.5708         82.5813         12.2151 
        1.57695         82.3095         12.1014 
        1.58308         81.8693         11.9895 
        1.58922         81.6942         11.8789 
        1.59535         81.4124         11.7697 
         1.6015         80.7986         11.6618 
        1.60764         80.3386         11.5552 
        1.61376         79.9992         11.4503 
        1.61989         79.4385         11.3467 
        1.62604         79.1735          11.244 
        1.63218         78.8832         11.1427 
        1.63831         78.4558         11.0429 
        1.64444         78.0511         10.9443 
        1.65059         77.5976         10.8467 
        1.65673         77.2907         10.7503 
        1.66285         76.7429         10.6554 
        1.66898         76.3026         10.5616 
        1.67512         75.9717         10.4688 
        1.68127         75.7785          10.377 
         1.6874         75.2545         10.2865 
        1.69353         74.8553         10.1972 
        1.69967         74.5805         10.1087 
        1.70581         74.2548         10.0212 
        1.71193         73.8092          9.9352 
        1.71806         73.5079         9.84998 
        1.72421         73.1763         9.76561 
        1.73035         72.8578         9.68231 
        1.73649          72.384         9.60001 
        1.74262         71.9678         9.51874 
        1.74876         71.7062         9.43836 
        1.75489         71.3357         9.35907 
        1.76101         70.9444         9.28072 
        1.76715         70.6452         9.20316 
        1.77329         70.2476          9.1264 
        1.77943         70.0938         9.05048 
        1.78557         69.7352         8.97554 
        1.79171         69.2653         8.90143 
        1.79785          68.901         8.82815 
        1.80399         68.7254         8.75571 
        1.81012         68.2933         8.68419 
        1.81625         67.9785         8.61349 
        1.82239         67.6759         8.54348 
        1.82853          67.222         8.47428 
        1.83466         66.9401         8.40592 
        1.84078         66.7029         8.33838 
        1.84692         66.5965         8.27148 
        1.85306         66.1513         8.20523 
         1.8592         65.8398         8.13981 
        1.86533         65.4591         8.07515 
        1.87147         65.1272         8.01111 
        1.87761         64.7345         7.94774 
        1.88375          64.529         7.88513 
        1.88988         64.0631         7.82327 
        1.89601          63.944         7.76204 
        1.90215         63.4788         7.70141 
        1.90829         63.2515         7.64147 
        1.91442         62.9041         7.58215 
        1.92056          62.773         7.52353 
         1.9267         62.3511         7.46546 
        1.93284         62.1422         7.40797 
        1.93897         61.7891          7.3512 
        1.94509         61.4737         7.29515 
        1.95123         61.2372         7.23954 
        1.95737         60.9811         7.18447 
        1.96349         60.7141         7.13012 
        1.96964         60.3756         7.07618 
        1.97578         60.0293         7.02277 
        1.98192         59.7207         6.97002 
        1.98805         59.2995          6.9178 
        1.99419         59.2405         6.86612 
        2.00033         58.8557         6.81495 
        2.00647         58.6333         6.76431 
         2.0126         58.3587         6.71427 
        2.01874         58.2892         6.66466 
        2.02488         57.9215         6.61551 
        2.03101         57.6121         6.56695 
        2.03714         57.3654         6.51893 
        2.04328         57.0439         6.47133 
        2.04941         56.6119         6.42425 
        2.05554         56.5625         6.37767 
        2.06167         56.3293         6.33148 
        2.06781          56.014         6.28575 
        2.07396         55.7127         6.24041 
        2.08009         55.4608          6.1956 
        2.08622         55.2321         6.15127 
        2.09237         54.9685          6.1073 
        2.09851         54.5837         6.06374 
        2.10464         54.4154         6.02069 
        2.11077         54.2316          5.9781 
        2.11691         53.9428         5.93583 
        2.12305          53.654         5.89397 
        2.12918         53.3763         5.85261 
        2.13531         53.1497         5.81165 
        2.14145         52.8987         5.77099 
         2.1476          52.804         5.73067 
        2.15372         52.5037         5.69093 
        2.15985         52.1718         5.65153 
        2.16599         51.9218          5.6124 
        2.17213         51.6971         5.57368 
        2.17827         51.5009         5.53533 
         2.1844         51.1507         5.49738 
        2.19054         51.1083         5.45977 
        2.19666         50.8175         5.42257 
         2.2028         50.4974         5.38568 
        2.20893         50.2654         5.34912 
        2.21508         49.9586         5.31285 
        2.22122         49.7734         5.27692 
        2.22736         49.5582         5.24139 
        2.23349         49.3709         5.20619 
        2.23962          49.171          5.1713 
        2.24577         48.8978          5.1367 
         2.2519         48.6594         5.10247 
        2.25802           48.44          5.0686 
        2.26417         48.2073         5.03494 
        2.27031         48.0482         5.00156 
        2.27644         47.8761         4.96859 
        2.28257         47.5007         4.93591 
        2.28872         47.4475         4.90346 
        2.29486         47.1876         4.87131 
        2.30099         46.8402         4.83952 
        2.30712         46.7318         4.80799 
        2.31326         46.5343          4.7767 
         2.3194         46.2941          4.7457 
        2.32553         46.1329         4.71503 
        2.33166         45.8659         4.68464 
         2.3378         45.6383         4.65448 
        2.34394         45.4437         4.62458 
        2.35007         45.2282         4.59498 
        2.35619         45.0447         4.56568 
        2.36233         44.7949         4.53656 
        2.36848         44.6847         4.50764 
        2.37462         44.3198         4.47903 
        2.38075         44.2724          4.4507 
        2.38689         44.0538         4.42259 
        2.39303         43.8309         4.39473 
        2.39916         43.6144         4.36714 
        2.40529         43.4717         4.33979 
        2.41143         43.2601         4.31265 
        2.41757         43.1159         4.28573 
         2.4237         42.9114         4.25909 
        2.42983         42.6704         4.23268 
        2.43598         42.4983         4.20642 
        2.44211         42.2345         4.18044 
        2.44823         42.0818         4.15472 
        2.45437         41.9229         4.12916 
        2.46052           41.64         4.10379 
        2.46665         41.5075         4.07867 
        2.47279         41.2634         4.05378 
        2.47892         41.1551         4.02908 
        2.48507         41.0354         4.00456 
         2.4912         40.6841         3.98029 
