# k  (h/Mpc)    P(k)  (Mpc/h)^3    P_linear(k)  (Mpc/h)^3
     0.00783031         6008.13         6065.42 
       0.013688         7284.71         7428.73 
       0.019231         7396.58          7474.2 
      0.0249154         6873.23         6864.85 
      0.0312784         5863.66         5891.73 
      0.0375637         4919.08         4963.72 
      0.0433917         4274.46         4275.87 
      0.0492413         3756.15         3778.61 
      0.0555754          3423.8         3417.91 
      0.0619321         3103.41         3167.85 
       0.067871         2943.45         2968.51 
      0.0738098         2743.62         2757.14 
      0.0800417         2500.89         2503.99 
      0.0862327          2219.7         2230.69 
      0.0921407          1973.3         1974.41 
      0.0982031         1761.87         1741.97 
       0.104506         1553.09         1550.63 
       0.110769         1424.92         1414.62 
       0.116806         1355.38         1325.99 
       0.122832         1277.45         1264.09 
       0.129052         1225.68         1210.54 
       0.135211         1180.74         1153.37 
       0.141259         1100.85         1085.81 
       0.147318         1013.13         1007.07 
       0.153489         939.047         921.737 
       0.159709           874.7         839.368 
       0.165845         790.354         769.083 
       0.171974         759.247         713.585 
       0.178125         720.624         672.526 
       0.184229         675.482         643.085 
        0.19034         660.852         620.043 
       0.196428         639.655         598.549 
       0.202534         600.242         574.742 
       0.208729         585.684         546.624 
       0.214876         558.707         515.354 
       0.220989         518.334         483.049 
       0.227147         500.962         451.932 
        0.23329         477.298         424.474 
       0.239377         463.115         401.909 
       0.245482         438.721         383.851 
       0.251667         420.887          369.21 
       0.257832         416.078         356.762 
       0.263955         394.062         344.996 
       0.270079         379.995         332.686 
        0.27624         364.075         319.292 
       0.282372         353.544         305.092 
        0.28843         349.155          290.82 
       0.294538         330.946         276.949 
       0.300721          317.68         264.104 
        0.30691          311.75         252.829 
       0.313033         297.756         243.233 
       0.319153         292.497         234.936 
       0.325316          284.36         227.415 
        0.33145         276.587         220.308 
       0.337538         267.231         213.263 
       0.343633         259.006          206.05 
       0.349808         251.329         198.592 
       0.355968         245.423         191.155 
       0.362074             239         184.016 
       0.368217         234.778         177.253 
       0.374374         228.849          171.04 
       0.380519         219.271         165.408 
       0.386598          215.43         160.335 
       0.392688         209.616         155.628 
        0.39888          205.23         151.069 
       0.405048         200.933         146.649 
       0.411186         198.268         142.294 
       0.417313         193.795         137.971 
       0.423458         188.706         133.706 
       0.429607         184.375         129.558 
       0.435692         181.222         125.628 
       0.441815         176.757         121.896 
       0.447964          171.72         118.382 
       0.454126          168.78         115.073 
       0.460267         167.064         111.962 
       0.466387         163.309             109 
        0.47254          161.41         106.118 
       0.478662         156.122         103.319 
       0.484765         154.052         100.593 
       0.490885         151.091         97.9217 
       0.497035         149.669         95.3095 
       0.503198         146.937          92.784 
       0.509342         143.077         90.3725 
       0.515458         141.287         88.0782 
       0.521598         137.869         85.8756 
       0.527764         136.443         83.7593 
       0.533884          135.71         81.7419 
           0.54           132.1         79.7946 
       0.546137         129.136         77.8959 
       0.552299         127.441         76.0392 
       0.558452         125.161          74.237 
       0.564573          124.61         72.4959 
       0.570708         121.202         70.8043 
       0.576825         119.846         69.1722 
       0.582926         118.523         67.5998 
       0.589034         116.593         66.0813 
       0.595184         115.338         64.6073 
       0.601379           112.7         63.1732 
       0.607522         110.767         61.7955 
       0.613639         109.898         60.4629 
       0.619772         108.161         59.1635 
       0.625918         107.314         57.8974 
       0.632068          105.12         56.6664 
       0.638161         103.703         55.4817 
         0.6443         103.115         54.3225 
       0.650464         100.996         53.1928 
       0.656582           100.6         52.1042 
       0.662703         99.3049          51.047 
       0.668861         97.1677         50.0147 
       0.675024         97.1305         49.0116 
       0.681124         95.5334         48.0469 
       0.687237         93.8624         47.1066 
       0.693381         93.2015         46.1869 
       0.699536         92.0657         45.2895 
       0.705665         90.8477         44.4192 
       0.711789         89.6676         43.5722 
       0.717957          88.562         42.7415 
        0.72409          87.849         41.9373 
       0.730186         87.3505         41.1592 
       0.736317         85.8117         40.3973 
       0.742472         84.7025         39.6525 
       0.748622         83.4899         38.9276 
        0.75476         83.1573         38.2227 
       0.760888         82.6478         37.5365 
       0.767043         81.0209         36.8645 
       0.773185         80.0667         36.2103 
       0.779291         79.1962         35.5757 
       0.785407         78.3374         34.9553 
       0.791564         78.1711         34.3459 
       0.797719         77.0629         33.7514 
       0.803834         76.4884         33.1749 
       0.809972         75.8407         32.6099 
       0.816124           74.93         32.0572 
       0.822261         73.9686         31.5188 
       0.828378         73.7973         30.9947 
       0.834502         72.7447         30.4821 
       0.840667         72.2766          29.978 
       0.846816           71.57         29.4868 
       0.852925         70.7415         29.0098 
       0.859047         70.5863         28.5424 
       0.865192         69.5126         28.0838 
       0.871341         68.7417          27.635 
       0.877463         68.2644         27.1982 
       0.883569         68.1054         26.7719 
       0.889708         67.4269         26.3527 
       0.895864         66.8468         25.9414 
       0.902008          66.196         25.5398 
       0.908149         65.4032          25.147 
       0.914301         65.1276         24.7619 
       0.920448          64.892         24.3853 
       0.926574         63.6442         24.0179 
       0.932687           63.39         23.6589 
       0.938823         62.8578          23.306 
       0.944975         62.1314         22.9595 
       0.951105         61.6838         22.6214 
       0.957225         61.4603         22.2907 
       0.963368         60.8789         21.9655 
       0.969511         60.3702         21.6469 
       0.975621         59.9181         21.3364 
       0.981748          59.336         21.0312 
       0.987916          58.908         20.7301 
        0.99406         58.5643          20.436 
        1.00019         57.9199         20.1483 
        1.00632          57.529         19.8665 
        1.01246         57.1398         19.5896 
        1.01859         56.8811         19.3185 
        1.02471         56.2528          19.053 
        1.03085         55.9023         18.7915 
        1.03698         55.5917         18.5355 
        1.04314         55.1524         18.2833 
        1.04929         54.6626         18.0363 
        1.05541         54.4144         17.7949 
        1.06154         54.0709         17.5574 
        1.06769         53.4236         17.3239 
        1.07382         53.0882         17.0955 
        1.07993         52.8749         16.8717 
        1.08607         52.4439          16.651 
        1.09222         52.2258         16.4341 
        1.09836         51.7818         16.2213 
        1.10449         51.5142         16.0125 
        1.11063           51.06         15.8072 
        1.11677         50.9346         15.6056 
         1.1229         50.3914         15.4078 
        1.12903          50.193         15.2134 
        1.13518         50.0661         15.0221 
        1.14131         49.5175         14.8343 
        1.14745         49.1273         14.6497 
        1.15359         48.6457         14.4684 
        1.15973         48.6265           14.29 
        1.16584         48.2521         14.1154 
        1.17197         47.7101         13.9436 
        1.17811         47.5659          13.774 
        1.18424          46.925         13.6078 
        1.19038         46.8753         13.4439 
        1.19652         46.6662         13.2828 
        1.20267         46.3605         13.1243 
        1.20881         46.0396         12.9684 
        1.21495         45.8643         12.8154 
        1.22108         45.7251         12.6648 
         1.2272         45.2494          12.517 
        1.23334         45.0303         12.3713 
        1.23949         44.7441         12.2275 
        1.24562         44.4213         12.0865 
        1.25174         44.1698         11.9479 
        1.25789         44.0983          11.811 
        1.26402         43.7512         11.6766 
        1.27014          43.581         11.5446 
        1.27628          43.124         11.4142 
        1.28244         43.1077         11.2856 
        1.28858         42.7443         11.1592 
        1.29471         42.4871          11.035 
        1.30084         42.1649         10.9128 
        1.30697         42.1404         10.7923 
        1.31312         41.7521         10.6735 
        1.31925         41.4268         10.5568 
        1.32537         41.2488          10.442 
        1.33151         40.9916         10.3285 
        1.33765          40.879         10.2168 
        1.34378         40.6816         10.1069 
        1.34992         40.3692         9.99859 
        1.35606         40.1069         9.89164 
         1.3622         39.9376         9.78644 
        1.36833         39.7687         9.68303 
        1.37445         39.3876         9.58117 
        1.38059         39.3182         9.48046 
        1.38675         38.9431         9.38097 
        1.39288         38.8989          9.2833 
        1.39901         38.6068         9.18708 
        1.40515         38.4642         9.09201 
         1.4113         38.4185         8.99832 
        1.41742         38.1402         8.90631 
        1.42355         37.8214         8.81543 
         1.4297         37.6835         8.72554 
        1.43585         37.4498         8.63695 
        1.44198         37.2304         8.54993 
        1.44809         37.0202         8.46428 
        1.45423         36.9165          8.3795 
        1.46036         36.7695         8.29603 
        1.46649         36.5416         8.21367 
        1.47263         36.3064         8.13237 
        1.47877         36.1716         8.05221 
        1.48491         36.0219         7.97301 
        1.49104         35.7473         7.89505 
        1.49718         35.6649         7.81807 
        1.50333         35.5154         7.74201 
        1.50947         35.2651         7.66711 
         1.5156         35.1231         7.59333 
        1.52172         34.8718         7.52051 
        1.52787         34.7741         7.44851 
          1.534         34.5359         7.37754 
        1.54013         34.5356         7.30758 
        1.54627         34.2012          7.2384 
        1.55241         34.0493          7.1701 
        1.55855         33.9712         7.10279 
        1.56467         33.7642         7.03653 
         1.5708          33.648         6.97093 
        1.57695         33.4896         6.90607 
        1.58308          33.199         6.84218 
        1.58922         33.0764         6.77906 
        1.59535         32.9652         6.71676 
         1.6015         32.9077         6.65516 
        1.60764         32.6704         6.59436 
        1.61376         32.4907         6.53449 
        1.61989         32.2664         6.47532 
        1.62604         32.1627         6.41675 
        1.63218         32.0141         6.35895 
        1.63831         31.9114         6.30199 
        1.64444         31.7502         6.24571 
        1.65059         31.5943         6.18998 
        1.65673         31.4628           6.135 
        1.66285         31.3856         6.08084 
        1.66898         31.1349         6.02732 
        1.67512         31.0868         5.97434 
        1.68127          30.905         5.92196 
         1.6874         30.7493         5.87031 
        1.69353         30.6766         5.81932 
        1.69967         30.5317         5.76882 
        1.70581          30.309         5.71893 
        1.71193         30.1681         5.66983 
        1.71806         30.0934          5.6212 
        1.72421           29.97         5.57305 
        1.73035         29.7998         5.52551 
        1.73649         29.6107         5.47855 
        1.74262          29.456         5.43217 
        1.74876         29.4359         5.38629 
        1.75489           29.25         5.34104 
        1.76101         29.1473         5.29633 
        1.76715         29.0401         5.25207 
        1.77329         28.8117         5.20826 
        1.77943         28.7664         5.16494 
        1.78557         28.6611         5.12217 
        1.79171         28.5358         5.07988 
        1.79785         28.3975         5.03806 
        1.80399         28.2689         4.99672 
        1.81012         28.2002          4.9559 
        1.81625         27.9559         4.91556 
        1.82239         27.8756          4.8756 
        1.82853           27.76         4.83611 
        1.83466         27.6378          4.7971 
        1.84078         27.4933         4.75856 
        1.84692         27.4217         4.72038 
        1.85306         27.2498         4.68257 
         1.8592         27.2226         4.64524 
        1.86533         27.0478         4.60833 
        1.87147         26.9201         4.57179 
        1.87761         26.7871         4.53563 
        1.88375         26.7501          4.4999 
        1.88988         26.5961         4.46459 
        1.89601         26.4401         4.42965 
        1.90215         26.3578         4.39505 
        1.90829         26.2948         4.36084 
        1.91442         26.1128         4.32699 
        1.92056         26.0436         4.29354 
         1.9267         25.9472          4.2604 
        1.93284         25.8596         4.22759 
        1.93897         25.7547         4.19519 
        1.94509         25.6353         4.16321 
        1.95123         25.5269         4.13147 
        1.95737         25.3952         4.10004 
        1.96349         25.3222         4.06903 
        1.96964         25.2882         4.03824 
        1.97578         25.0498         4.00776 
        1.98192         24.9907         3.97766 
        1.98805         24.8195         3.94786 
        1.99419         24.7973         3.91837 
        2.00033          24.651         3.88916 
        2.00647          24.607         3.86026 
         2.0126          24.448         3.83171 
        2.01874         24.3644          3.8034 
        2.02488         24.2241         3.77535 
        2.03101         24.1145         3.74764 
        2.03714         24.0675         3.72023 
        2.04328         23.9624         3.69307 
        2.04941         23.8503          3.6662 
        2.05554         23.7962         3.63961 
        2.06167         23.6719         3.61326 
        2.06781         23.6075         3.58716 
        2.07396         23.5183         3.56129 
        2.08009         23.3717         3.53571 
        2.08622         23.3078         3.51042 
        2.09237         23.2651         3.48532 
        2.09851         23.0963         3.46046 
        2.10464         22.9723         3.43589 
        2.11077          22.966         3.41159 
        2.11691         22.8376         3.38747 
        2.12305         22.7594         3.36358 
        2.12918         22.6687         3.33998 
        2.13531         22.5972          3.3166 
        2.14145         22.4738         3.29339 
         2.1476         22.3461         3.27038 
        2.15372         22.3199         3.24771 
        2.15985         22.2124         3.22522 
        2.16599         22.1005         3.20289 
        2.17213         22.0557         3.18079 
        2.17827         21.9186         3.15891 
         2.1844         21.8625         3.13725 
        2.19054         21.8273         3.11579 
        2.19666         21.6801         3.09456 
         2.2028         21.6545         3.07351 
        2.20893         21.5102         3.05264 
        2.21508         21.4328         3.03195 
        2.22122          21.334         3.01144 
        2.22736         21.3198         2.99116 
        2.23349         21.1571         2.97108 
        2.23962         21.1187         2.95116 
        2.24577         21.0222         2.93142 
         2.2519         20.9632         2.91188 
        2.25802         20.8161         2.89255 
        2.26417         20.7741         2.87335 
        2.27031         20.6987          2.8543 
        2.27644         20.6571         2.83548 
        2.28257         20.5434         2.81683 
        2.28872          20.525         2.79831 
        2.29486         20.4104         2.77997 
        2.30099         20.2902         2.76182 
        2.30712         20.2483         2.74383 
        2.31326         20.1348         2.72597 
         2.3194         20.0708         2.70828 
        2.32553         20.0299         2.69078 
        2.33166            19.9         2.67344 
         2.3378         19.8681         2.65623 
        2.34394         19.7565         2.63916 
        2.35007          19.709         2.62227 
        2.35619         19.6598         2.60555 
        2.36233         19.5152         2.58893 
        2.36848          19.452         2.57243 
        2.37462         19.4099          2.5561 
        2.38075         19.3438         2.53993 
        2.38689         19.2324         2.52389 
        2.39303         19.1787         2.50799 
        2.39916         19.0771         2.49224 
        2.40529         19.0375         2.47663 
        2.41143          18.942         2.46115 
        2.41757         18.8469         2.44579 
         2.4237         18.8043         2.43058 
        2.42983          18.745         2.41551 
        2.43598         18.6517         2.40053 
        2.44211         18.6001          2.3857 
        2.44823         18.5208         2.37102 
        2.45437         18.4958         2.35643 
        2.46052         18.3811         2.34196 
        2.46665         18.3618         2.32762 
        2.47279         18.2377         2.31342 
        2.47892         18.1741         2.29932 
        2.48507         18.1218         2.28533 
         2.4912         18.0417         2.27148 
