# k  (h/Mpc)    Pcb(k)  (Mpc/h)^3    Pcb_linear(k)  (Mpc/h)^3
     0.00783031         13469.9         13658.7 
       0.013688         17917.7         17773.4 
       0.019231         18855.8         18866.6 
      0.0249154         17853.3         18285.9 
      0.0312784           16379           16648 
      0.0375637           14689         14803.4 
      0.0433917         12923.2         13293.7 
      0.0492413         11888.6         12105.1 
      0.0555754         10668.1         11154.6 
      0.0619321         10284.4         10420.9 
       0.067871         9368.22         9799.79 
      0.0738098         8733.88         9148.33 
      0.0800417          7897.7         8398.01 
      0.0862327         7255.14         7612.98 
      0.0921407         6679.35          6886.3 
      0.0982031         6018.56         6224.09 
       0.104506         5660.19          5665.5 
       0.110769         5242.38          5247.3 
       0.116806         4926.48         4949.58 
       0.122832         4702.05         4716.01 
       0.129052         4382.07         4497.47 
       0.135211          4174.3         4269.44 
       0.141259         4009.84         4019.53 
       0.147318         3794.37         3747.95 
       0.153489         3490.53         3467.73 
       0.159709         3311.27         3204.53 
       0.165845         3199.76         2981.23 
       0.171974         3017.83         2801.54 
       0.178125         2874.87         2661.44 
       0.184229         2758.91         2551.29 
        0.19034         2619.35         2455.51 
       0.196428         2575.25         2361.36 
       0.202534         2480.94         2259.71 
       0.208729         2380.32         2147.03 
       0.214876         2287.97         2029.45 
       0.220989         2216.85         1913.81 
       0.227147          2123.7         1805.95 
        0.23329         2044.86         1712.05 
       0.239377         2020.85         1634.13 
       0.245482         1901.03         1569.32 
       0.251667         1894.23         1513.18 
       0.257832         1823.64         1461.82 
       0.263955         1766.44         1411.09 
       0.270079         1711.92         1358.17 
        0.27624         1694.59         1302.43 
       0.282372         1624.54         1245.82 
        0.28843         1623.25         1191.17 
       0.294538         1547.52          1139.6 
       0.300721         1539.84         1092.65 
        0.30691         1483.05         1051.34 
       0.313033         1454.86         1015.43 
       0.319153         1438.05          983.07 
       0.325316         1389.73         952.404 
        0.33145         1361.55         922.404 
       0.337538         1340.97         892.389 
       0.343633         1313.69          861.94 
       0.349808         1273.96           831.2 
       0.355968         1265.54         801.334 
       0.362074         1254.56         773.323 
       0.368217         1216.59         747.199 
       0.374374         1175.24         723.242 
       0.380519         1178.07          701.34 
       0.386598         1148.29         681.158 
       0.392688         1143.05         661.943 
        0.39888          1112.7         642.923 
       0.405048         1101.47         624.214 
       0.411186            1086           605.8 
       0.417313         1063.88         587.688 
       0.423458         1047.99         570.044 
       0.429607         1034.11         553.159 
       0.435692         1015.85         537.335 
       0.441815         1010.08         522.349 
       0.447964         988.085         508.216 
       0.454126         980.909         494.785 
       0.460267         959.543         481.954 
       0.466387         946.866         469.578 
        0.47254         942.267         457.435 
       0.478662         932.867         445.587 
       0.484765         910.723         434.052 
       0.490885         905.333         422.827 
       0.497035         885.779         411.943 
       0.503198         881.886         401.474 
       0.509342         871.117         391.501 
       0.515458         868.252         382.025 
       0.521598         849.079         372.905 
       0.527764         831.828          364.07 
       0.533884         832.708         355.575 
           0.54         824.353         347.328 
       0.546137          816.57         339.273 
       0.552299         807.222         331.389 
       0.558452         801.371         323.734 
       0.564573         790.158         316.352 
       0.570708         783.322         309.206 
       0.576825         762.213         302.338 
       0.582926         766.898         295.727 
       0.589034         759.724         289.326 
       0.595184          752.14         283.085 
       0.601379          742.96         276.988 
       0.607522         733.003         271.118 
       0.613639         734.621         265.435 
       0.619772          717.77         259.888 
       0.625918         713.336         254.476 
       0.632068         705.661         249.209 
       0.638161         703.387         244.139 
         0.6443         690.421         239.183 
       0.650464         689.543          234.36 
       0.656582         685.708         229.716 
       0.662703         681.363         225.203 
       0.668861         669.796         220.788 
       0.675024         664.587         216.486 
       0.681124          661.52         212.338 
       0.687237         656.036         208.287 
       0.693381         648.904         204.321 
       0.699536         637.579         200.452 
       0.705665         638.643         196.701 
       0.711789         633.543         193.053 
       0.717957         627.838         189.476 
        0.72409         624.734         186.011 
       0.730186         615.837         182.656 
       0.736317          612.76         179.366 
       0.742472         610.016         176.146 
       0.748622         603.407         173.007 
        0.75476         594.412         169.952 
       0.760888         590.062         166.975 
       0.767043         588.971         164.058 
       0.773185         583.355         161.218 
       0.779291         578.811         158.461 
       0.785407         573.288         155.767 
       0.791564         567.691         153.119 
       0.797719         565.293         150.534 
       0.803834         560.772         148.027 
       0.809972         557.303         145.568 
       0.816124         556.423         143.161 
       0.822261          548.08         140.815 
       0.828378         545.155         138.529 
       0.834502         539.925         136.292 
       0.840667         535.753          134.09 
       0.846816         533.036         131.944 
       0.852925          528.13         129.858 
       0.859047         528.329         127.814 
       0.865192         521.653         125.807 
       0.871341         517.304         123.843 
       0.877463          516.52         121.929 
       0.883569         510.834         120.062 
       0.889708         508.711         118.224 
       0.895864         505.628          116.42 
       0.902008         501.984         114.659 
       0.908149         496.582         112.935 
       0.914301          493.82         111.244 
       0.920448         491.079          109.59 
       0.926574         483.256         107.975 
       0.932687         483.243         106.397 
       0.938823         478.398         104.844 
       0.944975         478.874          103.32 
       0.951105         472.308         101.831 
       0.957225         469.152         100.374 
       0.963368         465.274         98.9416 
       0.969511         463.712          97.537 
       0.975621         460.439         96.1674 
       0.981748         457.976         94.8208 
       0.987916         454.944         93.4917 
        0.99406         447.443         92.1932 
        1.00019         446.764         90.9221 
        1.00632          444.44         89.6763 
        1.01246         440.976         88.4521 
        1.01859         440.801          87.253 
        1.02471         434.905         86.0777 
        1.03085         433.108         84.9201 
        1.03698         431.502         83.7865 
        1.04314         427.355         82.6689 
        1.04929         422.358         81.5744 
        1.05541         423.282         80.5044 
        1.06154         417.473          79.451 
        1.06769         414.589          78.415 
        1.07382         412.609          77.401 
        1.07993          410.12         76.4073 
        1.08607         408.964         75.4272 
        1.09222         405.118         74.4633 
        1.09836         402.621         73.5176 
        1.10449         398.827         72.5895 
        1.11063         394.811         71.6765 
        1.11677         395.449         70.7797 
         1.1229         393.106         69.8999 
        1.12903         389.425         69.0343 
        1.13518         385.542         68.1828 
        1.14131         384.501         67.3463 
        1.14745         381.197         66.5243 
        1.15359         379.384          65.716 
        1.15973         376.936         64.9209 
        1.16584         374.411         64.1426 
        1.17197         373.095          63.376 
        1.17811         369.648         62.6196 
        1.18424         366.225         61.8779 
        1.19038          364.35         61.1462 
        1.19652         362.567         60.4266 
        1.20267         360.692         59.7186 
        1.20881         359.113         59.0222 
        1.21495         355.874         58.3381 
        1.22108           354.1          57.665 
         1.2272         351.201         57.0041 
        1.23334         349.038         56.3521 
        1.23949         347.263         55.7088 
        1.24562         345.579         55.0774 
        1.25174         342.498         54.4568 
        1.25789         339.255         53.8438 
        1.26402         337.609         53.2415 
        1.27014         335.495         52.6499 
        1.27628          333.55         52.0656 
        1.28244         333.416          51.489 
        1.28858         329.386          50.922 
        1.29471         327.269         50.3649 
        1.30084         325.829         49.8167 
        1.30697         323.571         49.2758 
        1.31312          320.45         48.7422 
        1.31925         320.009         48.2183 
        1.32537         318.694         47.7026 
        1.33151         315.017         47.1927 
        1.33765          313.07         46.6905 
        1.34378         311.933         46.1967 
        1.34992         309.701         45.7097 
        1.35606         308.341         45.2288 
         1.3622         306.195         44.7556 
        1.36833         304.102         44.2904 
        1.37445         302.523         43.8321 
        1.38059         299.489         43.3789 
        1.38675         298.369          42.931 
        1.39288         296.548         42.4913 
        1.39901          295.49          42.058 
        1.40515         293.249         41.6297 
         1.4113         291.885         41.2077 
        1.41742         289.572         40.7931 
        1.42355         287.435         40.3834 
         1.4297         285.847         39.9782 
        1.43585         284.345         39.5787 
        1.44198         282.777         39.1862 
        1.44809         280.477         38.7998 
        1.45423         278.525         38.4172 
        1.46036         277.554         38.0404 
        1.46649         275.174         37.6687 
        1.47263         273.718         37.3016 
        1.47877         271.924         36.9395 
        1.48491         270.025         36.5818 
        1.49104         269.205         36.2295 
        1.49718         266.892         35.8817 
        1.50333         265.424         35.5378 
        1.50947         263.883         35.1992 
         1.5156         261.656         34.8656 
        1.52172         261.031         34.5362 
        1.52787         258.865         34.2105 
          1.534          257.87         33.8894 
        1.54013         255.252         33.5728 
        1.54627         254.502         33.2596 
        1.55241         252.914         32.9504 
        1.55855         251.214         32.6456 
        1.56467         249.563         32.3455 
         1.5708          249.18         32.0484 
        1.57695         246.719         31.7545 
        1.58308          245.47         31.4651 
        1.58922         242.631          31.179 
        1.59535         241.637         30.8966 
         1.6015         241.176         30.6174 
        1.60764         239.156         30.3417 
        1.61376         237.845         30.0702 
        1.61989         236.307         29.8018 
        1.62604         234.813         29.5361 
        1.63218         233.655         29.2738 
        1.63831         232.021         29.0154 
        1.64444         231.323         28.7599 
        1.65059         229.422          28.507 
        1.65673         228.209         28.2573 
        1.66285         226.589         28.0114 
        1.66898         225.122         27.7683 
        1.67512         224.345         27.5276 
        1.68127         221.952         27.2896 
         1.6874         220.821         27.0549 
        1.69353         219.856         26.8232 
        1.69967         218.343         26.5936 
        1.70581         217.279         26.3668 
        1.71193         215.653         26.1435 
        1.71806         214.959         25.9223 
        1.72421         213.253         25.7033 
        1.73035         212.512         25.4871 
        1.73649          211.12         25.2734 
        1.74262         209.743         25.0623 
        1.74876         208.307         24.8535 
        1.75489         206.971         24.6476 
        1.76101         205.858          24.444 
        1.76715         204.927         24.2424 
        1.77329         203.832         24.0429 
        1.77943         202.702         23.8456 
        1.78557         201.135         23.6507 
        1.79171         200.079          23.458 
        1.79785         198.555         23.2675 
        1.80399          197.74          23.079 
        1.81012         196.497          22.893 
        1.81625         195.487         22.7091 
        1.82239         194.129         22.5269 
        1.82853         193.566         22.3468 
        1.83466          191.95         22.1689 
        1.84078         191.073         21.9931 
        1.84692          189.48         21.8189 
        1.85306         188.926         21.6464 
         1.8592         187.549         21.4761 
        1.86533         186.699         21.3076 
        1.87147         185.278         21.1408 
        1.87761         184.667         20.9758 
        1.88375         182.815         20.8126 
        1.88988         181.575         20.6514 
        1.89601         181.295         20.4918 
        1.90215         180.016         20.3338 
        1.90829         178.922         20.1775 
        1.91442         177.728         20.0229 
        1.92056         177.168           19.87 
         1.9267          175.53         19.7186 
        1.93284         174.654         19.5686 
        1.93897         173.884         19.4205 
        1.94509         172.872         19.2743 
        1.95123         172.005         19.1292 
        1.95737         171.028         18.9855 
        1.96349         169.882         18.8436 
        1.96964         168.794         18.7028 
        1.97578         167.929         18.5633 
        1.98192         166.968         18.4256 
        1.98805         165.728         18.2893 
        1.99419         164.958         18.1543 
        2.00033         164.067         18.0206 
        2.00647         163.266         17.8884 
         2.0126         161.898         17.7576 
        2.01874         161.665          17.628 
        2.02488         160.595         17.4996 
        2.03101         159.156         17.3727 
        2.03714         158.541         17.2471 
        2.04328         157.553         17.1227 
        2.04941         156.799         16.9996 
        2.05554         155.634         16.8778 
        2.06167         155.106          16.757 
        2.06781         154.037         16.6374 
        2.07396         153.048         16.5188 
        2.08009         152.499         16.4016 
        2.08622          151.36         16.2856 
        2.09237         150.468         16.1706 
        2.09851         149.697         16.0566 
        2.10464         149.266         15.9439 
        2.11077         148.217         15.8324 
        2.11691         147.327         15.7218 
        2.12305         146.428         15.6122 
        2.12918         145.596         15.5039 
        2.13531         145.092         15.3967 
        2.14145          143.81         15.2902 
         2.1476         142.874         15.1846 
        2.15372         142.658         15.0805 
        2.15985         142.101         14.9773 
        2.16599         140.636         14.8748 
        2.17213         140.107         14.7733 
        2.17827         139.271         14.6729 
         2.1844         138.351         14.5734 
        2.19054         137.693         14.4748 
        2.19666          136.88         14.3773 
         2.2028         136.165         14.2806 
        2.20893         135.725         14.1848 
        2.21508         134.853         14.0897 
        2.22122         133.822         13.9954 
        2.22736         133.186         13.9022 
        2.23349         132.448         13.8099 
        2.23962         131.651         13.7184 
        2.24577         130.989         13.6276 
         2.2519         130.464         13.5378 
        2.25802         129.651          13.449 
        2.26417         128.864         13.3607 
        2.27031         127.928          13.273 
        2.27644         127.412         13.1865 
        2.28257         126.748         13.1007 
        2.28872         126.263         13.0155 
        2.29486         125.243         12.9311 
        2.30099         124.668         12.8477 
        2.30712         123.974         12.7649 
        2.31326         123.273         12.6827 
         2.3194         122.732         12.6013 
        2.32553         122.009         12.5207 
        2.33166         121.579         12.4409 
         2.3378         120.848         12.3617 
        2.34394         120.239         12.2831 
        2.35007         119.437         12.2053 
        2.35619         118.672         12.1283 
        2.36233         118.214         12.0518 
        2.36848         117.552         11.9758 
        2.37462          117.17         11.9006 
        2.38075         116.235         11.8261 
        2.38689         115.666         11.7522 
        2.39303         115.125         11.6789 
        2.39916         114.588         11.6064 
        2.40529         113.968         11.5344 
        2.41143         113.446         11.4631 
        2.41757         112.598         11.3923 
         2.4237         111.959         11.3222 
        2.42983         111.284         11.2527 
        2.43598         110.872         11.1836 
        2.44211         110.377         11.1152 
        2.44823         109.764         11.0476 
        2.45437         109.232         10.9803 
        2.46052          108.53         10.9135 
        2.46665         107.834         10.8474 
        2.47279         107.483         10.7819 
        2.47892         106.939         10.7169 
        2.48507         106.271         10.6523 
         2.4912         105.735         10.5884 
