# k  (h/Mpc)    Pcb(k)  (Mpc/h)^3    Pcb_linear(k)  (Mpc/h)^3
     0.00783031         716.172         722.375 
       0.013688         939.015         940.634 
       0.019231         998.364         998.782 
      0.0249154         962.973         968.199 
      0.0312784         880.225         881.571 
      0.0375637         785.114         783.946 
      0.0433917         702.574         704.025 
      0.0492413         641.408           641.1 
      0.0555754         588.267         590.776 
      0.0619321         553.782         551.928 
       0.067871         517.231         519.038 
      0.0738098         482.476         484.539 
      0.0800417         441.737         444.803 
      0.0862327         401.751         403.227 
      0.0921407         364.188          364.74 
      0.0982031         328.517         329.667 
       0.104506         301.181         300.082 
       0.110769         278.787         277.932 
       0.116806         261.535         262.164 
       0.122832         250.172         249.793 
       0.129052         237.334         238.218 
       0.135211         225.114          226.14 
       0.141259         212.865         212.904 
       0.147318         199.314         198.519 
       0.153489         183.913         183.677 
       0.159709         170.343         169.737 
       0.165845         159.879         157.909 
       0.171974         149.233         148.391 
       0.178125         142.026          140.97 
       0.184229         136.545         135.136 
        0.19034         130.213         130.063 
       0.196428          126.05         125.076 
       0.202534         121.521         119.692 
       0.208729         115.061         113.724 
       0.214876         108.327         107.496 
       0.220989         103.405         101.371 
       0.227147          96.731         95.6576 
        0.23329         91.9282         90.6841 
       0.239377         88.1662         86.5568 
       0.245482         84.1308         83.1239 
       0.251667         81.9256         80.1502 
       0.257832         79.0551         77.4298 
       0.263955         76.3687         74.7431 
       0.270079         73.6368         71.9399 
        0.27624         71.2649         68.9872 
       0.282372         68.2333         65.9889 
        0.28843         65.0849          63.094 
       0.294538          62.413         60.3624 
       0.300721         60.4126         57.8759 
        0.30691         57.8056         55.6879 
       0.313033         55.9842         53.7858 
       0.319153         53.6257         52.0716 
       0.325316         52.7746         50.4472 
        0.33145         50.9933         48.8582 
       0.337538          49.504         47.2684 
       0.343633          47.766         45.6555 
       0.349808         46.2988         44.0273 
       0.355968          44.765         42.4453 
       0.362074         43.2532         40.9617 
       0.368217         41.9446         39.5779 
       0.374374         40.5245         38.3089 
       0.380519         39.5174         37.1488 
       0.386598         38.4898         36.0798 
       0.392688         37.6047          35.062 
        0.39888         36.5134         34.0546 
       0.405048         35.6155         33.0636 
       0.411186         34.7259         32.0883 
       0.417313         33.5397         31.1289 
       0.423458         32.6934         30.1944 
       0.429607           31.73            29.3 
       0.435692         30.8154         28.4618 
       0.441815          30.153          27.668 
       0.447964         29.6086         26.9194 
       0.454126          28.582          26.208 
       0.460267         27.9766         25.5283 
       0.466387         27.1664         24.8728 
        0.47254         26.6998         24.2296 
       0.478662         26.1549         23.6021 
       0.484765         25.4235          22.991 
       0.490885         24.8025         22.3965 
       0.497035         24.4559           21.82 
       0.503198         23.8102         21.2654 
       0.509342         23.2401         20.7372 
       0.515458         22.7039         20.2353 
       0.521598         22.2804         19.7522 
       0.527764         21.7618         19.2843 
       0.533884         21.3849         18.8343 
           0.54         20.9292         18.3975 
       0.546137           20.54         17.9708 
       0.552299         20.1578         17.5532 
       0.558452         19.5537         17.1477 
       0.564573         19.2917         16.7567 
       0.570708         18.9257         16.3782 
       0.576825         18.4405         16.0144 
       0.582926          18.141         15.6642 
       0.589034         17.6353         15.3252 
       0.595184         17.3782         14.9946 
       0.601379         17.0279         14.6717 
       0.607522         16.7792         14.3607 
       0.613639         16.5684         14.0597 
       0.619772         16.1326         13.7659 
       0.625918         15.9797         13.4792 
       0.632068         15.7177         13.2002 
       0.638161         15.3552         12.9317 
         0.6443         15.0449         12.6692 
       0.650464         14.7517         12.4137 
       0.656582         14.6238         12.1677 
       0.662703         14.3613         11.9287 
       0.668861         14.1129         11.6948 
       0.675024         13.8341          11.467 
       0.681124         13.5958         11.2472 
       0.687237         13.3997         11.0327 
       0.693381         13.2207         10.8226 
       0.699536         12.8648         10.6176 
       0.705665         12.7273          10.419 
       0.711789         12.5249         10.2257 
       0.717957         12.3216         10.0363 
        0.72409          12.121         9.85275 
       0.730186         11.9565         9.67503 
       0.736317         11.8344         9.50078 
       0.742472         11.6472         9.33019 
       0.748622         11.4537         9.16395 
        0.75476         11.2134         9.00211 
       0.760888         11.0933         8.84443 
       0.767043         10.9601         8.68992 
       0.773185         10.7401         8.53947 
       0.779291         10.6478         8.39347 
       0.785407         10.4798         8.25073 
       0.791564         10.3138         8.11047 
       0.797719         10.1587         7.97358 
       0.803834         10.0666         7.84077 
       0.809972         9.95954         7.71055 
       0.816124         9.75607         7.58303 
       0.822261         9.61703         7.45877 
       0.828378         9.50383         7.33768 
       0.834502          9.4155          7.2192 
       0.840667         9.24458         7.10258 
       0.846816         9.09995         6.98889 
       0.852925          9.0206         6.87842 
       0.859047         8.90533         6.77012 
       0.865192         8.82172         6.66383 
       0.871341         8.71969         6.55977 
       0.877463         8.59462         6.45842 
       0.883569         8.45175         6.35949 
       0.889708         8.31957         6.26216 
       0.895864         8.25843         6.16663 
       0.902008         8.15065         6.07331 
       0.908149         8.06261           5.982 
       0.914301         7.93765         5.89244 
       0.920448         7.83098         5.80481 
       0.926574         7.73455         5.71928 
       0.932687         7.67115         5.63567 
       0.938823         7.57318         5.55345 
       0.944975         7.47312         5.47269 
       0.951105         7.40456         5.39384 
       0.957225         7.36246         5.31669 
       0.963368         7.25745          5.2408 
       0.969511         7.17153          5.1664 
       0.975621         7.07297         5.09385 
       0.981748         7.00613         5.02252 
       0.987916         6.93562         4.95212 
        0.99406         6.82438         4.88334 
        1.00019         6.74047         4.81601 
        1.00632          6.7044         4.75003 
        1.01246          6.6316         4.68518 
        1.01859         6.54771         4.62167 
        1.02471         6.47819         4.55941 
        1.03085         6.41447          4.4981 
        1.03698         6.32939         4.43805 
        1.04314         6.27961         4.37886 
        1.04929         6.19711         4.32088 
        1.05541         6.13298          4.2642 
        1.06154         6.07835         4.20841 
        1.06769         6.04075         4.15353 
        1.07382         5.94965         4.09982 
        1.07993         5.88182         4.04719 
        1.08607         5.84947         3.99527 
        1.09222         5.78577         3.94422 
        1.09836         5.73669         3.89412 
        1.10449         5.67251         3.84496 
        1.11063         5.61767          3.7966 
        1.11677         5.56726          3.7491 
         1.1229         5.51212          3.7025 
        1.12903          5.4533         3.65665 
        1.13518         5.40502         3.61155 
        1.14131         5.33417         3.56724 
        1.14745          5.2683          3.5237 
        1.15359         5.24598         3.48089 
        1.15973         5.18418         3.43877 
        1.16584          5.1431         3.39754 
        1.17197         5.09564         3.35694 
        1.17811         5.05253         3.31688 
        1.18424         5.02113         3.27759 
        1.19038         4.97384         3.23883 
        1.19652         4.92627         3.20071 
        1.20267         4.87583         3.16321 
        1.20881         4.83391         3.12633 
        1.21495         4.79685         3.09009 
        1.22108         4.75021         3.05443 
         1.2272         4.72692         3.01943 
        1.23334         4.66403         2.98489 
        1.23949         4.62069         2.95082 
        1.24562         4.59998         2.91737 
        1.25174         4.54198          2.8845 
        1.25789         4.51163         2.85203 
        1.26402         4.46561         2.82013 
        1.27014          4.4249         2.78879 
        1.27628         4.40525         2.75784 
        1.28244         4.34865          2.7273 
        1.28858         4.32854         2.69727 
        1.29471         4.28463         2.66776 
        1.30084         4.24516         2.63872 
        1.30697         4.23547         2.61007 
        1.31312         4.16012         2.58181 
        1.31925         4.14777         2.55406 
        1.32537         4.11335         2.52674 
        1.33151         4.08903         2.49973 
        1.33765         4.03705         2.47313 
        1.34378         4.00606         2.44698 
        1.34992         3.99459         2.42118 
        1.35606         3.94204         2.39571 
         1.3622         3.92604         2.37065 
        1.36833         3.89314           2.346 
        1.37445         3.86185         2.32173 
        1.38059         3.83879         2.29772 
        1.38675         3.81693           2.274 
        1.39288         3.77414         2.25071 
        1.39901         3.74204         2.22775 
        1.40515         3.71879         2.20507 
         1.4113         3.69239         2.18271 
        1.41742          3.6675         2.16075 
        1.42355          3.6458         2.13905 
         1.4297          3.6047         2.11759 
        1.43585         3.59198         2.09643 
        1.44198         3.57141         2.07564 
        1.44809          3.5268         2.05517 
        1.45423         3.50381         2.03491 
        1.46036         3.47913         2.01495 
        1.46649         3.44988         1.99526 
        1.47263         3.42521         1.97581 
        1.47877         3.39474         1.95664 
        1.48491          3.3739         1.93769 
        1.49104         3.35856         1.91903 
        1.49718         3.33478          1.9006 
        1.50333         3.31045         1.88239 
        1.50947         3.28972         1.86446 
         1.5156         3.26639         1.84678 
        1.52172         3.24494         1.82934 
        1.52787          3.2208         1.81209 
          1.534          3.2015         1.79508 
        1.54013         3.17725         1.77831 
        1.54627         3.14852         1.76172 
        1.55241         3.12794         1.74534 
        1.55855         3.11493          1.7292 
        1.56467         3.09371          1.7133 
         1.5708         3.06312         1.69756 
        1.57695         3.04956           1.682 
        1.58308         3.02798         1.66666 
        1.58922          3.0137         1.65151 
        1.59535         2.99215         1.63655 
         1.6015         2.97361         1.62176 
        1.60764         2.95611         1.60716 
        1.61376         2.93635         1.59278 
        1.61989         2.91521         1.57856 
        1.62604         2.89474         1.56449 
        1.63218         2.88673          1.5506 
        1.63831         2.85692         1.53691 
        1.64444         2.83907         1.52337 
        1.65059          2.8265         1.50998 
        1.65673         2.80818         1.49675 
        1.66285         2.78599         1.48372 
        1.66898         2.77487         1.47085 
        1.67512         2.75077          1.4581 
        1.68127         2.73576         1.44549 
         1.6874         2.72503         1.43306 
        1.69353         2.69579         1.42079 
        1.69967         2.68378         1.40863 
        1.70581         2.67715         1.39661 
        1.71193         2.65539         1.38479 
        1.71806         2.64398         1.37307 
        1.72421         2.62602         1.36147 
        1.73035         2.60986         1.35002 
        1.73649          2.5927          1.3387 
        1.74262         2.57767         1.32752 
        1.74876         2.56864         1.31646 
        1.75489         2.54605         1.30555 
        1.76101         2.53103         1.29477 
        1.76715          2.5183         1.28409 
        1.77329          2.5039         1.27352 
        1.77943         2.48556         1.26307 
        1.78557         2.47455         1.25275 
        1.79171         2.46435         1.24254 
        1.79785         2.44521         1.23245 
        1.80399         2.43463         1.22247 
        1.81012         2.42578         1.21261 
        1.81625         2.40478         1.20287 
        1.82239         2.39061         1.19322 
        1.82853         2.37197         1.18368 
        1.83466         2.36717         1.17426 
        1.84078         2.35198         1.16494 
        1.84692          2.3413         1.15572 
        1.85306         2.32415         1.14658 
         1.8592         2.31409         1.13756 
        1.86533         2.30005         1.12864 
        1.87147         2.29132          1.1198 
        1.87761         2.27839         1.11106 
        1.88375         2.25832         1.10242 
        1.88988         2.25287         1.09388 
        1.89601         2.23785         1.08543 
        1.90215         2.22275         1.07706 
        1.90829         2.21207         1.06878 
        1.91442         2.20177         1.06059 
        1.92056         2.19004         1.05249 
         1.9267         2.18066         1.04447 
        1.93284         2.17071         1.03652 
        1.93897         2.15759         1.02868 
        1.94509         2.14282         1.02093 
        1.95123         2.13037         1.01325 
        1.95737         2.12072         1.00564 
        1.96349          2.1106        0.998121 
        1.96964         2.10284        0.990662 
        1.97578         2.09034        0.983277 
        1.98192          2.0815        0.975982 
        1.98805         2.06702         0.96876 
        1.99419         2.05883        0.961611 
        2.00033         2.05508        0.954531 
        2.00647         2.03748        0.947524 
         2.0126         2.03131        0.940599 
        2.01874         2.01644        0.933734 
        2.02488         2.00885        0.926931 
        2.03101          1.9949        0.920208 
        2.03714         1.98268        0.913559 
        2.04328         1.97849        0.906968 
        2.04941         1.96467        0.900447 
        2.05554         1.95947        0.893996 
        2.06167         1.94617        0.887599 
        2.06781         1.94017        0.881264 
        2.07396         1.92943        0.874982 
        2.08009         1.91997        0.868772 
        2.08622         1.90695        0.862629 
        2.09237         1.90574        0.856534 
        2.09851         1.89474        0.850497 
        2.10464         1.88659        0.844529 
        2.11077         1.87483        0.838625 
        2.11691         1.86412        0.832764 
        2.12305         1.85933        0.826959 
        2.12918         1.84908        0.821224 
        2.13531         1.84169        0.815543 
        2.14145         1.83002        0.809903 
         2.1476         1.82178        0.804309 
        2.15372         1.81356        0.798797 
        2.15985          1.8049         0.79333 
        2.16599         1.79574          0.7879 
        2.17213         1.78777        0.782526 
        2.17827         1.78202        0.777204 
         2.1844         1.77411        0.771935 
        2.19054         1.76776        0.766714 
        2.19666         1.75669        0.761549 
         2.2028         1.74958        0.756427 
        2.20893         1.73851        0.751349 
        2.21508         1.73566        0.746313 
        2.22122         1.72273        0.741321 
        2.22736         1.71405        0.736385 
        2.23349         1.71278        0.731496 
        2.23962         1.70056        0.726648 
        2.24577         1.69292         0.72184 
         2.2519         1.68517        0.717082 
        2.25802         1.68208        0.712375 
        2.26417          1.6699        0.707697 
        2.27031          1.6661        0.703057 
        2.27644         1.65814        0.698472 
        2.28257         1.65093        0.693929 
        2.28872          1.6419        0.689417 
        2.29486         1.63797        0.684947 
        2.30099         1.62771        0.680525 
        2.30712         1.62184         0.67614 
        2.31326         1.61779        0.671787 
         2.3194         1.60895        0.667475 
        2.32553         1.60321        0.663207 
        2.33166         1.59378        0.658979 
         2.3378         1.58658        0.654782 
        2.34394         1.57882        0.650621 
        2.35007         1.57294        0.646501 
        2.35619         1.57007        0.642422 
        2.36233          1.5595        0.638369 
        2.36848         1.55485        0.634343 
        2.37462         1.54788        0.630359 
        2.38075         1.54231        0.626414 
        2.38689          1.5355        0.622499 
        2.39303         1.53038        0.618619 
        2.39916         1.52125        0.614775 
        2.40529         1.51853        0.610965 
        2.41143         1.51061        0.607184 
        2.41757         1.50369        0.603434 
         2.4237         1.49938        0.599722 
        2.42983         1.49151        0.596042 
        2.43598         1.48811        0.592383 
        2.44211         1.48078        0.588761 
        2.44823         1.47473        0.585178 
        2.45437         1.46959        0.581614 
        2.46052         1.46497        0.578077 
        2.46665         1.45896        0.574576 
        2.47279         1.45256        0.571105 
        2.47892         1.44527        0.567661 
        2.48507         1.44115        0.564242 
         2.4912         1.43436        0.560857 
