# k  (h/Mpc)    P(k)  (Mpc/h)^3    P_linear(k)  (Mpc/h)^3
     0.00783031         8028.11         8133.76 
       0.013688         10629.5         10575.4 
       0.019231         11219.7         11221.4 
      0.0249154         10684.4         10873.4 
      0.0312784         9795.44         9897.81 
      0.0375637          8770.7         8800.17 
      0.0433917         7757.99         7902.13 
      0.0492413         7121.39         7195.25 
      0.0555754         6436.78         6629.99 
      0.0619321         6166.17          6193.7 
       0.067871         5660.22         5824.39 
      0.0738098         5275.74          5437.1 
      0.0800417         4789.26         4991.08 
      0.0862327         4386.11         4524.46 
      0.0921407         4015.83         4092.54 
      0.0982031         3614.04         3698.95 
       0.104506         3375.48         3366.96 
       0.110769         3123.91          3118.4 
       0.116806         2925.98         2941.46 
       0.122832         2800.57         2802.63 
       0.129052         2621.28         2672.75 
       0.135211         2494.83         2537.22 
       0.141259         2384.85          2388.7 
       0.147318         2247.93          2227.3 
       0.153489         2067.44         2060.77 
       0.159709          1949.4         1904.35 
       0.165845         1865.36         1771.65 
       0.171974          1751.4         1664.86 
       0.178125         1667.85          1581.6 
       0.184229         1606.47         1516.14 
        0.19034         1511.65         1459.22 
       0.196428         1488.12         1403.26 
       0.202534         1439.81         1342.86 
       0.208729         1372.16          1275.9 
       0.214876         1303.58         1206.02 
       0.220989         1263.57          1137.3 
       0.227147         1196.67          1073.2 
        0.23329         1149.38          1017.4 
       0.239377          1127.8         971.093 
       0.245482         1056.71         932.578 
       0.251667         1049.59         899.216 
       0.257832         1012.89         868.697 
       0.263955         981.126         838.551 
       0.270079         949.144         807.101 
        0.27624         938.856         773.976 
       0.282372         898.304         740.335 
        0.28843         881.977         707.856 
       0.294538         839.962         677.208 
       0.300721         836.547         649.313 
        0.30691         799.652         624.766 
       0.313033         784.846         603.425 
       0.319153         764.821         584.193 
       0.325316         741.815         565.971 
        0.33145         722.942         548.141 
       0.337538         714.829         530.304 
       0.343633         693.501          512.21 
       0.349808         671.635         493.943 
       0.355968         667.074         476.194 
       0.362074         655.331         459.549 
       0.368217         637.683         444.025 
       0.374374         613.065         429.787 
       0.380519         609.007         416.772 
       0.386598         595.292         404.779 
       0.392688         592.675          393.36 
        0.39888         575.558         382.059 
       0.405048         565.627         370.939 
       0.411186         555.697         359.997 
       0.417313         545.835         349.234 
       0.423458         537.104         338.749 
       0.429607         526.517         328.715 
       0.435692         514.892         319.311 
       0.441815         511.946         310.407 
       0.447964         501.801         302.007 
       0.454126         487.969         294.027 
       0.460267         481.878         286.401 
       0.466387         476.607         279.047 
        0.47254         467.259         271.831 
       0.478662         466.059          264.79 
       0.484765         453.007         257.935 
       0.490885         448.417         251.265 
       0.497035         440.852         244.797 
       0.503198          433.39         238.576 
       0.509342         430.138         232.649 
       0.515458         425.984         227.019 
       0.521598         418.208         221.598 
       0.527764         410.172         216.349 
       0.533884         407.843           211.3 
           0.54         402.463           206.4 
       0.546137         401.167         201.613 
       0.552299          393.29         196.928 
       0.558452         390.376         192.379 
       0.564573         384.106         187.992 
       0.570708         378.244         183.745 
       0.576825         372.138         179.664 
       0.582926          369.84         175.736 
       0.589034         365.899         171.932 
       0.595184         362.679         168.223 
       0.601379         359.136           164.6 
       0.607522         353.024         161.112 
       0.613639         351.797         157.734 
       0.619772         343.095         154.438 
       0.625918         342.103         151.222 
       0.632068         337.517         148.092 
       0.638161          336.25         145.079 
         0.6443          330.22         142.134 
       0.650464         327.884         139.268 
       0.656582         326.733         136.508 
       0.662703         323.541         133.827 
       0.668861         318.186         131.203 
       0.675024         315.266         128.647 
       0.681124         314.079         126.182 
       0.687237         310.139         123.774 
       0.693381         305.884         121.417 
       0.699536         303.543         119.118 
       0.705665         301.955         116.889 
       0.711789         298.226         114.721 
       0.717957         296.268         112.596 
        0.72409         293.242         110.537 
       0.730186         290.148         108.543 
       0.736317         287.622         106.588 
       0.742472         286.481         104.674 
       0.748622         284.077         102.809 
        0.75476         281.659         100.994 
       0.760888         277.951         99.2247 
       0.767043         277.548         97.4913 
       0.773185         274.132         95.8033 
       0.779291         269.722         94.1654 
       0.785407         269.085          92.564 
       0.791564          266.62         90.9904 
       0.797719         264.094         89.4547 
       0.803834         262.658         87.9648 
       0.809972         260.362         86.5038 
       0.816124         260.736         85.0732 
       0.822261          256.33         83.6791 
       0.828378          254.83         82.3206 
       0.834502         254.439         80.9913 
       0.840667          250.26          79.683 
       0.846816         249.356         78.4075 
       0.852925         247.506         77.1682 
       0.859047         245.749         75.9532 
       0.865192         244.001         74.7607 
       0.871341         241.496         73.5932 
       0.877463         240.143         72.4562 
       0.883569         238.344         71.3464 
       0.889708         236.551         70.2544 
       0.895864          233.76         69.1827 
       0.902008         233.284         68.1357 
       0.908149         232.041         67.1113 
       0.914301         229.426         66.1065 
       0.920448         227.673         65.1234 
       0.926574         226.624         64.1639 
       0.932687         225.905         63.2259 
       0.938823         223.386         62.3035 
       0.944975         221.806         61.3974 
       0.951105         220.817         60.5128 
       0.957225         218.399         59.6473 
       0.963368         216.296         58.7959 
       0.969511         215.362         57.9612 
       0.975621         213.854         57.1473 
       0.981748         213.825         56.3471 
       0.987916         211.049         55.5572 
        0.99406         209.746         54.7856 
        1.00019         209.364         54.0303 
        1.00632         207.371         53.2899 
        1.01246         206.088         52.5625 
        1.01859         204.846         51.8499 
        1.02471         203.592         51.1515 
        1.03085         201.329         50.4636 
        1.03698         200.211           49.79 
        1.04314         199.137         49.1258 
        1.04929         197.475         48.4754 
        1.05541         196.882         47.8395 
        1.06154         195.428         47.2136 
        1.06769         195.164         46.5979 
        1.07382         193.669         45.9954 
        1.07993         192.096         45.4049 
        1.08607         190.919         44.8224 
        1.09222         189.867         44.2497 
        1.09836         188.168         43.6877 
        1.10449         186.725         43.1361 
        1.11063         185.579         42.5936 
        1.11677         185.152         42.0607 
         1.1229         183.257         41.5378 
        1.12903         182.458         41.0235 
        1.13518         181.995         40.5175 
        1.14131         180.229         40.0204 
        1.14745         179.666         39.5319 
        1.15359         178.192         39.0516 
        1.15973         177.906         38.5791 
        1.16584          175.98         38.1166 
        1.17197         175.283          37.661 
        1.17811         174.312         37.2116 
        1.18424         173.217         36.7708 
        1.19038         172.629          36.336 
        1.19652         171.447         35.9084 
        1.20267         170.423         35.4877 
        1.20881         169.218         35.0738 
        1.21495         168.284         34.6673 
        1.22108         167.638         34.2673 
         1.2272          166.24         33.8746 
        1.23334          165.33         33.4871 
        1.23949         163.645         33.1048 
        1.24562         163.401         32.7296 
        1.25174         161.449         32.3608 
        1.25789         161.039         31.9966 
        1.26402         160.347         31.6387 
        1.27014         159.215         31.2871 
        1.27628         158.524         30.9398 
        1.28244          157.76         30.5972 
        1.28858         156.921         30.2603 
        1.29471         155.246         29.9292 
        1.30084         154.644         29.6034 
        1.30697         153.869          29.282 
        1.31312         153.496          28.965 
        1.31925         152.121         28.6536 
        1.32537         151.646         28.3472 
        1.33151         150.014         28.0441 
        1.33765         149.689         27.7457 
        1.34378         148.585         27.4523 
        1.34992         148.266         27.1629 
        1.35606         147.206         26.8771 
         1.3622         146.361         26.5959 
        1.36833         145.439         26.3195 
        1.37445         144.383         26.0471 
        1.38059         144.218         25.7778 
        1.38675         142.951         25.5117 
        1.39288         142.488         25.2504 
        1.39901         141.883         24.9929 
        1.40515          141.01         24.7384 
         1.4113          139.41         24.4876 
        1.41742         139.317         24.2412 
        1.42355         138.229         23.9977 
         1.4297         137.435         23.7569 
        1.43585         136.386         23.5195 
        1.44198         136.284         23.2863 
        1.44809         135.103         23.0567 
        1.45423         134.075         22.8293 
        1.46036         133.836         22.6054 
        1.46649         133.119         22.3845 
        1.47263         132.581         22.1664 
        1.47877         131.764         21.9512 
        1.48491         130.683         21.7386 
        1.49104         130.052         21.5293 
        1.49718          129.09         21.3226 
        1.50333         128.568         21.1183 
        1.50947         127.782         20.9171 
         1.5156         127.355         20.7188 
        1.52172         126.394         20.5231 
        1.52787         126.051         20.3295 
          1.534         125.337         20.1387 
        1.54013         124.302         19.9506 
        1.54627         123.748         19.7645 
        1.55241         123.086         19.5807 
        1.55855         122.602         19.3996 
        1.56467         121.865         19.2213 
         1.5708         121.064         19.0447 
        1.57695         120.705         18.8701 
        1.58308          119.61          18.698 
        1.58922         119.537          18.528 
        1.59535          118.72         18.3602 
         1.6015         118.167         18.1943 
        1.60764         117.325         18.0305 
        1.61376         116.907         17.8691 
        1.61989          116.28         17.7097 
        1.62604         115.484         17.5518 
        1.63218         115.128         17.3959 
        1.63831         114.273         17.2423 
        1.64444         113.741         17.0905 
        1.65059         113.041         16.9402 
        1.65673         112.249         16.7918 
        1.66285         112.109         16.6457 
        1.66898         111.201         16.5012 
        1.67512         110.676         16.3582 
        1.68127         109.995         16.2168 
         1.6874         109.356         16.0773 
        1.69353         108.817         15.9396 
        1.69967         108.303         15.8032 
        1.70581         107.802         15.6684 
        1.71193         107.363         15.5357 
        1.71806         106.412         15.4043 
        1.72421         106.131         15.2741 
        1.73035         105.347         15.1456 
        1.73649         104.819         15.0187 
        1.74262         104.357         14.8932 
        1.74876         103.837         14.7691 
        1.75489         103.065         14.6467 
        1.76101         102.783         14.5258 
        1.76715         101.973          14.406 
        1.77329         101.669         14.2874 
        1.77943         101.117         14.1702 
        1.78557         100.667         14.0544 
        1.79171         99.9981         13.9399 
        1.79785         99.5384         13.8266 
        1.80399         99.0701         13.7147 
        1.81012         98.5904         13.6041 
        1.81625          97.904         13.4948 
        1.82239         97.5727         13.3866 
        1.82853          97.231         13.2795 
        1.83466         96.4213         13.1738 
        1.84078          96.213         13.0693 
        1.84692         95.4146         12.9658 
        1.85306         94.8811         12.8633 
         1.8592         94.2961         12.7621 
        1.86533         93.9621          12.662 
        1.87147         93.1821         12.5629 
        1.87761         92.9516         12.4648 
        1.88375         92.5801         12.3679 
        1.88988         91.9936         12.2721 
        1.89601         91.4871         12.1772 
        1.90215         91.1385         12.0833 
        1.90829          90.617         11.9904 
        1.91442         90.1762         11.8986 
        1.92056         89.6014         11.8077 
         1.9267         89.2302         11.7177 
        1.93284         88.4414         11.6286 
        1.93897         88.1849         11.5406 
        1.94509         87.6813         11.4537 
        1.95123         87.2268         11.3675 
        1.95737         87.1152         11.2821 
        1.96349         86.4056         11.1978 
        1.96964         85.7656         11.1141 
        1.97578         85.6763         11.0312 
        1.98192         85.0789         10.9494 
        1.98805         84.6269         10.8684 
        1.99419         84.0309         10.7882 
        2.00033         83.8154         10.7087 
        2.00647         83.4008         10.6301 
         2.0126         82.8222         10.5524 
        2.01874         82.3418         10.4754 
        2.02488         82.1162         10.3991 
        2.03101         81.7427         10.3237 
        2.03714         81.0681         10.2491 
        2.04328         80.7722         10.1751 
        2.04941         80.1839          10.102 
        2.05554         79.9364         10.0296 
        2.06167         79.6042         9.95783 
        2.06781         79.0761         9.88675 
        2.07396          78.694         9.81627 
        2.08009         78.3486         9.74661 
        2.08622         77.9441         9.67769 
        2.09237         77.5684         9.60932 
        2.09851         77.2612         9.54159 
        2.10464         76.7817         9.47463 
        2.11077         76.2502         9.40839 
        2.11691          76.026         9.34264 
        2.12305         75.5819         9.27752 
        2.12918         75.1884         9.21318 
        2.13531         74.8096         9.14944 
        2.14145         74.3424         9.08616 
         2.1476         74.1441         9.02341 
        2.15372         73.7413         8.96157 
        2.15985          73.293         8.90024 
        2.16599           72.94         8.83931 
        2.17213         72.5899         8.77903 
        2.17827         72.2315         8.71932 
         2.1844         71.7255         8.66021 
        2.19054          71.441         8.60164 
        2.19666          71.114         8.54369 
         2.2028         70.8912         8.48623 
        2.20893         70.4622         8.42926 
        2.21508         70.0246         8.37276 
        2.22122         69.8735         8.31675 
        2.22736         69.3511         8.26138 
        2.23349         69.0795         8.20652 
        2.23962         68.6089         8.15214 
        2.24577         68.2097          8.0982 
         2.2519         68.0041         8.04482 
        2.25802         67.6185         7.99202 
        2.26417         67.2264         7.93954 
        2.27031         67.0126         7.88748 
        2.27644          66.565         7.83604 
        2.28257          66.245         7.78507 
        2.28872         65.9914         7.73445 
        2.29486         65.7035          7.6843 
        2.30099         65.3037         7.63469 
        2.30712         65.0162          7.5855 
        2.31326         64.5884         7.53666 
         2.3194         64.4132         7.48828 
        2.32553         63.9448         7.44041 
        2.33166         63.5991         7.39297 
         2.3378         63.3157         7.34589 
        2.34394         62.8537          7.2992 
        2.35007         62.6335         7.25298 
        2.35619         62.3553         7.20722 
        2.36233         62.1421         7.16175 
        2.36848         61.7181         7.11658 
        2.37462         61.4644         7.07189 
        2.38075         61.2063         7.02763 
        2.38689         60.8887         6.98371 
        2.39303         60.6318         6.94018 
        2.39916         60.4447         6.89706 
        2.40529         59.9978         6.85431 
        2.41143         59.7037         6.81189 
        2.41757          59.433         6.76982 
         2.4237         59.1054         6.72818 
        2.42983         58.7419         6.68689 
        2.43598         58.4621         6.64584 
        2.44211         58.1956         6.60521 
        2.44823         57.9661           6.565 
        2.45437         57.5758         6.52502 
        2.46052          57.261         6.48534 
        2.46665         57.0378         6.44607 
        2.47279          56.796         6.40713 
        2.47892         56.6004         6.36848 
        2.48507         56.2229         6.33012 
         2.4912         56.0452         6.29215 
