# k  (h/Mpc)    Pcb(k)  (Mpc/h)^3    Pcb_linear(k)  (Mpc/h)^3
     0.00783031         5945.16         6014.74 
       0.013688         7923.71         7889.15 
       0.019231         8433.92         8432.33 
      0.0249154         8123.02          8243.9 
      0.0312784         7526.04         7589.25 
      0.0375637         6804.12          6820.2 
      0.0433917         6077.22         6171.68 
      0.0492413         5597.74         5645.18 
      0.0555754         5082.48         5209.28 
      0.0619321         4850.39         4863.44 
       0.067871          4465.1         4570.74 
      0.0738098         4164.62         4270.48 
      0.0800417         3797.55         3932.61 
      0.0862327         3489.55          3583.5 
      0.0921407          3204.3         3260.33 
      0.0982031         2897.94         2962.68 
       0.104506         2705.34         2706.19 
       0.110769         2504.75         2507.96 
       0.116806         2340.59         2361.63 
       0.122832         2237.64         2244.06 
       0.129052         2095.48         2135.14 
       0.135211         1991.86         2025.79 
       0.141259         1902.77         1910.41 
       0.147318         1796.18         1787.76 
       0.153489         1658.15          1661.9 
       0.159709         1563.54         1542.62 
       0.165845         1493.87         1439.23 
       0.171974         1399.78         1353.34 
       0.178125         1332.13         1283.77 
       0.184229         1282.21         1227.35 
        0.19034         1203.96         1178.13 
       0.196428         1183.12         1131.25 
       0.202534          1146.1         1082.89 
       0.208729         1091.45         1031.17 
       0.214876         1034.59          978.13 
       0.220989         1004.61         925.948 
       0.227147          947.95         876.554 
        0.23329         910.266         832.379 
       0.239377         890.366         794.414 
       0.245482         834.147         761.746 
       0.251667         826.038         732.871 
       0.257832          797.95         706.597 
       0.263955         772.232         681.449 
       0.270079          747.45           656.2 
        0.27624         737.975         630.382 
       0.282372         706.791         604.578 
        0.28843         689.053         579.619 
       0.294538         658.082         555.752 
       0.300721         654.056         533.469 
        0.30691         624.614         513.298 
       0.313033             612         495.297 
       0.319153          592.91         478.871 
       0.325316         576.475         463.385 
        0.33145         560.612         448.569 
       0.337538         554.349         434.114 
       0.343633         537.006           419.8 
       0.349808         520.808         405.505 
       0.355968          515.41         391.641 
       0.362074         504.321          378.49 
       0.368217         491.234         366.016 
       0.374374         473.838         354.343 
       0.380519         467.977         343.475 
       0.386598         457.589         333.394 
       0.392688         454.151         323.802 
        0.39888          441.64         314.426 
       0.405048         433.386         305.363 
       0.411186          424.71         296.553 
       0.417313         417.464         287.982 
       0.423458         410.255         279.645 
       0.429607         401.227         271.609 
       0.435692         391.561         264.007 
       0.441815         389.227         256.726 
       0.447964         382.216         249.768 
       0.454126          368.55         243.125 
       0.460267         364.818         236.787 
       0.466387         360.665           230.7 
        0.47254         353.381         224.773 
       0.478662         351.517         219.051 
       0.484765         342.354         213.512 
       0.490885         338.012         208.123 
       0.497035          333.07         202.886 
       0.503198         325.612         197.832 
       0.509342         322.837         192.984 
       0.515458          319.01          188.34 
       0.521598         314.494         183.854 
       0.527764         309.042         179.512 
       0.533884         305.496         175.347 
           0.54         301.564         171.314 
       0.546137         300.243         167.386 
       0.552299         294.664         163.559 
       0.558452          290.94         159.852 
       0.564573         286.142         156.276 
       0.570708         281.769         152.803 
       0.576825         278.355         149.449 
       0.582926         275.385         146.212 
       0.589034         271.517         143.076 
       0.595184          269.28         140.016 
       0.601379         266.946         137.028 
       0.607522         261.574         134.151 
       0.613639         260.769         131.367 
       0.619772         254.721         128.655 
       0.625918         253.064         126.014 
       0.632068         250.109         123.445 
       0.638161         248.895         120.972 
         0.6443          244.74         118.549 
       0.650464         242.631         116.186 
       0.656582         241.061         113.906 
       0.662703         237.744         111.688 
       0.668861         234.681         109.519 
       0.675024         232.225         107.408 
       0.681124         231.216         105.374 
       0.687237         227.474         103.389 
       0.693381         224.611         101.446 
       0.699536         223.067         99.5488 
       0.705665         222.971          97.709 
       0.711789         218.512          95.918 
       0.717957          217.52         94.1605 
        0.72409         214.914         92.4578 
       0.730186         211.771         90.8085 
       0.736317         210.789         89.1914 
       0.742472         209.522         87.6084 
       0.748622         208.082         86.0658 
        0.75476         206.195         84.5642 
       0.760888         203.462         83.1009 
       0.767043         202.169         81.6668 
       0.773185         200.172         80.2699 
       0.779291         197.393         78.9139 
       0.785407         196.559         77.5877 
       0.791564         194.715         76.2841 
       0.797719         192.495         75.0115 
       0.803834          191.73         73.7765 
       0.809972         189.293         72.5653 
       0.816124         189.313          71.379 
       0.822261         186.767         70.2229 
       0.828378         185.219         69.0961 
       0.834502          184.78         67.9935 
       0.840667         182.135         66.9081 
       0.846816         181.128         65.8497 
       0.852925         179.377         64.8211 
       0.859047         177.792         63.8126 
       0.865192         177.021         62.8224 
       0.871341         175.079         61.8529 
       0.877463          173.93         60.9085 
       0.883569         172.377         59.9864 
       0.889708          171.42         59.0789 
       0.895864         169.766          58.188 
       0.902008          168.81         57.3177 
       0.908149         167.873         56.4658 
       0.914301         165.997         55.6301 
       0.920448         165.083         54.8122 
       0.926574         164.192         54.0139 
       0.932687         163.043         53.2334 
       0.938823         161.224         52.4656 
       0.944975         160.249         51.7115 
       0.951105         159.231          50.975 
       0.957225         157.259         50.2543 
       0.963368         156.498         49.5452 
       0.969511         155.754           48.85 
       0.975621         155.073          48.172 
       0.981748         154.096         47.5053 
       0.987916         152.345         46.8472 
        0.99406          151.87         46.2041 
        1.00019         150.561         45.5745 
        1.00632         149.647         44.9574 
        1.01246          148.54         44.3509 
        1.01859         146.912         43.7567 
        1.02471         147.232         43.1742 
        1.03085         145.708         42.6004 
        1.03698         144.285         42.0384 
        1.04314         143.373         41.4842 
        1.04929         142.587         40.9415 
        1.05541         141.749         40.4107 
        1.06154         140.776         39.8881 
        1.06769         140.355         39.3741 
        1.07382         139.638         38.8709 
        1.07993         138.664         38.3777 
        1.08607         137.453         37.8911 
        1.09222         136.709         37.4126 
        1.09836         135.665         36.9429 
        1.10449         134.884         36.4819 
        1.11063         134.108         36.0284 
        1.11677         133.447         35.5828 
         1.1229         132.212         35.1456 
        1.12903         131.215         34.7154 
        1.13518         131.366         34.2922 
        1.14131          130.12         33.8763 
        1.14745          129.11         33.4675 
        1.15359         128.426         33.0656 
        1.15973         128.052         32.6701 
        1.16584         127.007         32.2829 
        1.17197         126.231         31.9015 
        1.17811         125.573         31.5252 
        1.18424         124.507         31.1561 
        1.19038         123.966         30.7919 
        1.19652         123.363         30.4337 
        1.20267         122.402         30.0812 
        1.20881         121.756         29.7345 
        1.21495         120.909         29.3938 
        1.22108         120.224         29.0586 
         1.2272         119.602         28.7295 
        1.23334         118.904         28.4047 
        1.23949         117.803         28.0842 
        1.24562         117.718         27.7696 
        1.25174         116.762         27.4604 
        1.25789         116.142         27.1549 
        1.26402         115.663         26.8547 
        1.27014         114.585         26.5598 
        1.27628         114.337         26.2684 
        1.28244         113.389          25.981 
        1.28858          112.85         25.6982 
        1.29471         112.179         25.4203 
        1.30084         111.491         25.1469 
        1.30697         110.763          24.877 
        1.31312         110.432         24.6108 
        1.31925         109.893         24.3493 
        1.32537         109.355          24.092 
        1.33151         108.311         23.8374 
        1.33765         107.796         23.5867 
        1.34378         107.081         23.3401 
        1.34992         106.818         23.0969 
        1.35606         106.184         22.8567 
         1.3622         105.261         22.6204 
        1.36833          105.05         22.3879 
        1.37445         104.209         22.1589 
        1.38059         103.656         21.9324 
        1.38675         103.131         21.7086 
        1.39288         102.433         21.4888 
        1.39901         102.269         21.2722 
        1.40515         101.779         21.0581 
         1.4113          100.68          20.847 
        1.41742         100.488         20.6397 
        1.42355         99.7435         20.4348 
         1.4297         99.2871         20.2321 
        1.43585         98.6402         20.0323 
        1.44198         98.3599         19.8359 
        1.44809         97.5613         19.6426 
        1.45423         97.1693         19.4511 
        1.46036         96.6781         19.2626 
        1.46649         96.1467         19.0765 
        1.47263         95.7598         18.8928 
        1.47877         95.3384         18.7116 
        1.48491         94.6532         18.5324 
        1.49104         94.1085         18.3561 
        1.49718         93.6794         18.1819 
        1.50333         93.1184         18.0097 
        1.50947          92.433         17.8401 
         1.5156         92.3134          17.673 
        1.52172         91.6221          17.508 
        1.52787         91.3685         17.3448 
          1.534         90.9748         17.1839 
        1.54013         90.2312         17.0252 
        1.54627         89.7909         16.8682 
        1.55241         89.2265         16.7132 
        1.55855         88.8224         16.5604 
        1.56467         88.2209           16.41 
         1.5708         87.9193         16.2609 
        1.57695         87.5958         16.1136 
        1.58308         86.9772         15.9684 
        1.58922         86.6931         15.8249 
        1.59535         86.3065         15.6832 
         1.6015         85.6767         15.5431 
        1.60764         85.4408         15.4048 
        1.61376         84.8256         15.2685 
        1.61989         84.3895         15.1338 
        1.62604         83.9113         15.0004 
        1.63218         83.7416         14.8688 
        1.63831         83.2043          14.739 
        1.64444         82.8798         14.6107 
        1.65059         82.0683         14.4837 
        1.65673         81.9014         14.3583 
        1.66285         81.5087         14.2348 
        1.66898         81.0625         14.1127 
        1.67512         80.4798         13.9918 
        1.68127         80.1088         13.8722 
         1.6874         79.7785         13.7543 
        1.69353         79.4212         13.6379 
        1.69967           78.95         13.5225 
        1.70581         78.6818         13.4085 
        1.71193         78.3188         13.2963 
        1.71806         77.6814         13.1851 
        1.72421         77.5679          13.075 
        1.73035         76.9671         12.9663 
        1.73649         76.5816         12.8588 
        1.74262         76.2822         12.7527 
        1.74876         75.9503         12.6477 
        1.75489         75.4177         12.5441 
        1.76101         75.1933         12.4417 
        1.76715         74.6911         12.3403 
        1.77329         74.3946         12.2399 
        1.77943         74.1173         12.1406 
        1.78557         73.7525         12.0425 
        1.79171         73.2932         11.9456 
        1.79785         73.0616         11.8496 
        1.80399         72.5008         11.7548 
        1.81012          72.345         11.6611 
        1.81625         71.7244         11.5685 
        1.82239         71.4304         11.4768 
        1.82853         71.0226         11.3861 
        1.83466          70.757         11.2965 
        1.84078         70.2003         11.2079 
        1.84692         70.0309         11.1202 
        1.85306         69.7182         11.0333 
         1.8592         69.2406         10.9475 
        1.86533         68.8882         10.8626 
        1.87147         68.5949         10.7786 
        1.87761          68.293         10.6954 
        1.88375          68.165         10.6131 
        1.88988         67.8338         10.5319 
        1.89601         67.2681         10.4514 
        1.90215         67.0213         10.3718 
        1.90829         66.7511          10.293 
        1.91442         66.3357          10.215 
        1.92056         66.0682         10.1379 
         1.9267         65.6135         10.0616 
        1.93284         65.2626         9.98593 
        1.93897         65.0399         9.91123 
        1.94509         64.6175         9.83746 
        1.95123         64.4298         9.76426 
        1.95737         64.1878         9.69175 
        1.96349         63.8259         9.62017 
        1.96964         63.5013         9.54912 
        1.97578         63.1625         9.47875 
        1.98192         62.9425         9.40924 
        1.98805         62.6912         9.34042 
        1.99419         62.2666         9.27229 
        2.00033         61.9475         9.20481 
        2.00647         61.7416         9.13803 
         2.0126         61.3217         9.07203 
        2.01874         61.0155         9.00658 
        2.02488         60.8348         8.94172 
        2.03101         60.4393         8.87762 
        2.03714         60.1325         8.81422 
        2.04328         59.8563         8.75136 
        2.04941         59.5369         8.68918 
        2.05554         59.1973         8.62765 
        2.06167         59.1076         8.56663 
        2.06781         58.6847         8.50619 
        2.07396         58.3939         8.44626 
        2.08009         58.2265         8.38701 
        2.08622          57.767         8.32839 
        2.09237         57.5936         8.27023 
        2.09851         57.2283         8.21261 
        2.10464         56.9788         8.15564 
        2.11077         56.8203         8.09929 
        2.11691         56.4223         8.04334 
        2.12305         56.0845         7.98792 
        2.12918         55.8545         7.93316 
        2.13531         55.6462         7.87891 
        2.14145         55.3728         7.82505 
         2.1476         55.1942         7.77163 
        2.15372         54.8176         7.71898 
        2.15985         54.6469         7.66677 
        2.16599         54.3614         7.61489 
        2.17213         54.2629         7.56355 
        2.17827         53.8131          7.5127 
         2.1844         53.4454         7.46237 
        2.19054         53.2782         7.41248 
        2.19666         53.0907         7.36312 
         2.2028         52.8639         7.31417 
        2.20893         52.6103         7.26564 
        2.21508         52.4057          7.2175 
        2.22122          52.097         7.16978 
        2.22736         51.7544          7.1226 
        2.23349         51.5962         7.07585 
        2.23962         51.3237          7.0295 
        2.24577          51.057         6.98353 
         2.2519         50.8442         6.93803 
        2.25802         50.7149         6.89302 
        2.26417         50.3106         6.84828 
        2.27031         50.0989         6.80389 
        2.27644         49.7894         6.76003 
        2.28257          49.671         6.71657 
        2.28872         49.2853          6.6734 
        2.29486         49.1346         6.63063 
        2.30099         48.9174         6.58832 
        2.30712         48.7012         6.54636 
        2.31326         48.4571          6.5047 
         2.3194         48.2433         6.46343 
        2.32553         48.0251         6.42259 
        2.33166         47.7484         6.38212 
         2.3378         47.5226         6.34194 
        2.34394         47.1924          6.3021 
        2.35007         47.0632         6.26266 
        2.35619         46.9711         6.22361 
        2.36233         46.6836          6.1848 
        2.36848          46.386         6.14624 
        2.37462          46.279         6.10809 
        2.38075          45.937          6.0703 
        2.38689         45.7717         6.03281 
        2.39303         45.6044         5.99564 
        2.39916         45.4146         5.95882 
        2.40529         45.1055         5.92231 
        2.41143         44.9093         5.88609 
        2.41757         44.7108         5.85016 
         2.4237         44.5396         5.81459 
        2.42983         44.2929         5.77932 
        2.43598         44.1115         5.74425 
        2.44211         43.9601         5.70954 
        2.44823         43.6825         5.67518 
        2.45437         43.4934         5.64102 
        2.46052         43.2543         5.60712 
        2.46665         43.0866         5.57355 
        2.47279         42.9253         5.54027 
        2.47892         42.6233         5.50724 
        2.48507         42.4606         5.47445 
         2.4912         42.2603           5.442 
