# k  (h/Mpc)    P(k)  (Mpc/h)^3    P_linear(k)  (Mpc/h)^3
     0.00783031           15737         15841.3 
       0.013688         17989.6         18464.4 
       0.019231           17464         17722.8 
      0.0249154         15575.4         15504.6 
      0.0312784         12570.3         12648.3 
      0.0375637         10125.3         10251.4 
      0.0433917         8653.23         8655.42 
      0.0492413         7562.53         7612.57 
      0.0555754         6928.64         6918.19 
      0.0619321         6250.09         6432.81 
       0.067871         5905.91         5989.53 
      0.0738098         5437.97         5464.86 
      0.0800417          4834.7         4826.82 
      0.0862327         4180.32         4173.92 
      0.0921407         3669.66         3613.68 
      0.0982031         3274.77         3158.57 
       0.104506         2897.66         2830.32 
       0.110769         2708.62         2628.13 
       0.116806         2614.62         2507.16 
       0.122832         2480.44         2411.18 
       0.129052         2350.54         2297.28 
       0.135211         2254.58          2148.9 
       0.141259         2053.47         1971.77 
       0.147318         1865.44         1782.52 
       0.153489         1716.48         1602.25 
       0.159709         1618.81         1452.49 
       0.165845         1475.53         1343.61 
       0.171974          1439.4         1269.76 
       0.178125         1390.21         1219.58 
       0.184229         1294.06         1179.54 
        0.19034         1271.69         1136.88 
       0.196428         1228.14         1084.58 
       0.202534         1139.39         1021.49 
       0.208729         1110.23         951.255 
       0.214876         1048.99         882.554 
       0.220989         983.076         821.644 
       0.227147         953.127         771.508 
        0.23329         913.399         733.095 
       0.239377         904.935         704.088 
       0.245482         858.801         680.195 
       0.251667         827.517          657.28 
       0.257832         813.947         632.717 
       0.263955          771.15          605.46 
       0.270079          743.05         575.969 
        0.27624         710.903         545.775 
       0.282372          696.54          517.27 
        0.28843         685.963         492.124 
       0.294538         650.742         470.481 
       0.300721         634.567         452.132 
        0.30691         620.716         436.375 
       0.313033         593.007         422.173 
       0.319153         584.862         408.258 
       0.325316         574.994         393.876 
        0.33145         560.511         379.025 
       0.337538         539.489         364.068 
       0.343633          525.11         349.392 
       0.349808         512.028         335.365 
       0.355968         502.317         322.605 
       0.362074         483.509         311.234 
       0.368217         481.062         300.971 
       0.374374          472.69         291.524 
       0.380519         453.394         282.592 
       0.386598         448.838         273.974 
       0.392688         437.019         265.374 
        0.39888          426.31         256.683 
       0.405048         416.814          248.16 
       0.411186         416.058         239.954 
       0.417313         410.295          232.19 
       0.423458         398.853         224.897 
       0.429607         386.852         218.092 
       0.435692         381.645         211.806 
       0.441815         374.442          205.82 
       0.447964         366.834         200.044 
       0.454126         362.621         194.427 
       0.460267          356.53         188.961 
       0.466387         348.842         183.627 
        0.47254         344.592         178.411 
       0.478662         337.186         173.411 
       0.484765         332.409         168.639 
       0.490885         329.083         164.072 
       0.497035         321.827         159.706 
       0.503198          321.24          155.54 
       0.509342         314.038         151.556 
       0.515458         308.094         147.726 
       0.521598         303.841         143.997 
       0.527764         299.158         140.363 
       0.533884         296.574          136.86 
           0.54         292.718         133.463 
       0.546137         286.371         130.165 
       0.552299         284.997         126.972 
       0.558452         280.095         123.908 
       0.564573         278.544         120.976 
       0.570708         273.297         118.142 
       0.576825         268.629         115.411 
       0.582926         267.138         112.773 
       0.589034          262.23         110.212 
       0.595184          260.54         107.711 
       0.601379         256.411         105.267 
       0.607522         250.672         102.914 
       0.613639         249.948         100.641 
       0.619772           248.8         98.4314 
       0.625918         244.135         96.2875 
       0.632068         241.484         94.2114 
       0.638161         240.027          92.219 
         0.6443         236.351         90.2723 
       0.650464         233.517         88.3756 
       0.656582         231.034         86.5459 
       0.662703         230.039         84.7658 
       0.668861         225.166         83.0246 
       0.675024         224.495         81.3305 
       0.681124         221.198         79.7011 
       0.687237         219.921         78.1141 
       0.693381          216.19         76.5642 
       0.699536         215.511         75.0549 
       0.705665         212.929         73.5937 
       0.711789         210.421         72.1733 
       0.717957          208.81          70.781 
        0.72409         205.801         69.4331 
       0.730186         206.914         68.1285 
       0.736317         203.511         66.8504 
       0.742472         201.315         65.6006 
       0.748622         199.127         64.3841 
        0.75476         198.765         63.2014 
       0.760888         196.189         62.0507 
       0.767043         193.405         60.9244 
       0.773185         191.799         59.8289 
       0.779291         190.121         58.7669 
       0.785407         188.934         57.7295 
       0.791564          187.43         56.7108 
       0.797719         184.239         55.7175 
       0.803834         185.184         54.7543 
       0.809972         182.704         53.8106 
       0.816124         179.804         52.8873 
       0.822261         178.809         51.9882 
       0.828378         178.112         51.1129 
       0.834502         176.057         50.2571 
       0.840667         175.986         49.4156 
       0.846816         172.595         48.5958 
       0.852925         172.406            47.8 
       0.859047         170.631         47.0205 
       0.865192         170.093         46.2559 
       0.871341         168.222          45.508 
       0.877463         166.637         44.7801 
       0.883569         166.353         44.0701 
       0.889708         164.852         43.3721 
       0.895864         162.878         42.6874 
       0.902008         161.587         42.0191 
       0.908149         160.167         41.3655 
       0.914301         159.054         40.7249 
       0.920448         158.753         40.0986 
       0.926574         156.775         39.4877 
       0.932687         156.604          38.891 
       0.938823         155.112         38.3045 
       0.944975         154.547         37.7288 
       0.951105         152.742         37.1672 
       0.957225         151.694          36.618 
       0.963368         151.224         36.0781 
       0.969511         149.327         35.5492 
       0.975621         147.549         35.0338 
       0.981748         147.388         34.5274 
       0.987916         146.537         34.0279 
        0.99406         145.391         33.5402 
        1.00019         144.647         33.0632 
        1.00632         143.504         32.5959 
        1.01246         142.523          32.137 
        1.01859         141.302         31.6877 
        1.02471         140.359         31.2477 
        1.03085         139.466         30.8145 
        1.03698         138.683         30.3906 
        1.04314         138.163         29.9728 
        1.04929         137.337          29.564 
        1.05541         136.713         29.1644 
        1.06154         135.206         28.7713 
        1.06769         134.513         28.3849 
        1.07382         133.585         28.0069 
        1.07993         132.681         27.6367 
        1.08607         132.404         27.2717 
        1.09222         130.942          26.913 
        1.09836         130.348         26.5611 
        1.10449          129.59          26.216 
        1.11063         128.466         25.8767 
        1.11677         127.944         25.5435 
         1.1229         126.946         25.2168 
        1.12903         125.902         24.8955 
        1.13518         125.211         24.5796 
        1.14131         124.918         24.2694 
        1.14745         123.779         23.9648 
        1.15359         122.985         23.6653 
        1.15973         122.467         23.3709 
        1.16584         121.569         23.0828 
        1.17197         121.105         22.7992 
        1.17811         120.084         22.5195 
        1.18424         119.436         22.2454 
        1.19038         118.808          21.975 
        1.19652         117.962         21.7093 
        1.20267         117.165          21.448 
        1.20881         116.348         21.1911 
        1.21495         116.221         20.9388 
        1.22108         115.193         20.6907 
         1.2272         114.748         20.4472 
        1.23334         113.989         20.2071 
        1.23949         113.422         19.9703 
        1.24562         112.551         19.7379 
        1.25174         112.468         19.5097 
        1.25789         111.371         19.2844 
        1.26402         110.904          19.063 
        1.27014         110.105         18.8457 
        1.27628         109.645         18.6311 
        1.28244         109.049         18.4195 
        1.28858         108.384         18.2115 
        1.29471         107.609         18.0071 
        1.30084         106.928         17.8061 
        1.30697         106.261         17.6079 
        1.31312         105.837         17.4124 
        1.31925         104.946         17.2205 
        1.32537          104.51         17.0317 
        1.33151         104.249         16.8451 
        1.33765         103.459         16.6614 
        1.34378          103.19         16.4808 
        1.34992         102.438         16.3028 
        1.35606         102.058          16.127 
         1.3622         101.536         15.9542 
        1.36833         100.699         15.7843 
        1.37445         100.434         15.6169 
        1.38059         99.7381         15.4515 
        1.38675         99.1982         15.2881 
        1.39288         98.5685         15.1277 
        1.39901          98.049         14.9697 
        1.40515         97.6201         14.8136 
         1.4113         97.0091         14.6598 
        1.41742         96.7528         14.5088 
        1.42355           96.22         14.3596 
         1.4297         95.5343         14.2121 
        1.43585         95.1489         14.0667 
        1.44198         94.3811          13.924 
        1.44809         93.9904         13.7834 
        1.45423         93.8268         13.6444 
        1.46036         92.8528         13.5074 
        1.46649         92.4481         13.3724 
        1.47263         91.8286         13.2391 
        1.47877         91.5859         13.1076 
        1.48491         91.0963         12.9778 
        1.49104         90.4164           12.85 
        1.49718         90.0002         12.7238 
        1.50333         89.5307         12.5991 
        1.50947         89.3175         12.4764 
         1.5156         88.7272         12.3554 
        1.52172         87.9996         12.2361 
        1.52787         87.8437         12.1182 
          1.534         87.3871         12.0019 
        1.54013         86.8426         11.8873 
        1.54627         86.3094          11.774 
        1.55241         86.1459         11.6621 
        1.55855         85.3882         11.5519 
        1.56467         84.9815         11.4434 
         1.5708         84.2763          11.336 
        1.57695           84.22         11.2298 
        1.58308         83.6871         11.1252 
        1.58922         83.3512         11.0219 
        1.59535         83.2311         10.9199 
         1.6015         82.4419         10.8191 
        1.60764         82.0105         10.7196 
        1.61376         81.8637         10.6216 
        1.61989         81.2851         10.5248 
        1.62604         80.9138         10.4289 
        1.63218         80.4045         10.3344 
        1.63831         80.0589         10.2412 
        1.64444         79.5301         10.1491 
        1.65059          79.149          10.058 
        1.65673         79.0566         9.96807 
        1.66285         78.5584          9.8795 
        1.66898         77.8974         9.79198 
        1.67512          77.458         9.70536 
        1.68127         77.2985         9.61971 
         1.6874         76.8497         9.53529 
        1.69353         76.4077         9.45194 
        1.69967         75.9706         9.36938 
        1.70581         75.7359         9.28786 
        1.71193          75.309         9.20761 
        1.71806         74.9495         9.12814 
        1.72421         74.4922         9.04946 
        1.73035         74.1047          8.9718 
        1.73649         73.7777         8.89507 
        1.74262         73.4228          8.8193 
        1.74876         72.9147         8.74437 
        1.75489         72.7648         8.67046 
        1.76101         72.4984         8.59743 
        1.76715          71.979         8.52515 
        1.77329          71.569         8.45361 
        1.77943         71.3315         8.38287 
        1.78557         71.0544         8.31304 
        1.79171         70.4996           8.244 
        1.79785         70.1876         8.17573 
        1.80399         70.0107         8.10824 
        1.81012         69.4182         8.04162 
        1.81625         69.1622         7.97577 
        1.82239         68.7312         7.91056 
        1.82853         68.5126         7.84611 
        1.83466         68.0865         7.78245 
        1.84078         67.8135         7.71956 
        1.84692         67.5821         7.65726 
        1.85306         67.4203         7.59558 
         1.8592         66.9721         7.53467 
        1.86533           66.52         7.47447 
        1.87147         66.2183         7.41485 
        1.87761         65.6279         7.35587 
        1.88375         65.6155         7.29759 
        1.88988         65.1482         7.24001 
        1.89601         65.0578         7.18302 
        1.90215         64.6465          7.1266 
        1.90829         64.1942         7.07082 
        1.91442         63.8408         7.01563 
        1.92056          63.689         6.96108 
         1.9267         63.3515         6.90705 
        1.93284         63.1987         6.85357 
        1.93897         62.6888         6.80076 
        1.94509         62.4559         6.74862 
        1.95123         62.1315         6.69689 
        1.95737         61.9065         6.64567 
        1.96349         61.6816         6.59512 
        1.96964         61.3074         6.54495 
        1.97578           60.93         6.49528 
        1.98192         60.5574         6.44623 
        1.98805         60.2299         6.39768 
        1.99419         60.2679         6.34963 
        2.00033         59.7271         6.30205 
        2.00647         59.4085         6.25497 
         2.0126         59.2594         6.20846 
        2.01874         59.0841         6.16234 
        2.02488         58.7557         6.11666 
        2.03101         58.3252         6.07153 
        2.03714         58.1184         6.02689 
        2.04328          57.932         5.98265 
        2.04941         57.5759          5.9389 
        2.05554          57.214         5.89562 
        2.06167         56.9244          5.8527 
        2.06781         56.7391         5.81022 
        2.07396         56.3967         5.76809 
        2.08009         56.2568         5.72645 
        2.08622         55.8795         5.68528 
        2.09237         55.6801         5.64443 
        2.09851         55.2948         5.60397 
        2.10464          55.044         5.56398 
        2.11077         54.8896         5.52442 
        2.11691         54.6449         5.48517 
        2.12305         54.2906         5.44629 
        2.12918         54.0231         5.40789 
        2.13531         53.8535         5.36985 
        2.14145         53.4829         5.33209 
         2.1476         53.4587         5.29465 
        2.15372         53.0017         5.25776 
        2.15985         52.8221         5.22118 
        2.16599         52.6151         5.18485 
        2.17213         52.3216          5.1489 
        2.17827         51.9557         5.11331 
         2.1844           51.76         5.07808 
        2.19054         51.6569         5.04317 
        2.19666         51.3794         5.00864 
         2.2028         51.1041         4.97441 
        2.20893         50.7764         4.94047 
        2.21508         50.5803         4.90682 
        2.22122         50.2633         4.87347 
        2.22736         50.0538          4.8405 
        2.23349         49.8746         4.80784 
        2.23962         49.6993         4.77547 
        2.24577         49.4057         4.74337 
         2.2519         49.1616         4.71161 
        2.25802         48.9377         4.68019 
        2.26417         48.7482         4.64897 
        2.27031         48.5492         4.61801 
        2.27644         48.1563         4.58741 
        2.28257         48.0632          4.5571 
        2.28872         47.7861         4.52701 
        2.29486         47.6075         4.49719 
        2.30099         47.3006          4.4677 
        2.30712         47.1277         4.43847 
        2.31326         46.9249         4.40945 
         2.3194         46.7067          4.3807 
        2.32553         46.4524         4.35226 
        2.33166         46.2926         4.32408 
         2.3378         46.0429         4.29612 
        2.34394         45.8395          4.2684 
        2.35007          45.633         4.24095 
        2.35619         45.4392         4.21379 
        2.36233         45.2775          4.1868 
        2.36848         44.9733         4.15999 
        2.37462         44.7649         4.13347 
        2.38075         44.5308         4.10721 
        2.38689          44.323         4.08115 
        2.39303          44.225         4.05533 
        2.39916         43.9742         4.02976 
        2.40529         43.8296         4.00441 
        2.41143         43.6299         3.97926 
        2.41757          43.371         3.95431 
         2.4237         43.2069         3.92963 
        2.42983         43.0219         3.90515 
        2.43598         42.8255         3.88083 
        2.44211         42.5551         3.85675 
        2.44823         42.4745         3.83292 
        2.45437         42.1589         3.80924 
        2.46052         41.9557         3.78573 
        2.46665         41.7535         3.76247 
        2.47279         41.6083         3.73941 
        2.47892         41.4124         3.71652 
        2.48507         41.2436         3.69381 
         2.4912         41.0027         3.67133 
