# k  (h/Mpc)    P(k)  (Mpc/h)^3    P_linear(k)  (Mpc/h)^3
     0.00783031         16786.1           16890 
       0.013688         19169.9         19685.9 
       0.019231         18611.5         18894.9 
      0.0249154         16607.1         16529.8 
      0.0312784         13395.5         13484.5 
      0.0375637         10788.1           10929 
      0.0433917         9222.25         9227.49 
      0.0492413         8059.12         8115.68 
      0.0555754          7383.5         7375.39 
      0.0619321         6655.57         6857.92 
       0.067871         6289.93         6385.33 
      0.0738098          5794.7         5825.98 
      0.0800417         5152.09         5145.77 
      0.0862327         4456.04         4449.72 
      0.0921407          3915.2         3852.46 
      0.0982031         3496.55         3367.27 
       0.104506         3094.16         3017.33 
       0.110769         2893.01         2801.78 
       0.116806         2792.14         2672.82 
       0.122832         2649.18         2570.49 
       0.129052          2508.1         2449.06 
       0.135211         2408.41         2290.89 
       0.141259         2193.38         2102.05 
       0.147318         1994.72          1900.3 
       0.153489         1836.99         1708.11 
       0.159709         1735.14         1548.46 
       0.165845         1582.44         1432.38 
       0.171974         1543.33         1353.65 
       0.178125         1491.67         1300.15 
       0.184229         1386.62         1257.48 
        0.19034         1363.67            1212 
       0.196428         1317.56         1156.24 
       0.202534          1223.6         1088.98 
       0.208729         1192.83          1014.1 
       0.214876         1127.14         940.864 
       0.220989         1058.44          875.93 
       0.227147         1026.08         822.481 
        0.23329         983.378          781.53 
       0.239377         975.384         750.606 
       0.245482         925.862         725.135 
       0.251667         892.399         700.706 
       0.257832         877.222          674.52 
       0.263955         831.984         645.462 
       0.270079         802.548         614.022 
        0.27624         768.054         581.833 
       0.282372         753.495         551.445 
        0.28843         741.348         524.638 
       0.294538         703.838         501.566 
       0.300721         687.193         482.004 
        0.30691         671.556         465.206 
       0.313033         642.088         450.066 
       0.319153         633.694         435.231 
       0.325316         623.369         419.899 
        0.33145         607.759         404.067 
       0.337538         585.232         388.121 
       0.343633         570.142         372.476 
       0.349808         556.352         357.522 
       0.355968         545.843         343.919 
       0.362074         525.395         331.797 
       0.368217         523.026         320.856 
       0.374374          514.37         310.784 
       0.380519         493.599         301.263 
       0.386598         488.951         292.075 
       0.392688         476.096         282.907 
        0.39888         464.678         273.642 
       0.405048         454.285         264.555 
       0.411186         453.683         255.808 
       0.417313         447.724         247.531 
       0.423458         435.266         239.756 
       0.429607         422.186         232.501 
       0.435692         416.766           225.8 
       0.441815         408.864         219.418 
       0.447964         401.065          213.26 
       0.454126         396.477         207.273 
       0.460267         389.888         201.445 
       0.466387         381.564         195.758 
        0.47254         376.987         190.199 
       0.478662         369.205         184.868 
       0.484765         364.002         179.781 
       0.490885         360.631         174.912 
       0.497035         352.419         170.258 
       0.503198         351.977         165.816 
       0.509342         344.356         161.569 
       0.515458         337.649         157.486 
       0.521598         333.737         153.511 
       0.527764         328.072         149.636 
       0.533884         325.055         145.902 
           0.54         321.264         142.281 
       0.546137         314.546         138.765 
       0.552299         313.158         135.361 
       0.558452         307.799         132.095 
       0.564573         306.132         128.969 
       0.570708         300.712         125.947 
       0.576825         295.432         123.036 
       0.582926         294.091         120.224 
       0.589034         288.573         117.494 
       0.595184         286.751         114.827 
       0.601379         282.157         112.221 
       0.607522         276.078         109.713 
       0.613639         275.365          107.29 
       0.619772          274.22         104.935 
       0.625918         268.787         102.649 
       0.632068         266.492         100.436 
       0.638161         264.645         98.3117 
         0.6443         260.499         96.2364 
       0.650464          257.75         94.2144 
       0.656582         254.951         92.2638 
       0.662703         253.896         90.3661 
       0.668861         248.616         88.5098 
       0.675024         247.853         86.7038 
       0.681124         243.931         84.9668 
       0.687237         242.809         83.2749 
       0.693381         238.781         81.6227 
       0.699536         238.193         80.0137 
       0.705665         235.195         78.4559 
       0.711789         232.662         76.9416 
       0.717957         230.878         75.4573 
        0.72409          227.58         74.0204 
       0.730186         228.748         72.6296 
       0.736317         224.906         71.2671 
       0.742472         222.752         69.9347 
       0.748622          220.63         68.6378 
        0.75476          219.81          67.377 
       0.760888          217.14         66.1502 
       0.767043         214.256         64.9496 
       0.773185         212.503         63.7817 
       0.779291         210.685         62.6495 
       0.785407         209.348         61.5435 
       0.791564          207.78         60.4576 
       0.797719         204.282         59.3986 
       0.803834         205.263         58.3718 
       0.809972          202.38         57.3658 
       0.816124         199.497         56.3814 
       0.822261         198.273         55.4229 
       0.828378         197.479         54.4898 
       0.834502         195.066         53.5775 
       0.840667         195.095         52.6804 
       0.846816         191.358         51.8064 
       0.852925         191.372          50.958 
       0.859047         189.344          50.127 
       0.865192         188.746         49.3119 
       0.871341          186.66         48.5146 
       0.877463         185.048         47.7386 
       0.883569         184.527         46.9818 
       0.889708         182.939         46.2375 
       0.895864         180.632         45.5077 
       0.902008          179.36         44.7952 
       0.908149         177.815         44.0985 
       0.914301         176.637         43.4155 
       0.920448         176.038         42.7478 
       0.926574         174.146         42.0966 
       0.932687         173.965         41.4604 
       0.938823          172.17         40.8352 
       0.944975         171.694         40.2215 
       0.951105         169.647         39.6227 
       0.957225         168.403         39.0373 
       0.963368         168.165         38.4617 
       0.969511         165.829         37.8979 
       0.975621          163.91         37.3484 
       0.981748         163.835         36.8086 
       0.987916         162.889         36.2761 
        0.99406         161.536         35.7562 
        1.00019         160.698         35.2476 
        1.00632         159.574         34.7494 
        1.01246         158.406         34.2602 
        1.01859         156.933         33.7813 
        1.02471         155.893         33.3122 
        1.03085         154.972         32.8504 
        1.03698         154.315         32.3984 
        1.04314          153.61         31.9531 
        1.04929         152.637         31.5172 
        1.05541         152.036         31.0912 
        1.06154         150.421         30.6722 
        1.06769         149.601         30.2602 
        1.07382         148.411         29.8573 
        1.07993         147.505         29.4626 
        1.08607         147.197         29.0735 
        1.09222         145.583          28.691 
        1.09836         144.967         28.3159 
        1.10449         144.123          27.948 
        1.11063         142.875         27.5863 
        1.11677         142.202         27.2311 
         1.1229         141.355         26.8828 
        1.12903         140.018         26.5403 
        1.13518         139.335         26.2035 
        1.14131         138.966         25.8728 
        1.14745          137.62         25.5481 
        1.15359         136.811         25.2288 
        1.15973         136.237         24.9149 
        1.16584         135.277         24.6078 
        1.17197          134.77         24.3055 
        1.17811         133.586         24.0073 
        1.18424         132.886         23.7151 
        1.19038          132.24         23.4269 
        1.19652         131.089         23.1436 
        1.20267          130.33          22.865 
        1.20881         129.456         22.5911 
        1.21495         129.356         22.3222 
        1.22108          128.16         22.0576 
         1.2272         127.667         21.7981 
        1.23334         126.715         21.5421 
        1.23949         126.163         21.2897 
        1.24562         125.214          21.042 
        1.25174          125.07         20.7986 
        1.25789         123.903         20.5584 
        1.26402         123.342         20.3225 
        1.27014         122.585         20.0908 
        1.27628         122.045         19.8621 
        1.28244          121.21         19.6365 
        1.28858         120.545         19.4147 
        1.29471         119.624         19.1968 
        1.30084         119.004         18.9825 
        1.30697         118.189         18.7712 
        1.31312          117.77         18.5628 
        1.31925         116.723         18.3583 
        1.32537         116.337          18.157 
        1.33151         115.792          17.958 
        1.33765         115.092         17.7622 
        1.34378         114.777         17.5697 
        1.34992         113.873         17.3799 
        1.35606         113.473         17.1925 
         1.3622         112.786         17.0082 
        1.36833         111.998         16.8271 
        1.37445         111.633         16.6487 
        1.38059          110.83         16.4724 
        1.38675         110.279         16.2981 
        1.39288          109.58         16.1272 
        1.39901         108.866         15.9587 
        1.40515         108.504         15.7923 
         1.4113         107.836         15.6283 
        1.41742         107.496         15.4673 
        1.42355         106.876         15.3083 
         1.4297         106.154         15.1511 
        1.43585         105.702         14.9961 
        1.44198         104.893         14.8439 
        1.44809         104.494         14.6941 
        1.45423         104.175         14.5458 
        1.46036         103.141         14.3999 
        1.46649         102.664         14.2559 
        1.47263         102.084         14.1137 
        1.47877         101.685         13.9736 
        1.48491         101.166         13.8352 
        1.49104         100.425         13.6989 
        1.49718         99.9781         13.5644 
        1.50333          99.352         13.4315 
        1.50947         99.1996         13.3006 
         1.5156         98.4354         13.1717 
        1.52172         97.7322         13.0445 
        1.52787         97.5342         12.9188 
          1.534         97.0199         12.7948 
        1.54013         96.3221         12.6726 
        1.54627         95.8252         12.5518 
        1.55241         95.5678         12.4326 
        1.55855         94.8483         12.3151 
        1.56467         94.3841         12.1994 
         1.5708         93.5547         12.0849 
        1.57695         93.5202         11.9717 
        1.58308         92.8356         11.8602 
        1.58922          92.403           11.75 
        1.59535         92.3008         11.6413 
         1.6015         91.4747         11.5338 
        1.60764         90.9666         11.4278 
        1.61376         90.7811         11.3233 
        1.61989         90.2035         11.2201 
        1.62604         89.7215          11.118 
        1.63218         89.1763         11.0171 
        1.63831         88.7302         10.9178 
        1.64444         88.1422         10.8197 
        1.65059         87.7659         10.7225 
        1.65673         87.6388         10.6266 
        1.66285         87.1611         10.5322 
        1.66898         86.3952         10.4389 
        1.67512         85.8368         10.3466 
        1.68127         85.7086         10.2553 
         1.6874         85.2302         10.1653 
        1.69353         84.6696         10.0764 
        1.69967         84.2091          9.9884 
        1.70581         83.9424         9.90148 
        1.71193         83.4864         9.81593 
        1.71806         82.9419         9.73122 
        1.72421         82.4899         9.64734 
        1.73035         82.0871         9.56454 
        1.73649         81.7456         9.48274 
        1.74262         81.2934         9.40197 
        1.74876         80.7288         9.32208 
        1.75489         80.6436          9.2433 
        1.76101         80.2792         9.16545 
        1.76715         79.6768         9.08839 
        1.77329         79.2498         9.01212 
        1.77943         78.9052          8.9367 
        1.78557         78.6467         8.86226 
        1.79171         78.0772         8.78866 
        1.79785         77.6817         8.71588 
        1.80399         77.3953         8.64394 
        1.81012          76.788         8.57291 
        1.81625         76.5026         8.50271 
        1.82239         76.1255         8.43319 
        1.82853         75.6926         8.36449 
        1.83466         75.2828         8.29662 
        1.84078         75.0636         8.22957 
        1.84692          74.743         8.16316 
        1.85306         74.5319          8.0974 
         1.8592         74.0919         8.03247 
        1.86533         73.5761         7.96829 
        1.87147          73.226         7.90473 
        1.87761          72.602         7.84185 
        1.88375         72.4789         7.77972 
        1.88988         72.0021         7.71834 
        1.89601         71.8709         7.65758 
        1.90215         71.5012         7.59744 
        1.90829         70.9209         7.53797 
        1.91442         70.5268         7.47913 
        1.92056         70.3361         7.42098 
         1.9267          70.003         7.36338 
        1.93284         69.8058         7.30637 
        1.93897         69.2708         7.25007 
        1.94509         68.9978         7.19448 
        1.95123         68.6296         7.13934 
        1.95737         68.3781         7.08473 
        1.96349          68.151         7.03084 
        1.96964         67.7685         6.97736 
        1.97578         67.2911         6.92441 
        1.98192         66.9289         6.87212 
        1.98805          66.618         6.82036 
        1.99419         66.5394         6.76913 
        2.00033         65.9648         6.71841 
        2.00647         65.5854         6.66822 
         2.0126         65.4322         6.61863 
        2.01874         65.1734         6.56947 
        2.02488         64.8145         6.52077 
        2.03101         64.3653         6.47266 
        2.03714         64.1609         6.42507 
        2.04328         63.9595         6.37791 
        2.04941         63.5777         6.33127 
        2.05554         63.1882         6.28512 
        2.06167         62.8565         6.23938 
        2.06781         62.5898         6.19408 
        2.07396         62.1599         6.14917 
        2.08009         62.0532         6.10478 
        2.08622          61.607         6.06089 
        2.09237         61.4037         6.01734 
        2.09851         60.9969         5.97421 
        2.10464         60.7493         5.93157 
        2.11077         60.5284         5.88941 
        2.11691         60.2624         5.84756 
        2.12305         59.8635         5.80611 
        2.12918         59.5559         5.76517 
        2.13531         59.3623         5.72462 
        2.14145         59.0095         5.68437 
         2.1476         58.8948         5.64445 
        2.15372         58.4008         5.60512 
        2.15985         58.2123         5.56613 
        2.16599         57.9711          5.5274 
        2.17213         57.6104         5.48908 
        2.17827         57.1832         5.45113 
         2.1844         57.0954         5.41357 
        2.19054         56.8515         5.37636 
        2.19666         56.5171         5.33955 
         2.2028         56.3192         5.30305 
        2.20893         55.9619         5.26688 
        2.21508          55.743           5.231 
        2.22122         55.3697         5.19545 
        2.22736         55.1007          5.1603 
        2.23349         54.8947         5.12549 
        2.23962         54.6803         5.09098 
        2.24577         54.4152         5.05675 
         2.2519         54.1114         5.02289 
        2.25802         53.8457          4.9894 
        2.26417         53.6616         4.95611 
        2.27031         53.4239          4.9231 
        2.27644         53.0025         4.89049 
        2.28257         52.8735         4.85818 
        2.28872         52.5594         4.82609 
        2.29486         52.4097         4.79431 
        2.30099         52.0288         4.76287 
        2.30712         51.8786         4.73171 
        2.31326         51.5989         4.70077 
         2.3194         51.3636         4.67012 
        2.32553         51.0945          4.6398 
        2.33166         50.8842         4.60977 
         2.3378         50.6374         4.57995 
        2.34394         50.4406          4.5504 
        2.35007         50.1192         4.52114 
        2.35619         49.9612         4.49218 
        2.36233          49.747         4.46341 
        2.36848         49.4394         4.43483 
        2.37462         49.1987         4.40656 
        2.38075         48.9263         4.37856 
        2.38689         48.6923         4.35078 
        2.39303         48.5795         4.32325 
        2.39916         48.2937         4.29599 
        2.40529         48.1484         4.26897 
        2.41143         47.9249         4.24215 
        2.41757          47.604         4.21556 
         2.4237          47.508         4.18925 
        2.42983         47.2182         4.16316 
        2.43598         47.0335         4.13722 
        2.44211         46.7441         4.11155 
        2.44823         46.6203         4.08615 
        2.45437         46.2639          4.0609 
        2.46052         46.1095         4.03585 
        2.46665         45.8367         4.01104 
        2.47279          45.652         3.98646 
        2.47892         45.4299         3.96206 
        2.48507         45.2694         3.93785 
         2.4912         45.0405         3.91389 
