# k  (h/Mpc)    Pcb(k)  (Mpc/h)^3    Pcb_linear(k)  (Mpc/h)^3
     0.00783031         10301.8         10363.9 
       0.013688         12201.3         12471.7 
       0.019231         12117.7         12262.5 
      0.0249154         10984.3         10945.9 
      0.0312784         9032.07         9075.18 
      0.0375637         7337.88         7412.29 
      0.0433917         6260.93         6257.49 
      0.0492413         5451.77         5480.86 
      0.0555754         4978.56         4964.91 
      0.0619321         4522.05         4631.54 
       0.067871         4310.19         4356.84 
      0.0738098         4015.76         4036.72 
      0.0800417          3625.7         3627.88 
      0.0862327         3169.72         3179.06 
      0.0921407         2781.02         2765.24 
      0.0982031          2461.5         2404.55 
       0.104506         2154.63         2125.65 
       0.110769         1985.71         1944.55 
       0.116806         1905.34         1839.35 
       0.122832         1810.03         1771.62 
       0.129052         1738.82         1708.13 
       0.135211         1681.92          1627.3 
       0.141259         1555.15         1521.32 
       0.147318         1420.71         1394.35 
       0.153489         1306.04         1259.04 
       0.159709         1216.39         1134.04 
       0.165845         1096.92         1034.03 
       0.171974         1059.66         961.428 
       0.178125         1013.91         912.901 
       0.184229         949.585         880.995 
        0.19034         934.783         855.546 
       0.196428         907.418         827.997 
       0.202534         847.208         792.845 
       0.208729         827.394         748.593 
       0.214876         784.817         699.217 
       0.220989         728.401         649.787 
       0.227147         703.629         604.628 
        0.23329         671.205         567.403 
       0.239377          657.95         539.026 
       0.245482         623.879         517.807 
       0.251667         600.608         501.089 
       0.257832         593.985         486.113 
       0.263955         562.613         470.365 
       0.270079         541.966         452.381 
        0.27624         518.801         431.957 
       0.282372         505.545         410.366 
        0.28843         499.056         389.295 
       0.294538         472.119         369.735 
       0.300721         456.645         352.601 
        0.30691         448.125         338.322 
       0.313033         427.427         326.635 
       0.319153         420.644         316.522 
       0.325316         412.033         307.019 
        0.33145         401.678         297.448 
       0.337538         386.902         287.457 
       0.343633         375.289         276.931 
       0.349808         364.979         266.046 
       0.355968         357.455         255.417 
       0.362074         345.525         245.524 
       0.368217         342.159         236.521 
       0.374374         334.397         228.485 
       0.380519         320.664         221.361 
       0.386598         316.439         214.929 
       0.392688         308.018         208.818 
        0.39888         300.669         202.726 
       0.405048           294.3         196.617 
       0.411186         292.459         190.491 
       0.417313         287.164         184.412 
       0.423458         279.282          178.46 
       0.429607         271.616         172.783 
       0.435692         267.263         167.535 
       0.441815          262.02         162.628 
       0.447964         255.346         158.055 
       0.454126          251.82         153.764 
       0.460267         248.256         149.678 
       0.466387         242.748         145.718 
        0.47254         239.807         141.813 
       0.478662         233.266         137.987 
       0.484765         230.211         134.235 
       0.490885         226.957         130.575 
       0.497035         223.356         127.039 
       0.503198         221.576         123.659 
       0.509342         215.837         120.454 
       0.515458         212.631         117.423 
       0.521598         208.002         114.526 
       0.527764         205.815         111.731 
       0.533884         204.643         109.042 
           0.54         200.388         106.422 
       0.546137         195.852         103.859 
       0.552299          194.21         101.352 
       0.558452         190.875         98.9193 
       0.564573         189.825         96.5734 
       0.570708         185.342          94.303 
       0.576825         182.794         92.1265 
       0.582926         180.985         90.0413 
       0.589034         178.112         88.0305 
       0.595184         176.647         86.0732 
       0.601379         173.492         84.1606 
       0.607522         169.788         82.3167 
       0.613639          168.81         80.5313 
       0.619772         167.095          78.791 
       0.625918         165.482         77.0961 
       0.632068         161.868         75.4486 
       0.638161         160.829         73.8637 
         0.6443         159.348         72.3145 
       0.650464         156.389         70.8071 
       0.656582         155.295         69.3577 
       0.662703         153.957         67.9519 
       0.668861         150.793         66.5794 
       0.675024         150.686         65.2443 
       0.681124         148.396         63.9583 
       0.687237         146.793         62.7028 
       0.693381          144.82         61.4732 
       0.699536         143.574         60.2736 
       0.705665         142.048         59.1112 
       0.711789         140.233          57.981 
       0.717957         138.693         56.8741 
        0.72409          137.17         55.8038 
       0.730186         137.285         54.7687 
       0.736317         135.168         53.7551 
       0.742472         133.152         52.7639 
       0.748622          131.21         51.7988 
        0.75476         131.712         50.8597 
       0.760888          130.06         49.9451 
       0.767043         127.766         49.0491 
       0.773185         126.495          48.177 
       0.779291         125.157         47.3312 
       0.785407         124.352         46.5047 
       0.791564         123.335         45.6931 
       0.797719         121.482         44.9016 
       0.803834           121.6         44.1344 
       0.809972         120.401         43.3827 
       0.816124         118.449         42.6472 
       0.822261         117.583          41.931 
       0.828378         117.258         41.2336 
       0.834502         115.799         40.5516 
       0.840667         115.262         39.8807 
       0.846816         113.838          39.227 
       0.852925         112.777         38.5922 
       0.859047         111.894         37.9702 
       0.865192          111.15         37.3599 
       0.871341         110.052         36.7627 
       0.877463         109.068         36.1815 
       0.883569         109.008         35.6143 
       0.889708         107.906         35.0566 
       0.895864         106.938         34.5094 
       0.902008         105.795         33.9752 
       0.908149         104.574         33.4528 
       0.914301         104.368         32.9406 
       0.920448         104.198         32.4396 
       0.926574         102.134          31.951 
       0.932687         102.125         31.4736 
       0.938823         101.394         31.0043 
       0.944975         100.424         30.5436 
       0.951105         99.4681          30.094 
       0.957225         99.1408         29.6543 
       0.963368         98.1336         29.2219 
       0.969511         97.5595         28.7983 
       0.975621         96.3873         28.3854 
       0.981748         95.9019         27.9797 
       0.987916         95.2097         27.5794 
        0.99406         94.8939         27.1885 
        1.00019         93.8871          26.806 
        1.00632         93.1263         26.4313 
        1.01246         92.6667         26.0633 
        1.01859         92.1985          25.703 
        1.02471         91.5629         25.3499 
        1.03085         90.6846         25.0024 
        1.03698         90.0175         24.6621 
        1.04314         89.5014         24.3268 
        1.04929           89.14         23.9986 
        1.05541         88.4317         23.6778 
        1.06154         87.7721         23.3622 
        1.06769         87.2515         23.0518 
        1.07382          86.571         22.7482 
        1.07993         86.1984         22.4507 
        1.08607         85.5623         22.1574 
        1.09222         85.0948         21.8691 
        1.09836         84.4055         21.5863 
        1.10449         83.9322         21.3088 
        1.11063         83.4327         21.0359 
        1.11677         82.9094          20.768 
         1.1229         82.1608         20.5052 
        1.12903         81.8265         20.2468 
        1.13518         81.3052         19.9926 
        1.14131         80.7803          19.743 
        1.14745         80.4932         19.4978 
        1.15359          79.499         19.2568 
        1.15973         79.3658         19.0198 
        1.16584         78.8537         18.7878 
        1.17197         78.4308         18.5594 
        1.17811         77.7921         18.3342 
        1.18424         77.2568         18.1133 
        1.19038         77.0667         17.8955 
        1.19652         76.5856         17.6814 
        1.20267         76.0664         17.4708 
        1.20881         75.5493         17.2637 
        1.21495         75.1266         17.0603 
        1.22108         74.9251         16.8603 
         1.2272         74.2202         16.6639 
        1.23334         74.0662         16.4703 
        1.23949         73.4991         16.2793 
        1.24562         72.9163         16.0918 
        1.25174         72.7173         15.9077 
        1.25789         72.3343         15.7259 
        1.26402          71.904         15.5472 
        1.27014          71.491         15.3718 
        1.27628         70.9903         15.1986 
        1.28244         70.9421         15.0278 
        1.28858         70.2977         14.8598 
        1.29471         69.8691         14.6948 
        1.30084         69.3069         14.5324 
        1.30697         69.2866         14.3723 
        1.31312         68.8513         14.2144 
        1.31925         68.3164         14.0594 
        1.32537         68.0308         13.9069 
        1.33151         67.7937          13.756 
        1.33765         67.3529         13.6076 
        1.34378         66.9258         13.4616 
        1.34992         66.7607         13.3176 
        1.35606          66.274         13.1755 
         1.3622         66.0786         13.0357 
        1.36833         65.5807         12.8983 
        1.37445         65.1344         12.7629 
        1.38059         64.9375         12.6291 
        1.38675         64.3606         12.4969 
        1.39288         64.2203         12.3671 
        1.39901         63.7609         12.2393 
        1.40515         63.4959         12.1129 
         1.4113         63.2346         11.9884 
        1.41742         62.8159         11.8662 
        1.42355         62.6875         11.7454 
         1.4297         62.2575          11.626 
        1.43585         61.9654         11.5083 
        1.44198         61.5632         11.3926 
        1.44809         61.1228         11.2788 
        1.45423          61.081         11.1661 
        1.46036         60.6782         11.0552 
        1.46649         60.2876         10.9458 
        1.47263         60.0138         10.8377 
        1.47877         59.7985         10.7312 
        1.48491         59.3703          10.626 
        1.49104         59.0494         10.5224 
        1.49718         58.8351         10.4201 
        1.50333         58.5933          10.319 
        1.50947         58.3236         10.2194 
         1.5156         58.1314         10.1214 
        1.52172          57.643         10.0246 
        1.52787         57.3727         9.92893 
          1.534         57.0384          9.8346 
        1.54013         56.9957         9.74161 
        1.54627         56.4528         9.64966 
        1.55241         56.3543         9.55889 
        1.55855         55.9375         9.46941 
        1.56467         55.5038         9.38134 
         1.5708         55.4922         9.29414 
        1.57695         55.1532         9.20792 
        1.58308         54.8799         9.12301 
        1.58922         54.6665          9.0391 
        1.59535          54.601          8.9563 
         1.6015         54.3225         8.87441 
        1.60764         53.9763          8.7936 
        1.61376         53.7279         8.71402 
        1.61989           53.28         8.63537 
        1.62604         53.1713         8.55752 
        1.63218         52.8636         8.48068 
        1.63831         52.7167         8.40496 
        1.64444         52.5255         8.33015 
        1.65059         52.1183         8.25608 
        1.65673         51.9113         8.18299 
        1.66285         51.6582         8.11099 
        1.66898         51.3139         8.03984 
        1.67512         51.1069         7.96941 
        1.68127         51.0456         7.89976 
         1.6874         50.7303          7.8311 
        1.69353          50.435         7.76331 
        1.69967          50.288         7.69616 
        1.70581         49.9511         7.62984 
        1.71193         49.7513         7.56455 
        1.71806         49.5705          7.4999 
        1.72421         49.3582         7.43587 
        1.73035         49.1176         7.37267 
        1.73649         48.8037         7.31022 
        1.74262         48.4867         7.24855 
        1.74876         48.5419         7.18755 
        1.75489         48.2026         7.12739 
        1.76101         48.0249         7.06793 
        1.76715         47.7836         7.00907 
        1.77329         47.4476         6.95082 
        1.77943          47.459          6.8932 
        1.78557         47.1315         6.83632 
        1.79171         46.8985         6.78008 
        1.79785         46.7202         6.72447 
        1.80399         46.4791         6.66949 
        1.81012          46.255          6.6152 
        1.81625         46.0668         6.56154 
        1.82239         45.8151         6.50841 
        1.82853         45.6294         6.45588 
        1.83466         45.4482         6.40399 
        1.84078         45.2276         6.35273 
        1.84692          45.111         6.30195 
        1.85306           44.83         6.25167 
         1.8592         44.5842         6.20201 
        1.86533         44.4526         6.15293 
        1.87147         44.2035         6.10432 
        1.87761         44.0647         6.05622 
        1.88375         43.8417          6.0087 
        1.88988         43.6008         5.96174 
        1.89601         43.4824         5.91525 
        1.90215         43.1853         5.86923 
        1.90829         43.0979         5.82373 
        1.91442         42.8181          5.7787 
        1.92056         42.7219         5.73419 
         1.9267         42.5606         5.69011 
        1.93284         42.3697         5.64646 
        1.93897         42.0658         5.60336 
        1.94509          41.902          5.5608 
        1.95123         41.7622         5.51858 
        1.95737         41.6538         5.47677 
        1.96349         41.4656          5.4355 
        1.96964         41.2009         5.39454 
        1.97578         41.0135         5.35398 
        1.98192         40.7784         5.31393 
        1.98805         40.5896         5.27428 
        1.99419         40.5026         5.23504 
        2.00033         40.3343         5.19618 
        2.00647         40.1314         5.15772 
         2.0126         39.9461         5.11972 
        2.01874          39.868         5.08205 
        2.02488         39.5793         5.04473 
        2.03101         39.5301         5.00785 
        2.03714         39.2873         4.97137 
        2.04328         39.1645         4.93522 
        2.04941         38.8788         4.89946 
        2.05554         38.8031         4.86408 
        2.06167         38.6501         4.82901 
        2.06781         38.4604         4.79427 
        2.07396         38.2218         4.75983 
        2.08009         38.0889         4.72579 
        2.08622         38.0018         4.69212 
        2.09237         37.7653         4.65871 
        2.09851         37.6035         4.62563 
        2.10464         37.4786         4.59292 
        2.11077         37.3533         4.56057 
        2.11691         37.1044         4.52846 
        2.12305         36.9179         4.49665 
        2.12918         36.8203         4.46524 
        2.13531         36.5683         4.43412 
        2.14145          36.498         4.40322 
         2.1476         36.4175         4.37259 
        2.15372          36.273          4.3424 
        2.15985         35.9943         4.31247 
        2.16599         35.8443         4.28274 
        2.17213         35.7586         4.25332 
        2.17827         35.6066         4.22418 
         2.1844         35.3547         4.19535 
        2.19054         35.3403         4.16677 
        2.19666         35.1115          4.1385 
         2.2028         34.8908         4.11047 
        2.20893         34.8442         4.08269 
        2.21508         34.6839         4.05513 
        2.22122         34.5565         4.02782 
        2.22736          34.323         4.00082 
        2.23349         34.2618         3.97408 
        2.23962         34.0985         3.94756 
        2.24577         33.9438         3.92127 
         2.2519         33.7803         3.89525 
        2.25802         33.6447         3.86951 
        2.26417         33.4794         3.84393 
        2.27031         33.3439         3.81856 
        2.27644         33.3277         3.79349 
        2.28257         33.0671         3.76866 
        2.28872         32.9917         3.74399 
        2.29486         32.8752         3.71956 
        2.30099         32.6811         3.69539 
        2.30712          32.579         3.67143 
        2.31326         32.4104         3.64764 
         2.3194         32.2619         3.62408 
        2.32553           32.17         3.60076 
        2.33166         32.0031         3.57766 
         2.3378         31.8372         3.55474 
        2.34394         31.7329           3.532 
        2.35007         31.6688          3.5095 
        2.35619         31.4998         3.48723 
        2.36233         31.3223         3.46509 
        2.36848         31.2893          3.4431 
        2.37462         31.0768         3.42135 
        2.38075         30.9869         3.39981 
        2.38689         30.8706         3.37843 
        2.39303         30.7584         3.35725 
        2.39916         30.5276         3.33627 
        2.40529           30.48         3.31547 
        2.41143         30.3625         3.29483 
        2.41757         30.2579         3.27436 
         2.4237         30.1169          3.2541 
        2.42983         29.9159         3.23402 
        2.43598         29.8491         3.21405 
        2.44211         29.6972         3.19429 
        2.44823         29.5947         3.17473 
        2.45437         29.5101         3.15529 
        2.46052         29.3178         3.13599 
        2.46665         29.2558         3.11689 
        2.47279         29.0437         3.09796 
        2.47892         29.0122         3.07917 
        2.48507         28.9026         3.06052 
         2.4912         28.7483         3.04206 
