# k  (h/Mpc)    Pcb(k)  (Mpc/h)^3    Pcb_linear(k)  (Mpc/h)^3
     0.00783031         10742.7         10806.9 
       0.013688         12717.2           13004 
       0.019231         12631.2         12785.6 
      0.0249154           11453         11412.7 
      0.0312784         9414.93         9462.19 
      0.0375637         7648.08         7728.36 
      0.0433917         6526.72          6524.3 
      0.0492413         5682.83         5714.55 
      0.0555754         5189.82          5176.6 
      0.0619321         4711.85         4829.01 
       0.067871         4491.68          4542.6 
      0.0738098         4185.74         4208.83 
      0.0800417         3779.21         3782.56 
      0.0862327         3304.14         3314.59 
      0.0921407         2900.07         2883.13 
      0.0982031         2567.98         2507.06 
       0.104506         2247.94         2216.28 
       0.110769         2072.17         2027.45 
       0.116806          1988.5         1917.77 
       0.122832         1888.91         1847.15 
       0.129052         1813.76         1780.95 
       0.135211         1755.21         1696.68 
       0.141259         1622.55         1586.17 
       0.147318         1482.69         1453.79 
       0.153489         1363.62         1312.72 
       0.159709         1271.26         1182.39 
       0.165845         1146.68         1078.11 
       0.171974         1108.14         1002.42 
       0.178125         1060.81          951.82 
       0.184229         992.704         918.554 
        0.19034         977.501         892.021 
       0.196428          949.03         863.297 
       0.202534         886.045         826.646 
       0.208729         865.682         780.508 
       0.214876         821.156         729.026 
       0.220989         762.805         677.489 
       0.227147         737.062         630.406 
        0.23329          703.27         591.593 
       0.239377         690.048         562.006 
       0.245482         654.277         539.882 
       0.251667         629.988         522.452 
       0.257832          622.88         506.837 
       0.263955         590.125         490.418 
       0.270079          568.65         471.668 
        0.27624         544.387         450.373 
       0.282372         530.872         427.861 
        0.28843         524.061         405.892 
       0.294538         495.821         385.498 
       0.300721         480.006         367.633 
        0.30691         470.962         352.746 
       0.313033         449.231          340.56 
       0.319153         442.205         330.017 
       0.325316         433.456         320.108 
        0.33145         422.675         310.129 
       0.337538         407.096         299.712 
       0.343633         395.024         288.737 
       0.349808         384.319         277.388 
       0.355968          376.52         266.306 
       0.362074         363.734         255.991 
       0.368217         360.487         246.605 
       0.374374         352.522         238.226 
       0.380519         338.061         230.798 
       0.386598         333.771         224.092 
       0.392688         324.962          217.72 
        0.39888         317.101         211.369 
       0.405048         310.413         204.999 
       0.411186         308.693         198.613 
       0.417313         303.305         192.274 
       0.423458          294.94         186.068 
       0.429607         286.758         180.149 
       0.435692         282.219         174.678 
       0.441815         276.781         169.561 
       0.447964         269.913         164.793 
       0.454126         266.296         160.319 
       0.460267         262.405          156.06 
       0.466387          256.65          151.93 
        0.47254         253.509         147.859 
       0.478662           246.8          143.87 
       0.484765         243.573         139.958 
       0.490885         240.266         136.141 
       0.497035         236.264         132.455 
       0.503198         234.643         128.931 
       0.509342         228.627          125.59 
       0.515458         225.162         122.429 
       0.521598         220.413         119.408 
       0.527764         218.015         116.494 
       0.533884         216.754         113.691 
           0.54         212.457          110.96 
       0.546137         207.651         108.286 
       0.552299         206.063         105.673 
       0.558452         202.529         103.137 
       0.564573         201.387         100.691 
       0.570708          196.77         98.3233 
       0.576825         193.982          96.054 
       0.582926         192.128           93.88 
       0.589034         189.072         91.7835 
       0.595184         187.576         89.7428 
       0.601379         184.316         87.7486 
       0.607522         180.334         85.8261 
       0.613639          179.36         83.9645 
       0.619772           177.7         82.1501 
       0.625918         175.815         80.3829 
       0.632068         172.135         78.6651 
       0.638161         171.108         77.0127 
         0.6443         169.417         75.3974 
       0.650464         166.364         73.8258 
       0.656582         165.122         72.3146 
       0.662703         163.807         70.8489 
       0.668861         160.445         69.4178 
       0.675024         160.284         68.0258 
       0.681124         157.929          66.685 
       0.687237         156.315         65.3759 
       0.693381         154.119          64.094 
       0.699536         152.889         62.8433 
       0.705665         151.281         61.6312 
       0.711789         149.364         60.4529 
       0.717957         147.778         59.2988 
        0.72409         146.084         58.1829 
       0.730186         146.347         57.1037 
       0.736317         144.083         56.0468 
       0.742472         141.983         55.0134 
       0.748622         139.936         54.0071 
        0.75476         140.463          53.028 
       0.760888         138.657         52.0744 
       0.767043         136.269         51.1402 
       0.773185         134.967         50.2309 
       0.779291         133.542         49.3491 
       0.785407         132.729         48.4873 
       0.791564         131.602         47.6411 
       0.797719          129.59         46.8159 
       0.803834         129.848         46.0159 
       0.809972         128.515         45.2322 
       0.816124         126.399         44.4653 
       0.822261         125.549         43.7186 
       0.828378          125.19         42.9915 
       0.834502          123.65         42.2804 
       0.840667         123.153         41.5809 
       0.846816         121.522         40.8994 
       0.852925         120.495         40.2375 
       0.859047         119.486         39.5889 
       0.865192         118.805         38.9526 
       0.871341          117.61           38.33 
       0.877463         116.538          37.724 
       0.883569          116.49         37.1327 
       0.889708         115.312         36.5511 
       0.895864         114.255         35.9807 
       0.902008         113.053         35.4237 
       0.908149         111.789         34.8789 
       0.914301         111.513         34.3449 
       0.920448         111.356         33.8226 
       0.926574         109.229         33.3132 
       0.932687         109.222         32.8154 
       0.938823         108.431         32.3261 
       0.944975         107.461         31.8457 
       0.951105         106.431          31.377 
       0.957225         106.032         30.9185 
       0.963368         104.996         30.4677 
       0.969511         104.337         30.0261 
       0.975621         103.086         29.5956 
       0.981748         102.604         29.1725 
       0.987916         101.897         28.7552 
        0.99406         101.511         28.3476 
        1.00019         100.528         27.9488 
        1.00632         99.7005         27.5582 
        1.01246         99.1886         27.1745 
        1.01859         98.6615         26.7988 
        1.02471         98.0081         26.4307 
        1.03085         97.0891         26.0683 
        1.03698         96.3535         25.7136 
        1.04314         95.8633          25.364 
        1.04929         95.4767         25.0217 
        1.05541         94.7358         24.6873 
        1.06154         93.9767         24.3581 
        1.06769         93.4474         24.0346 
        1.07382         92.7901          23.718 
        1.07993         92.3246         23.4079 
        1.08607         91.6848          23.102 
        1.09222         91.1257         22.8014 
        1.09836         90.4277         22.5065 
        1.10449         89.9192         22.2172 
        1.11063          89.382         21.9328 
        1.11677          88.823         21.6534 
         1.1229         88.0209         21.3794 
        1.12903           87.63           21.11 
        1.13518         87.0518          20.845 
        1.14131         86.5574         20.5847 
        1.14745         86.2324         20.3291 
        1.15359         85.2095         20.0778 
        1.15973         85.0251         19.8306 
        1.16584         84.4749         19.5888 
        1.17197         84.0567         19.3507 
        1.17811         83.3461         19.1158 
        1.18424         82.8394         18.8855 
        1.19038         82.5898         18.6584 
        1.19652         82.0836         18.4352 
        1.20267         81.5346         18.2156 
        1.20881         80.9526         17.9997 
        1.21495         80.5355         17.7876 
        1.22108         80.2699          17.579 
         1.2272         79.5763         17.3743 
        1.23334         79.3981         17.1724 
        1.23949         78.8073         16.9733 
        1.24562         78.1679         16.7779 
        1.25174         77.9808         16.5859 
        1.25789         77.5002         16.3963 
        1.26402         77.0946           16.21 
        1.27014         76.5999         16.0272 
        1.27628         76.1004         15.8466 
        1.28244         76.0343         15.6684 
        1.28858         75.3331         15.4933 
        1.29471         74.9033         15.3213 
        1.30084         74.3173          15.152 
        1.30697         74.2381         14.9851 
        1.31312         73.7873         14.8204 
        1.31925         73.2249         14.6588 
        1.32537         72.9242         14.4997 
        1.33151         72.7203         14.3425 
        1.33765         72.1949         14.1877 
        1.34378         71.7611         14.0355 
        1.34992          71.586         13.8854 
        1.35606         71.0817         13.7372 
         1.3622         70.8717         13.5915 
        1.36833         70.3043         13.4482 
        1.37445         69.8924         13.3071 
        1.38059         69.6429         13.1675 
        1.38675         69.0378         13.0297 
        1.39288         68.8413         12.8944 
        1.39901         68.3937         12.7611 
        1.40515         68.0805         12.6293 
         1.4113          67.792         12.4995 
        1.41742         67.3653         12.3721 
        1.42355         67.2148         12.2462 
         1.4297          66.744         12.1216 
        1.43585         66.4586         11.9989 
        1.44198         66.0036         11.8783 
        1.44809         65.5268         11.7597 
        1.45423         65.5326         11.6422 
        1.46036         65.0636         11.5265 
        1.46649          64.623         11.4124 
        1.47263         64.3349         11.2998 
        1.47877         64.1011         11.1887 
        1.48491         63.6566          11.079 
        1.49104         63.2925          10.971 
        1.49718         63.0649         10.8643 
        1.50333         62.8247         10.7589 
        1.50947         62.5336         10.6551 
         1.5156         62.3387         10.5529 
        1.52172         61.7962          10.452 
        1.52787         61.5059         10.3522 
          1.534         61.1651         10.2539 
        1.54013         61.0908         10.1569 
        1.54627         60.5134         10.0611 
        1.55241         60.4401         9.96641 
        1.55855         59.9344         9.87312 
        1.56467         59.4867         9.78129 
         1.5708         59.4462         9.69037 
        1.57695         59.1046         9.60048 
        1.58308         58.8209         9.51194 
        1.58922         58.6022         9.42446 
        1.59535         58.5196         9.33812 
         1.6015         58.1876         9.25275 
        1.60764         57.8336         9.16849 
        1.61376         57.5823         9.08552 
        1.61989         57.0932         9.00352 
        1.62604         56.9894         8.92235 
        1.63218          56.686         8.84223 
        1.63831         56.4916         8.76329 
        1.64444         56.2841         8.68529 
        1.65059          55.856         8.60805 
        1.65673         55.6438         8.53185 
        1.66285         55.3226         8.45678 
        1.66898         54.9657          8.3826 
        1.67512         54.7557         8.30916 
        1.68127         54.6899         8.23655 
         1.6874         54.3354         8.16496 
        1.69353         54.0154         8.09428 
        1.69967         53.8659         8.02427 
        1.70581         53.5193         7.95512 
        1.71193         53.2781         7.88705 
        1.71806         53.0977         7.81963 
        1.72421         52.8733         7.75288 
        1.73035         52.6076         7.68699 
        1.73649         52.2831         7.62187 
        1.74262         51.9422         7.55757 
        1.74876         51.9553         7.49398 
        1.75489         51.6232         7.43124 
        1.76101         51.4188         7.36925 
        1.76715         51.1475         7.30789 
        1.77329         50.8267         7.24715 
        1.77943          50.813         7.18707 
        1.78557         50.4663         7.12777 
        1.79171         50.2007         7.06914 
        1.79785         50.0038         7.01115 
        1.80399         49.7763         6.95383 
        1.81012         49.5187         6.89722 
        1.81625         49.3224         6.84128 
        1.82239         49.0492         6.78588 
        1.82853         48.8358         6.73111 
        1.83466         48.6421         6.67701 
        1.84078         48.3948         6.62357 
        1.84692         48.3204         6.57062 
        1.85306         48.0008         6.51819 
         1.8592         47.7331         6.46642 
        1.86533         47.5754         6.41524 
        1.87147          47.304         6.36456 
        1.87761          47.151         6.31441 
        1.88375         46.9316         6.26486 
        1.88988         46.6428          6.2159 
        1.89601         46.5402         6.16744 
        1.90215         46.2185         6.11945 
        1.90829         46.1135         6.07201 
        1.91442         45.8066         6.02506 
        1.92056         45.7149         5.97865 
         1.9267         45.5127         5.93269 
        1.93284         45.3246         5.88718 
        1.93897         44.9784         5.84225 
        1.94509         44.8248         5.79787 
        1.95123         44.6622         5.75385 
        1.95737         44.5669         5.71026 
        1.96349         44.3363         5.66723 
        1.96964         44.0716         5.62452 
        1.97578         43.8561         5.58224 
        1.98192         43.6109         5.54047 
        1.98805         43.3873         5.49914 
        1.99419         43.3117         5.45822 
        2.00033         43.1234          5.4177 
        2.00647         42.8897         5.37761 
         2.0126         42.7156         5.33799 
        2.01874         42.6306         5.29871 
        2.02488         42.3333          5.2598 
        2.03101         42.2622         5.22135 
        2.03714         41.9935         5.18332 
        2.04328         41.8574         5.14562 
        2.04941         41.5341         5.10834 
        2.05554         41.4739         5.07145 
        2.06167         41.3188         5.03488 
        2.06781         41.1143         4.99866 
        2.07396         40.8399         4.96275 
        2.08009         40.7046         4.92726 
        2.08622         40.6073         4.89215 
        2.09237         40.3551         4.85732 
        2.09851         40.1589         4.82283 
        2.10464         40.0154         4.78872 
        2.11077         39.8958         4.75499 
        2.11691         39.6523         4.72152 
        2.12305          39.452         4.68836 
        2.12918         39.3221          4.6556 
        2.13531          39.057         4.62315 
        2.14145         38.9759         4.59094 
         2.1476          38.916           4.559 
        2.15372         38.7378         4.52753 
        2.15985         38.4432         4.49632 
        2.16599         38.2823         4.46532 
        2.17213         38.1832         4.43465 
        2.17827         38.0244         4.40427 
         2.1844         37.7443          4.3742 
        2.19054         37.7524         4.34441 
        2.19666         37.4984         4.31494 
         2.2028          37.255         4.28571 
        2.20893         37.1901         4.25675 
        2.21508          37.011         4.22801 
        2.22122         36.8658         4.19954 
        2.22736         36.6351         4.17139 
        2.23349         36.5593          4.1435 
        2.23962         36.3943         4.11586 
        2.24577         36.2177         4.08844 
         2.2519         36.0476         4.06131 
        2.25802         35.8945         4.03447 
        2.26417         35.7111         4.00781 
        2.27031         35.5788         3.98135 
        2.27644         35.5455         3.95522 
        2.28257           35.27         3.92932 
        2.28872         35.1995         3.90361 
        2.29486           35.06         3.87813 
        2.30099         34.8602         3.85294 
        2.30712         34.7393         3.82795 
        2.31326         34.5754         3.80315 
         2.3194         34.4162         3.77858 
        2.32553         34.3025         3.75427 
        2.33166         34.1232         3.73019 
         2.3378         33.9448         3.70628 
        2.34394         33.8272         3.68258 
        2.35007          33.753         3.65912 
        2.35619          33.583         3.63589 
        2.36233         33.3794         3.61281 
        2.36848         33.3478         3.58989 
        2.37462         33.0963         3.56721 
        2.38075         33.0349         3.54475 
        2.38689         32.8912         3.52247 
        2.39303         32.7691         3.50038 
        2.39916         32.5409          3.4785 
        2.40529         32.4751         3.45681 
        2.41143         32.3577          3.4353 
        2.41757         32.2433         3.41395 
         2.4237         32.0783         3.39283 
        2.42983         31.8856         3.37189 
        2.43598          31.807         3.35107 
        2.44211         31.6272         3.33047 
        2.44823         31.5169         3.31008 
        2.45437         31.4166         3.28981 
        2.46052          31.222         3.26969 
        2.46665         31.1596         3.24977 
        2.47279         30.9097         3.23003 
        2.47892         30.8941         3.21044 
        2.48507         30.7802           3.191 
         2.4912         30.5941         3.17175 
