# k  (h/Mpc)    P(k)  (Mpc/h)^3    P_linear(k)  (Mpc/h)^3
     0.00783031         2521.82         2529.59 
       0.013688         3091.39          3062.4 
       0.019231         3058.37          3027.7 
      0.0249154         2718.93         2714.32 
      0.0312784         2278.67         2260.12 
      0.0375637         1880.09         1855.19 
      0.0433917          1586.7          1574.8 
      0.0492413         1402.27         1386.77 
      0.0555754          1264.3         1260.86 
      0.0619321         1194.24         1176.11 
       0.067871          1106.6         1102.39 
      0.0738098         1018.54         1015.41 
      0.0800417         906.422         906.572 
      0.0862327         795.692         790.816 
      0.0921407         696.232         687.589 
      0.0982031         606.367          600.62 
       0.104506         548.294          535.77 
       0.110769         505.826         495.065 
       0.116806         478.089         471.497 
       0.122832         462.949          454.82 
       0.129052         440.112         436.582 
       0.135211         415.636         412.288 
       0.141259         388.009         381.567 
       0.147318         355.253         346.794 
       0.153489         319.195         311.916 
       0.159709          290.47         281.645 
       0.165845         270.496         258.931 
       0.171974          252.34         243.448 
       0.178125         242.509         233.494 
       0.184229         235.378         226.544 
        0.19034         224.555         219.817 
       0.196428         218.413         211.373 
       0.202534         209.526         200.409 
       0.208729         195.385          187.27 
       0.214876         180.991          173.61 
       0.220989         170.682         160.945 
       0.227147         158.648         150.254 
        0.23329         150.669         142.105 
       0.239377         145.608         136.267 
       0.245482         138.685         131.928 
       0.251667         136.415         128.152 
       0.257832         132.108         124.162 
       0.263955         127.149         119.469 
       0.270079         121.689         113.994 
        0.27624         117.273             108 
       0.282372          111.55          102.05 
        0.28843         105.781         96.6652 
       0.294538         100.921         92.0325 
       0.300721         98.2627         88.2486 
        0.30691         94.0629         85.2147 
       0.313033         91.4208         82.6888 
       0.319153         87.5348         80.3109 
       0.325316         86.2467         77.8217 
        0.33145          82.921         75.1087 
       0.337538         80.6083         72.2125 
       0.343633         77.3453         69.2177 
       0.349808         74.6737         66.2649 
       0.355968          72.284         63.5518 
       0.362074         69.7591         61.1752 
       0.368217         67.6016         59.1178 
       0.374374         65.5604         57.3175 
       0.380519         64.0227          55.692 
       0.386598         62.3183         54.1441 
       0.392688         61.0117         52.5719 
        0.39888         59.1594         50.9266 
       0.405048         57.6128         49.2397 
       0.411186         56.0724         47.5632 
       0.417313         54.1755         45.9495 
       0.423458         52.6858         44.4318 
       0.429607         51.2259         43.0421 
       0.435692         49.5761         41.7986 
       0.441815         48.7838         40.6482 
       0.447964         47.9202         39.5629 
       0.454126         45.9606         38.5145 
       0.460267         45.2107           37.48 
       0.466387         43.9203         36.4442 
        0.47254         43.1599         35.4084 
       0.478662         42.3812          34.397 
       0.484765          41.054         33.4212 
       0.490885         40.1092         32.4889 
       0.497035         39.5498         31.6107 
       0.503198         38.4587         30.7883 
       0.509342         37.4658         30.0135 
       0.515458         36.6931         29.2755 
       0.521598         36.0668          28.559 
       0.527764         35.3064         27.8568 
       0.533884         34.6969          27.171 
           0.54         33.8996         26.4951 
       0.546137         33.3668         25.8323 
       0.552299         32.7966         25.1888 
       0.558452         31.7861         24.5738 
       0.564573         31.2793         23.9889 
       0.570708         30.7709         23.4273 
       0.576825         30.0386         22.8897 
       0.582926         29.4361         22.3736 
       0.589034         28.6809         21.8738 
       0.595184         28.3133         21.3847 
       0.601379         27.7676         20.9037 
       0.607522           27.23         20.4365 
       0.613639         26.9667         19.9826 
       0.619772          26.261         19.5404 
       0.625918         26.0918          19.112 
       0.632068         25.6683         18.6992 
       0.638161         25.1147         18.3049 
         0.6443         24.6188         17.9209 
       0.650464         24.1743         17.5471 
       0.656582         24.0107         17.1862 
       0.662703         23.5389         16.8342 
       0.668861         23.0942         16.4891 
       0.675024         22.6881          16.153 
       0.681124         22.2899         15.8294 
       0.687237         21.9084         15.5141 
       0.693381         21.7107         15.2064 
       0.699536         21.1502         14.9069 
       0.705665          21.077         14.6171 
       0.711789         20.5951         14.3354 
       0.717957         20.3097         14.0593 
        0.72409         20.0111          13.792 
       0.730186         19.7234         13.5331 
       0.736317         19.5042         13.2794 
       0.742472         19.1642         13.0313 
       0.748622         18.9605         12.7897 
        0.75476         18.6123         12.5549 
       0.760888         18.3332         12.3264 
       0.767043         18.1101         12.1027 
       0.773185         17.7838         11.8853 
       0.779291         17.6868         11.6744 
       0.785407         17.4732         11.4685 
       0.791564         17.1521         11.2662 
       0.797719         16.7663          11.069 
       0.803834         16.7397         10.8777 
       0.809972         16.5775         10.6903 
       0.816124         16.1967         10.5068 
       0.822261         16.0269         10.3282 
       0.828378         15.8639         10.1542 
       0.834502         15.7107         9.98408 
       0.840667         15.4803         9.81679 
       0.846816         15.1945         9.65383 
       0.852925         15.0516         9.49562 
       0.859047         14.8834         9.34067 
       0.865192         14.7343          9.1887 
       0.871341         14.6106         9.04005 
       0.877463         14.3465          8.8954 
       0.883569         14.1639          8.7543 
       0.889708         13.9455         8.61557 
       0.895864         13.8267         8.47951 
       0.902008         13.7232          8.3467 
       0.908149         13.5679         8.21682 
       0.914301         13.4663         8.08951 
       0.920448         13.2113         7.96503 
       0.926574         13.0867         7.84361 
       0.932687         12.9397           7.725 
       0.938823         12.7681         7.60842 
       0.944975         12.6258         7.49399 
       0.951105         12.5067         7.38233 
       0.957225          12.395         7.27315 
       0.963368         12.2791         7.16582 
       0.969511           12.16         7.06066 
       0.975621         12.0355         6.95818 
       0.981748         11.8725         6.85748 
       0.987916         11.7977         6.75814 
        0.99406         11.6304         6.66115 
        1.00019         11.4607         6.56627 
        1.00632         11.4274         6.47333 
        1.01246          11.311         6.38205 
        1.01859         11.1275         6.29269 
        1.02471         11.0798         6.20516 
        1.03085         10.9649           6.119 
        1.03698          10.791         6.03466 
        1.04314         10.7313         5.95156 
        1.04929         10.5949         5.87023 
        1.05541         10.4763         5.79074 
        1.06154         10.4086         5.71254 
        1.06769         10.3534         5.63567 
        1.07382         10.2061         5.56048 
        1.07993         10.1241         5.48683 
        1.08607         10.0268         5.41422 
        1.09222         9.94852         5.34285 
        1.09836         9.82677         5.27286 
        1.10449          9.7518         5.20421 
        1.11063         9.64176         5.13672 
        1.11677         9.59907         5.07045 
         1.1229         9.53528         5.00546 
        1.12903         9.40765         4.94157 
        1.13518         9.29217         4.87874 
        1.14131          9.2469         4.81704 
        1.14745          9.1588         4.75645 
        1.15359          9.0971         4.69689 
        1.15973         9.00784         4.63833 
        1.16584         8.87809         4.58104 
        1.17197         8.83406         4.52463 
        1.17811         8.78145           4.469 
        1.18424         8.69754         4.41448 
        1.19038         8.66017          4.3607 
        1.19652         8.55944         4.30785 
        1.20267         8.47654         4.25587 
        1.20881         8.44678         4.20476 
        1.21495         8.37793         4.15457 
        1.22108         8.27374         4.10521 
         1.2272         8.21562         4.05677 
        1.23334         8.13662         4.00901 
        1.23949         8.06428          3.9619 
        1.24562         8.02741         3.91568 
        1.25174         7.96866         3.87027 
        1.25789          7.9012         3.82544 
        1.26402         7.86602          3.7814 
        1.27014         7.79176         3.73817 
        1.27628         7.69512         3.69548 
        1.28244         7.63344         3.65338 
        1.28858         7.62969           3.612 
        1.29471         7.53969         3.57135 
        1.30084         7.46538         3.53136 
        1.30697         7.45128         3.49193 
        1.31312         7.34193         3.45304 
        1.31925         7.28999         3.41487 
        1.32537         7.25223         3.37732 
        1.33151         7.21512         3.34019 
        1.33765          7.1465         3.30365 
        1.34378         7.09232         3.26773 
        1.34992         7.03917         3.23232 
        1.35606         6.99391         3.19736 
         1.3622         6.95241         3.16298 
        1.36833         6.88471         3.12919 
        1.37445         6.84777         3.09591 
        1.38059         6.81743         3.06301 
        1.38675         6.75086         3.03051 
        1.39288         6.72443         2.99862 
        1.39901         6.64679          2.9672 
        1.40515         6.61761         2.93616 
         1.4113          6.5693         2.90557 
        1.41742         6.52249         2.87554 
        1.42355         6.46632         2.84588 
         1.4297         6.43646         2.81655 
        1.43585         6.40455         2.78764 
        1.44198         6.37095         2.75925 
        1.44809         6.31616         2.73131 
        1.45423         6.26604         2.70365 
        1.46036         6.22041         2.67643 
        1.46649         6.19171         2.64957 
        1.47263         6.13279         2.62306 
        1.47877         6.09627         2.59692 
        1.48491          6.0659          2.5711 
        1.49104         6.02445         2.54569 
        1.49718         5.99067          2.5206 
        1.50333         5.95523          2.4958 
        1.50947         5.90487          2.4714 
         1.5156         5.87623         2.44735 
        1.52172         5.84614         2.42363 
        1.52787         5.80448         2.40017 
          1.534         5.75996         2.37705 
        1.54013         5.73326         2.35426 
        1.54627          5.6839         2.33173 
        1.55241         5.65438         2.30949 
        1.55855         5.63165         2.28757 
        1.56467         5.58528           2.266 
         1.5708         5.56753         2.24465 
        1.57695         5.51818         2.22353 
        1.58308         5.47593         2.20274 
        1.58922         5.46308          2.1822 
        1.59535         5.43719         2.16193 
         1.6015         5.38622         2.14189 
        1.60764         5.34792         2.12211 
        1.61376         5.33318         2.10264 
        1.61989         5.29914          2.0834 
        1.62604         5.26569         2.06435 
        1.63218          5.2513         2.04556 
        1.63831         5.21278         2.02704 
        1.64444          5.1851         2.00874 
        1.65059         5.12949         1.99063 
        1.65673         5.13367         1.97276 
        1.66285         5.07904         1.95516 
        1.66898         5.05451         1.93777 
        1.67512         5.03285         1.92056 
        1.68127          4.9991         1.90354 
         1.6874         4.98159         1.88676 
        1.69353         4.93853          1.8702 
        1.69967         4.92283          1.8538 
        1.70581         4.89842          1.8376 
        1.71193         4.86171         1.82165 
        1.71806         4.84483         1.80586 
        1.72421         4.81225         1.79023 
        1.73035         4.79612          1.7748 
        1.73649         4.76689         1.75955 
        1.74262         4.73581          1.7445 
        1.74876         4.71977         1.72961 
        1.75489         4.69527         1.71492 
        1.76101         4.65757         1.70042 
        1.76715         4.64429         1.68605 
        1.77329         4.61423         1.67184 
        1.77943         4.58164         1.65779 
        1.78557         4.57179         1.64391 
        1.79171         4.54528          1.6302 
        1.79785         4.51868         1.61663 
        1.80399         4.49194         1.60323 
        1.81012         4.47224         1.58999 
        1.81625         4.44974         1.57691 
        1.82239         4.43153         1.56396 
        1.82853         4.40104         1.55116 
        1.83466         4.38253         1.53851 
        1.84078         4.36533         1.52602 
        1.84692          4.3527         1.51365 
        1.85306         4.31631          1.5014 
         1.8592         4.29082          1.4893 
        1.86533          4.2733         1.47735 
        1.87147         4.25534         1.46551 
        1.87761         4.23355          1.4538 
        1.88375         4.20707         1.44222 
        1.88988         4.19432         1.43079 
        1.89601         4.17218         1.41948 
        1.90215         4.15119         1.40827 
        1.90829         4.12735          1.3972 
        1.91442         4.10964         1.38624 
        1.92056         4.09346         1.37541 
         1.9267         4.06589         1.36468 
        1.93284         4.04971         1.35406 
        1.93897         4.02824         1.34358 
        1.94509         4.01695         1.33323 
        1.95123         3.99428         1.32296 
        1.95737         3.96754         1.31279 
        1.96349         3.95845         1.30276 
        1.96964         3.94004          1.2928 
        1.97578         3.91242         1.28294 
        1.98192         3.90432          1.2732 
        1.98805         3.88576         1.26357 
        1.99419         3.86342         1.25403 
        2.00033         3.85397         1.24459 
        2.00647         3.83053         1.23524 
         2.0126         3.81881         1.22601 
        2.01874         3.79351         1.21686 
        2.02488         3.78388         1.20779 
        2.03101         3.75633         1.19883 
        2.03714         3.73827         1.18997 
        2.04328         3.72459         1.18119 
        2.04941         3.70311         1.17251 
        2.05554         3.69177         1.16392 
        2.06167          3.6754         1.15541 
        2.06781         3.65999         1.14697 
        2.07396         3.65072         1.13862 
        2.08009         3.63098         1.13035 
        2.08622         3.61092         1.12218 
        2.09237         3.59379         1.11408 
        2.09851         3.58692         1.10605 
        2.10464         3.57017         1.09812 
        2.11077         3.54559         1.09027 
        2.11691         3.53131         1.08248 
        2.12305         3.52188         1.07477 
        2.12918         3.51146         1.06715 
        2.13531         3.49459          1.0596 
        2.14145         3.47885         1.05211 
         2.1476         3.45951         1.04469 
        2.15372         3.44447         1.03737 
        2.15985         3.44389         1.03012 
        2.16599          3.4142         1.02291 
        2.17213         3.40329         1.01578 
        2.17827         3.39508         1.00872 
         2.1844         3.37744         1.00173 
        2.19054         3.35938        0.994809 
        2.19666         3.34577        0.987961 
         2.2028         3.33254        0.981171 
        2.20893         3.32095        0.974442 
        2.21508         3.30536        0.967768 
        2.22122         3.29001        0.961155 
        2.22736         3.27977        0.954617 
        2.23349         3.27136        0.948142 
        2.23962         3.25564        0.941723 
        2.24577         3.24179        0.935358 
         2.2519         3.23447         0.92906 
        2.25802         3.21525        0.922831 
        2.26417         3.20578        0.916641 
        2.27031         3.18964        0.910502 
        2.27644         3.17343        0.904438 
        2.28257         3.15935        0.898428 
        2.28872         3.15757        0.892462 
        2.29486         3.14026        0.886552 
        2.30099         3.12415        0.880706 
        2.30712         3.11298        0.874911 
        2.31326         3.09713        0.869158 
         2.3194         3.08947        0.863461 
        2.32553         3.08106        0.857823 
        2.33166         3.07048        0.852239 
         2.3378         3.05503        0.846696 
        2.34394         3.04439        0.841201 
        2.35007         3.02924        0.835763 
        2.35619         3.02209        0.830379 
        2.36233         3.00924         0.82503 
        2.36848         2.99459        0.819717 
        2.37462         2.99143        0.814461 
        2.38075         2.97496        0.809257 
        2.38689           2.969        0.804094 
        2.39303         2.95158        0.798977 
        2.39916         2.94229         0.79391 
        2.40529         2.93142        0.788887 
        2.41143         2.92019        0.783904 
        2.41757         2.91478        0.778962 
         2.4237         2.90315        0.774071 
        2.42983         2.88314        0.769222 
        2.43598         2.87706        0.764403 
        2.44211         2.86324        0.759632 
        2.44823         2.85632        0.754913 
        2.45437         2.84435        0.750221 
        2.46052         2.83777        0.745565 
        2.46665          2.8277        0.740957 
        2.47279         2.81318        0.736389 
        2.47892         2.80467        0.731856 
        2.48507         2.79576        0.727357 
         2.4912         2.78149        0.722905 
