# k  (h/Mpc)    Pcb(k)  (Mpc/h)^3    Pcb_linear(k)  (Mpc/h)^3
     0.00783031         2518.46         2545.58 
       0.013688         3086.39         3084.51 
       0.019231         3053.58         3050.66 
      0.0249154         2715.09         2735.45 
      0.0312784         2275.72         2278.01 
      0.0375637          1877.8         1870.02 
      0.0433917         1584.88         1587.46 
      0.0492413         1400.71         1397.97 
      0.0555754         1262.95         1271.08 
      0.0619321         1192.95         1185.66 
       0.067871         1105.48         1111.36 
      0.0738098         1017.52         1023.68 
      0.0800417         905.541          913.97 
      0.0862327         794.922         797.276 
      0.0921407         695.536          693.21 
      0.0982031         605.772         605.534 
       0.104506         547.735         540.155 
       0.110769         505.323         499.119 
       0.116806         477.622         475.359 
       0.122832         462.497         458.547 
       0.129052         439.708         440.161 
       0.135211         415.257         415.669 
       0.141259         387.643         384.697 
       0.147318         354.915         349.639 
       0.153489         318.895         314.476 
       0.159709         290.181         283.956 
       0.165845         270.222         261.056 
       0.171974         252.084         245.446 
       0.178125         242.266          235.41 
       0.184229         235.143         228.404 
        0.19034         224.359         221.622 
       0.196428         218.208         213.109 
       0.202534         209.323         202.056 
       0.208729         195.198         188.808 
       0.214876         180.814         175.036 
       0.220989         170.509         162.268 
       0.227147         158.481         151.489 
        0.23329         150.507         143.272 
       0.239377         145.447         137.387 
       0.245482         138.547         133.012 
       0.251667         136.277         129.205 
       0.257832         131.975         125.182 
       0.263955         127.024         120.451 
       0.270079         121.569         114.931 
        0.27624         117.152         108.887 
       0.282372         111.429         102.889 
        0.28843         105.664         97.4595 
       0.294538         100.813         92.7894 
       0.300721         98.1499          88.974 
        0.30691         93.9587         85.9155 
       0.313033         91.3191         83.3684 
       0.319153         87.4404         80.9711 
       0.325316         86.1556         78.4614 
        0.33145         82.8368         75.7262 
       0.337538         80.5199         72.8054 
       0.343633         77.2584         69.7868 
       0.349808         74.5911         66.8096 
       0.355968         72.1994          64.074 
       0.362074         69.6755         61.6788 
       0.368217         67.5227         59.6036 
       0.374374         65.4829         57.7887 
       0.380519         63.9466         56.1499 
       0.386598         62.2462         54.5889 
       0.392688         60.9398         53.0044 
        0.39888         59.0894         51.3448 
       0.405048         57.5447         49.6448 
       0.411186         56.0058         47.9542 
       0.417313         54.1081         46.3273 
       0.423458         52.6206          44.797 
       0.429607         51.1614         43.3961 
       0.435692         49.5148         42.1423 
       0.441815         48.7205         40.9824 
       0.447964         47.8593         39.8882 
       0.454126         45.9057         38.8312 
       0.460267         45.1545         37.7881 
       0.466387         43.8639         36.7438 
        0.47254         43.1043         35.6996 
       0.478662         42.3256         34.6798 
       0.484765         41.0005          33.696 
       0.490885         40.0555         32.7561 
       0.497035         39.4982         31.8706 
       0.503198         38.4086         31.0415 
       0.509342         37.4168         30.2603 
       0.515458         36.6443         29.5163 
       0.521598         36.0184         28.7938 
       0.527764         35.2578         28.0859 
       0.533884         34.6492         27.3942 
           0.54         33.8537          26.713 
       0.546137         33.3202         26.0446 
       0.552299         32.7508          25.396 
       0.558452          31.741         24.7759 
       0.564573         31.2358         24.1861 
       0.570708          30.727         23.6199 
       0.576825         29.9947          23.078 
       0.582926         29.3945         22.5576 
       0.589034         28.6394         22.0537 
       0.595184         28.2724         21.5606 
       0.601379         27.7262         21.0755 
       0.607522         27.1916         20.6046 
       0.613639         26.9273         20.1469 
       0.619772          26.222         19.7011 
       0.625918         26.0538         19.2692 
       0.632068         25.6308         18.8529 
       0.638161         25.0768         18.4554 
         0.6443         24.5812         18.0683 
       0.650464         24.1369         17.6914 
       0.656582          23.974         17.3274 
       0.662703         23.5034         16.9726 
       0.668861          23.059         16.6247 
       0.675024         22.6529         16.2858 
       0.681124         22.2556         15.9595 
       0.687237         21.8751         15.6417 
       0.693381         21.6774         15.3315 
       0.699536         21.1168         15.0295 
       0.705665         21.0417         14.7373 
       0.711789         20.5627         14.4533 
       0.717957         20.2769         14.1749 
        0.72409         19.9783         13.9054 
       0.730186          19.692         13.6444 
       0.736317         19.4725         13.3886 
       0.742472         19.1338         13.1384 
       0.748622         18.9294         12.8949 
        0.75476          18.581         12.6581 
       0.760888         18.3031         12.4277 
       0.767043         18.0806         12.2023 
       0.773185         17.7542          11.983 
       0.779291         17.6568         11.7704 
       0.785407         17.4426         11.5628 
       0.791564          17.123         11.3589 
       0.797719         16.7385           11.16 
       0.803834         16.7115         10.9672 
       0.809972         16.5501         10.7782 
       0.816124         16.1697         10.5932 
       0.822261         15.9992         10.4131 
       0.828378         15.8358         10.2377 
       0.834502         15.6837         10.0662 
       0.840667         15.4529         9.89752 
       0.846816         15.1678         9.73322 
       0.852925          15.025         9.57371 
       0.859047         14.8573         9.41749 
       0.865192          14.709         9.26427 
       0.871341         14.5848          9.1144 
       0.877463         14.3218         8.96855 
       0.883569         14.1387          8.8263 
       0.889708         13.9202         8.68642 
       0.895864         13.8019         8.54925 
       0.902008         13.6984         8.41534 
       0.908149         13.5437          8.2844 
       0.914301         13.4408         8.15604 
       0.920448         13.1869         8.03053 
       0.926574         13.0622         7.90812 
       0.932687         12.9159         7.78853 
       0.938823         12.7445         7.67099 
       0.944975         12.6021         7.55562 
       0.951105         12.4832         7.44305 
       0.957225         12.3728         7.33297 
       0.963368         12.2559         7.22475 
       0.969511         12.1371         7.11872 
       0.975621         12.0122          7.0154 
       0.981748         11.8503         6.91387 
       0.987916         11.7755         6.81372 
        0.99406         11.6077         6.71593 
        1.00019          11.438         6.62027 
        1.00632         11.4056         6.52656 
        1.01246         11.2886         6.43454 
        1.01859         11.1058         6.34444 
        1.02471         11.0578         6.25619 
        1.03085         10.9429         6.16932 
        1.03698           10.77         6.08429 
        1.04314         10.7102         6.00051 
        1.04929          10.574          5.9185 
        1.05541         10.4556         5.83837 
        1.06154         10.3877         5.75952 
        1.06769         10.3329         5.68202 
        1.07382         10.1853         5.60621 
        1.07993         10.1031         5.53195 
        1.08607         10.0069         5.45874 
        1.09222         9.92829         5.38679 
        1.09836         9.80695         5.31623 
        1.10449         9.73182         5.24701 
        1.11063         9.62247         5.17896 
        1.11677         9.57953         5.11215 
         1.1229         9.51564         5.04663 
        1.12903         9.38846         4.98221 
        1.13518          9.2732         4.91886 
        1.14131         9.22725         4.85666 
        1.14745         9.13913         4.79556 
        1.15359         9.07775         4.73552 
        1.15973         8.98882         4.67648 
        1.16584         8.85938         4.61871 
        1.17197         8.81467         4.56184 
        1.17811         8.76313         4.50576 
        1.18424         8.67927         4.45078 
        1.19038         8.64205         4.39657 
        1.19652         8.54115         4.34328 
        1.20267         8.45826         4.29087 
        1.20881         8.42884         4.23934 
        1.21495         8.35981         4.18874 
        1.22108         8.25584         4.13898 
         1.2272         8.19823         4.09014 
        1.23334         8.11863         4.04198 
        1.23949         8.04675         3.99448 
        1.24562         8.00985         3.94788 
        1.25174         7.95089          3.9021 
        1.25789         7.88393          3.8569 
        1.26402         7.84846          3.8125 
        1.27014         7.77462         3.76891 
        1.27628         7.67831         3.72588 
        1.28244         7.61613         3.68343 
        1.28858         7.61251          3.6417 
        1.29471         7.52259         3.60072 
        1.30084         7.44849          3.5604 
        1.30697         7.43507         3.52064 
        1.31312         7.32514         3.48144 
        1.31925         7.27362         3.44295 
        1.32537         7.23541         3.40509 
        1.33151         7.19893         3.36766 
        1.33765         7.12979         3.33082 
        1.34378         7.07588         3.29461 
        1.34992         7.02343          3.2589 
        1.35606         6.97729         3.22366 
         1.3622         6.93616         3.18899 
        1.36833         6.86891         3.15492 
        1.37445         6.83175         3.12137 
        1.38059         6.80196          3.0882 
        1.38675         6.73571         3.05544 
        1.39288         6.70888         3.02328 
        1.39901         6.63114          2.9916 
        1.40515         6.60202          2.9603 
         1.4113         6.55397         2.92947 
        1.41742         6.50731         2.89919 
        1.42355         6.45107         2.86928 
         1.4297         6.42102         2.83971 
        1.43585         6.38935         2.81056 
        1.44198         6.35615         2.78194 
        1.44809         6.30106         2.75377 
        1.45423         6.25112         2.72589 
        1.46036         6.20541         2.69844 
        1.46649         6.17654         2.67136 
        1.47263         6.11807         2.64463 
        1.47877         6.08145         2.61828 
        1.48491         6.05101         2.59225 
        1.49104         6.00972         2.56662 
        1.49718         5.97607         2.54133 
        1.50333         5.94075         2.51633 
        1.50947         5.89046         2.49172 
         1.5156         5.86177         2.46748 
        1.52172          5.8316         2.44356 
        1.52787         5.79034         2.41991 
          1.534         5.74568          2.3966 
        1.54013          5.7193         2.37362 
        1.54627         5.66989         2.35091 
        1.55241         5.64029         2.32849 
        1.55855         5.61772         2.30639 
        1.56467         5.57152         2.28464 
         1.5708         5.55339         2.26311 
        1.57695         5.50418         2.24182 
        1.58308         5.46198         2.22086 
        1.58922         5.44936         2.20015 
        1.59535         5.42347         2.17971 
         1.6015         5.37263         2.15951 
        1.60764         5.33449         2.13957 
        1.61376          5.3195         2.11993 
        1.61989          5.2858         2.10053 
        1.62604         5.25204         2.08133 
        1.63218         5.23799         2.06238 
        1.63831         5.19942         2.04371 
        1.64444         5.17203         2.02526 
        1.65059         5.11617           2.007 
        1.65673         5.12043         1.98899 
        1.66285         5.06604         1.97124 
        1.66898         5.04149         1.95371 
        1.67512         5.01963         1.93635 
        1.68127         4.98609         1.91919 
         1.6874         4.96867         1.90228 
        1.69353         4.92562         1.88558 
        1.69967         4.91002         1.86904 
        1.70581         4.88549         1.85271 
        1.71193         4.84912         1.83663 
        1.71806         4.83215         1.82071 
        1.72421         4.79968         1.80495 
        1.73035         4.78356         1.78939 
        1.73649         4.75428         1.77402 
        1.74262         4.72326         1.75884 
        1.74876         4.70722         1.74383 
        1.75489         4.68285         1.72903 
        1.76101          4.6452          1.7144 
        1.76715         4.63199         1.69992 
        1.77329         4.60227         1.68559 
        1.77943         4.56927         1.67142 
        1.78557         4.55939         1.65743 
        1.79171         4.53299          1.6436 
        1.79785         4.50666         1.62993 
        1.80399         4.47987         1.61641 
        1.81012         4.46007         1.60307 
        1.81625         4.43784         1.58988 
        1.82239         4.41954         1.57682 
        1.82853         4.38914         1.56392 
        1.83466         4.37086         1.55117 
        1.84078         4.35372         1.53857 
        1.84692         4.34099          1.5261 
        1.85306         4.30453         1.51375 
         1.8592         4.27911         1.50155 
        1.86533         4.26158          1.4895 
        1.87147         4.24379         1.47756 
        1.87761         4.22181         1.46575 
        1.88375         4.19578         1.45409 
        1.88988         4.18252         1.44256 
        1.89601         4.16055         1.43115 
        1.90215         4.13971         1.41985 
        1.90829         4.11589         1.40869 
        1.91442         4.09837         1.39764 
        1.92056         4.08186         1.38672 
         1.9267         4.05459         1.37591 
        1.93284         4.03856          1.3652 
        1.93897          4.0172         1.35463 
        1.94509         4.00561         1.34419 
        1.95123         3.98306         1.33384 
        1.95737         3.95628         1.32359 
        1.96349         3.94736         1.31347 
        1.96964         3.92921         1.30343 
        1.97578         3.90133         1.29349 
        1.98192         3.89334         1.28367 
        1.98805         3.87484         1.27396 
        1.99419         3.85259         1.26434 
        2.00033         3.84305         1.25482 
        2.00647         3.81966          1.2454 
         2.0126         3.80814         1.23609 
        2.01874         3.78252         1.22686 
        2.02488         3.77314         1.21772 
        2.03101         3.74545         1.20869 
        2.03714         3.72774         1.19976 
        2.04328         3.71389         1.19091 
        2.04941         3.69246         1.18215 
        2.05554          3.6811         1.17349 
        2.06167         3.66508         1.16491 
        2.06781         3.64944         1.15641 
        2.07396         3.64016         1.14798 
        2.08009         3.62054         1.13965 
        2.08622         3.60052         1.13141 
        2.09237         3.58337         1.12324 
        2.09851         3.57646         1.11515 
        2.10464         3.55989         1.10715 
        2.11077         3.53547         1.09924 
        2.11691         3.52118         1.09138 
        2.12305         3.51179         1.08361 
        2.12918         3.50137         1.07593 
        2.13531         3.48455         1.06832 
        2.14145         3.46881         1.06077 
         2.1476         3.44942         1.05328 
        2.15372         3.43435          1.0459 
        2.15985         3.43376         1.03859 
        2.16599         3.40432         1.03132 
        2.17213         3.39316         1.02413 
        2.17827          3.3851         1.01701 
         2.1844         3.36748         1.00997 
        2.19054         3.34984         1.00299 
        2.19666         3.33594        0.996086 
         2.2028         3.32267        0.989241 
        2.20893         3.31111        0.982456 
        2.21508         3.29556        0.975728 
        2.22122         3.28028         0.96906 
        2.22736         3.27006        0.962468 
        2.23349         3.26157         0.95594 
        2.23962          3.2458        0.949468 
        2.24577         3.23215         0.94305 
         2.2519         3.22478        0.936701 
        2.25802         3.20577        0.930421 
        2.26417          3.1963         0.92418 
        2.27031         3.18015        0.917991 
        2.27644         3.16402        0.911876 
        2.28257         3.14991        0.905817 
        2.28872         3.14819        0.899802 
        2.29486          3.1307        0.893843 
        2.30099         3.11468         0.88795 
        2.30712         3.10356        0.882107 
        2.31326         3.08791        0.876307 
         2.3194         3.08022        0.870562 
        2.32553         3.07169        0.864879 
        2.33166         3.06122        0.859248 
         2.3378         3.04586         0.85366 
        2.34394         3.03517         0.84812 
        2.35007         3.02014        0.842636 
        2.35619         3.01299        0.837208 
        2.36233         3.00023        0.831815 
        2.36848         2.98543        0.826458 
        2.37462         2.98233         0.82116 
        2.38075         2.96578        0.815913 
        2.38689            2.96        0.810708 
        2.39303          2.9427        0.805549 
        2.39916         2.93338        0.800439 
        2.40529         2.92256        0.795375 
        2.41143         2.91128        0.790351 
        2.41757         2.90558        0.785368 
         2.4237         2.89426        0.780437 
        2.42983         2.87408        0.775549 
        2.43598         2.86825         0.77069 
        2.44211         2.85432         0.76588 
        2.44823         2.84756        0.761122 
        2.45437         2.83547        0.756391 
        2.46052         2.82908        0.751697 
        2.46665         2.81894         0.74705 
        2.47279         2.80458        0.742445 
        2.47892         2.79614        0.737875 
        2.48507         2.78712        0.733339 
         2.4912         2.77272         0.72885 
