# k  (h/Mpc)    P(k)  (Mpc/h)^3    P_linear(k)  (Mpc/h)^3
     0.00783031         8073.59         8196.12 
       0.013688         9959.24         9919.29 
       0.019231         9817.77         9804.97 
      0.0249154         8664.18         8789.01 
      0.0312784         7280.68         7317.67 
      0.0375637         6029.79         6006.25 
      0.0433917         5061.44         5098.27 
      0.0492413         4489.49         4489.41 
      0.0555754         4017.27         4081.72 
      0.0619321         3834.52         3807.29 
       0.067871         3520.15         3568.59 
      0.0738098         3241.26         3286.99 
      0.0800417         2876.57         2934.65 
      0.0862327          2538.6         2559.92 
      0.0921407         2240.93         2225.75 
      0.0982031         1951.62         1944.22 
       0.104506         1786.15         1734.29 
       0.110769         1647.35         1602.52 
       0.116806         1555.81         1526.23 
       0.122832         1503.42         1472.24 
       0.129052         1416.67          1413.2 
       0.135211         1340.61         1334.56 
       0.141259         1262.09         1235.11 
       0.147318         1163.07         1122.55 
       0.153489         1046.98         1009.66 
       0.159709         965.565         911.669 
       0.165845         908.565         838.144 
       0.171974           851.6         788.026 
       0.178125         816.202         755.802 
       0.184229         789.419         733.307 
        0.19034         745.269         711.531 
       0.196428         730.779         684.198 
       0.202534         703.613         648.709 
       0.208729         660.349         606.177 
       0.214876         617.535         561.962 
       0.220989         588.554         520.967 
       0.227147         553.444         486.361 
        0.23329         528.356          459.98 
       0.239377          515.02         441.086 
       0.245482         482.918          427.04 
       0.251667         478.781         414.815 
       0.257832          462.93         401.899 
       0.263955         446.441          386.71 
       0.270079         428.027         368.988 
        0.27624         419.156         349.584 
       0.282372         400.684         330.327 
        0.28843         385.942         312.896 
       0.294538          366.94           297.9 
       0.300721         362.692         285.652 
        0.30691         346.042         275.831 
       0.313033         338.423         267.655 
       0.319153         326.075         259.958 
       0.325316         317.919         251.901 
        0.33145         307.193         243.119 
       0.337538         302.081         233.744 
       0.343633         291.321         224.051 
       0.349808         281.269         214.492 
       0.355968         276.639         205.711 
       0.362074         269.631         198.018 
       0.368217         262.041         191.358 
       0.374374         252.449         185.531 
       0.380519         248.909         180.269 
       0.386598         242.351         175.259 
       0.392688         239.149          170.17 
        0.39888         232.712         164.844 
       0.405048         226.898         159.384 
       0.411186         221.856         153.957 
       0.417313         217.241         148.733 
       0.423458         212.459         143.821 
       0.429607         207.665         139.322 
       0.435692         201.475         135.298 
       0.441815         199.775         131.574 
       0.447964         195.861         128.061 
       0.454126          187.91         124.667 
       0.460267         185.622         121.319 
       0.466387         183.186         117.966 
        0.47254         178.995         114.613 
       0.478662         177.788         111.339 
       0.484765         172.081         108.181 
       0.490885         169.501         105.163 
       0.497035         167.026          102.32 
       0.503198         162.702         99.6583 
       0.509342         160.408         97.1503 
       0.515458         158.105         94.7616 
       0.521598          155.36         92.4421 
       0.527764         153.142         90.1693 
       0.533884         150.825         87.9494 
           0.54         148.212         85.7616 
       0.546137          146.98         83.6161 
       0.552299         144.233         81.5334 
       0.558452         141.886         79.5427 
       0.564573         139.467         77.6493 
       0.570708         136.981         75.8314 
       0.576825         135.285         74.0914 
       0.582926         132.807         72.4208 
       0.589034         130.997          70.803 
       0.595184         129.327         69.2198 
       0.601379         127.728         67.6627 
       0.607522         124.951         66.1506 
       0.613639         124.366         64.6812 
       0.619772          121.67           63.25 
       0.625918          120.29         61.8633 
       0.632068         118.902          60.527 
       0.638161         117.747         59.2509 
         0.6443         116.132         58.0078 
       0.650464         114.835         56.7978 
       0.656582         113.145         55.6296 
       0.662703         111.534         54.4903 
       0.668861         109.911         53.3735 
       0.675024         108.653         52.2853 
       0.681124         107.761         51.2378 
       0.687237         105.752         50.2174 
       0.693381         104.355         49.2214 
       0.699536          103.47          48.252 
       0.705665         103.507         47.3139 
       0.711789         100.918         46.4021 
       0.717957         100.496         45.5083 
        0.72409           98.94         44.6429 
       0.730186         97.3485          43.805 
       0.736317         96.9389         42.9839 
       0.742472         96.0658         42.1807 
       0.748622         95.0275         41.3988 
        0.75476         94.0687         40.6387 
       0.760888         92.7184          39.899 
       0.767043         92.0717         39.1752 
       0.773185         90.9926         38.4712 
       0.779291         89.9078         37.7887 
       0.785407         89.2986         37.1221 
       0.791564         88.4051         36.4675 
       0.797719         86.9341          35.829 
       0.803834         86.5348         35.2099 
       0.809972         85.2393         34.6032 
       0.816124         84.8617         34.0093 
       0.822261         84.0775          33.431 
       0.828378         83.3334         32.8679 
       0.834502         82.6878         32.3173 
       0.840667         81.6732         31.7758 
       0.846816         80.6701         31.2483 
       0.852925         80.1049         30.7362 
       0.859047         79.0549         30.2346 
       0.865192         78.6228         29.7427 
       0.871341         78.0267         29.2616 
       0.877463         76.9325         28.7933 
       0.883569         76.4797         28.3366 
       0.889708           75.92         27.8876 
       0.895864         75.2887         27.4472 
       0.902008         74.5877         27.0173 
       0.908149         74.1005         26.5969 
       0.914301         73.3374         26.1848 
       0.920448         72.8069         25.7819 
       0.926574         72.1283         25.3888 
       0.932687          71.933         25.0049 
       0.938823         70.7535         24.6275 
       0.944975         70.2273         24.2572 
       0.951105         69.7156         23.8957 
       0.957225         68.8947         23.5423 
       0.963368          68.652         23.1949 
       0.969511         68.2859         22.8545 
       0.975621         67.8655         22.5228 
       0.981748         67.1445         22.1968 
       0.987916         66.5564         21.8753 
        0.99406         66.1402         21.5614 
        1.00019         65.5208         21.2542 
        1.00632         65.1286         20.9534 
        1.01246         64.6083         20.6579 
        1.01859         63.7507         20.3687 
        1.02471          63.779         20.0854 
        1.03085         63.1148         19.8065 
        1.03698         62.7066         19.5335 
        1.04314         62.1152         19.2645 
        1.04929         61.6977         19.0012 
        1.05541         61.1012         18.7439 
        1.06154         61.0304         18.4908 
        1.06769         60.5174          18.242 
        1.07382         60.2282         17.9986 
        1.07993         59.8172         17.7602 
        1.08607         59.2976         17.5252 
        1.09222         58.9833         17.2942 
        1.09836          58.517         17.0676 
        1.10449          58.162         16.8454 
        1.11063         57.6344         16.6269 
        1.11677         57.3165         16.4124 
         1.1229         56.8297         16.2021 
        1.12903         56.1475         15.9953 
        1.13518         56.3993         15.7919 
        1.14131         55.9668         15.5922 
        1.14745         55.2642          15.396 
        1.15359         55.1338         15.2033 
        1.15973         54.5976         15.0137 
        1.16584         54.2916         14.8283 
        1.17197         53.9599         14.6457 
        1.17811         53.7105         14.4656 
        1.18424         53.1979         14.2891 
        1.19038         52.8897         14.1151 
        1.19652         52.7288          13.944 
        1.20267         52.2201         13.7757 
        1.20881         51.9722         13.6103 
        1.21495         51.5243         13.4478 
        1.22108         51.3109         13.2881 
         1.2272         50.7723         13.1313 
        1.23334         50.5848         12.9767 
        1.23949         50.4876         12.8242 
        1.24562         49.9911         12.6746 
        1.25174         49.8084         12.5276 
        1.25789         49.5741         12.3825 
        1.26402         49.1735         12.2399 
        1.27014         48.7025            12.1 
        1.27628         48.5373         11.9618 
        1.28244         48.1921         11.8256 
        1.28858         47.9921         11.6916 
        1.29471         47.8165           11.56 
        1.30084          47.516         11.4306 
        1.30697         47.1675         11.3029 
        1.31312         46.8255         11.1771 
        1.31925         46.6911         11.0535 
        1.32537         46.4702          10.932 
        1.33151         45.9788         10.8118 
        1.33765         45.8848         10.6935 
        1.34378         45.5859         10.5772 
        1.34992         45.2887         10.4626 
        1.35606         45.0364         10.3495 
         1.3622         44.7342         10.2382 
        1.36833         44.5157         10.1288 
        1.37445         44.3706         10.0211 
        1.38059         44.0477         9.91459 
        1.38675         43.7528          9.8094 
        1.39288         43.6126         9.70616 
        1.39901         43.3501         9.60445 
        1.40515         43.0894         9.50398 
         1.4113         42.9359         9.40498 
        1.41742         42.6851         9.30777 
        1.42355         42.3796         9.21176 
         1.4297         42.2076         9.11681 
        1.43585         42.0168         9.02324 
        1.44198         41.6988         8.93134 
        1.44809         41.5797          8.8409 
        1.45423         41.3557         8.75138 
        1.46036         41.1778         8.66326 
        1.46649         40.9179         8.57633 
        1.47263         40.6507         8.49052 
        1.47877         40.5118         8.40592 
        1.48491         40.4566         8.32234 
        1.49104         40.0833         8.24007 
        1.49718         39.6779         8.15886 
        1.50333         39.6597         8.07861 
        1.50947         39.5043         7.99961 
         1.5156         39.2192         7.92178 
        1.52172         39.0685         7.84498 
        1.52787          38.996         7.76905 
          1.534         38.7046         7.69422 
        1.54013         38.4694         7.62045 
        1.54627         38.3516         7.54752 
        1.55241         38.0269         7.47554 
        1.55855          37.899         7.40459 
        1.56467          37.547         7.33476 
         1.5708         37.6122         7.26564 
        1.57695         37.3217          7.1973 
        1.58308         37.1511            7.13 
        1.58922         37.1199         7.06352 
        1.59535         36.8976          6.9979 
         1.6015         36.5705         6.93304 
        1.60764         36.4001         6.86902 
        1.61376         36.2505         6.80599 
        1.61989         36.0052          6.7437 
        1.62604         35.9269         6.68205 
        1.63218         35.8211         6.62121 
        1.63831         35.5877         6.56127 
        1.64444         35.4093         6.50205 
        1.65059         35.1753         6.44342 
        1.65673         34.9975         6.38558 
        1.66285         34.8502         6.32861 
        1.66898         34.6679         6.27232 
        1.67512         34.5262          6.2166 
        1.68127         34.3111         6.16151 
         1.6874         34.2054         6.10721 
        1.69353         34.0075          6.0536 
        1.69967         33.8472         6.00051 
        1.70581         33.7892         5.94807 
        1.71193         33.6086         5.89646 
        1.71806         33.3208         5.84535 
        1.72421         33.1922         5.79475 
        1.73035         33.0316          5.7448 
        1.73649         32.8203         5.69545 
        1.74262         32.7447         5.64672 
        1.74876         32.6935         5.59852 
        1.75489         32.4726         5.55099 
        1.76101         32.2923         5.50403 
        1.76715         32.1807         5.45754 
        1.77329         32.0343         5.41154 
        1.77943         31.9065         5.36604 
        1.78557          31.696         5.32114 
        1.79171         31.5468         5.27674 
        1.79785         31.4016         5.23284 
        1.80399         31.3272         5.18945 
        1.81012         31.1592          5.1466 
        1.81625         30.9642         5.10427 
        1.82239         30.8772         5.06234 
        1.82853         30.6624         5.02091 
        1.83466          30.588         4.97997 
        1.84078         30.3303         4.93954 
        1.84692          30.256         4.89949 
        1.85306         30.0965         4.85984 
         1.8592         29.9634         4.82069 
        1.86533         29.8314         4.78199 
        1.87147         29.7414         4.74367 
        1.87761         29.6322         4.70575 
        1.88375         29.4775          4.6683 
        1.88988         29.3853         4.63129 
        1.89601         29.1931         4.59466 
        1.90215          29.095          4.5584 
        1.90829         29.0305         4.52255 
        1.91442         28.8311         4.48708 
        1.92056           28.75         4.45202 
         1.9267          28.545          4.4173 
        1.93284         28.3842         4.38293 
        1.93897         28.3499         4.34899 
        1.94509         28.1685         4.31549 
        1.95123         28.0831         4.28225 
        1.95737         27.8905         4.24934 
        1.96349         27.8141         4.21686 
        1.96964         27.6896         4.18462 
        1.97578         27.5714         4.15271 
        1.98192         27.4332         4.12119 
        1.98805         27.3454            4.09 
        1.99419         27.1886         4.05913 
        2.00033          27.059         4.02856 
        2.00647         26.9598         3.99832 
         2.0126         26.8384         3.96843 
        2.01874         26.7545         3.93881 
        2.02488         26.6622         3.90946 
        2.03101         26.4853         3.88046 
        2.03714         26.3816         3.85179 
        2.04328         26.2508         3.82337 
        2.04941          26.163         3.79527 
        2.05554         26.0369         3.76746 
        2.06167         25.9441          3.7399 
        2.06781         25.8068         3.71261 
        2.07396         25.7379         3.68555 
        2.08009         25.6519         3.65881 
        2.08622         25.4709         3.63236 
        2.09237          25.368         3.60613 
        2.09851         25.2701         3.58014 
        2.10464         25.2054         3.55446 
        2.11077         25.0446         3.52906 
        2.11691         24.9644         3.50385 
        2.12305         24.8712         3.47889 
        2.12918         24.8053         3.45423 
        2.13531         24.6702          3.4298 
        2.14145         24.6294         3.40556 
         2.1476         24.4443         3.38152 
        2.15372         24.3295         3.35783 
        2.15985         24.2191         3.33435 
        2.16599         24.2015         3.31102 
        2.17213         24.0966         3.28794 
        2.17827         23.8973         3.26509 
         2.1844         23.8071         3.24247 
        2.19054         23.7263         3.22006 
        2.19666          23.641          3.1979 
         2.2028         23.5422         3.17592 
        2.20893         23.4698         3.15414 
        2.21508          23.369         3.13254 
        2.22122         23.1915         3.11113 
        2.22736         23.1872         3.08997 
        2.23349         23.0584         3.06901 
        2.23962         22.9512         3.04823 
        2.24577         22.8431         3.02763 
         2.2519         22.7946         3.00725 
        2.25802         22.6432         2.98708 
        2.26417         22.6227         2.96705 
        2.27031         22.5146         2.94717 
        2.27644         22.3815         2.92754 
        2.28257         22.2941         2.90809 
        2.28872         22.1903         2.88878 
        2.29486         22.1638         2.86965 
        2.30099         22.0337         2.85073 
        2.30712         21.9632         2.83197 
        2.31326         21.9161         2.81335 
         2.3194         21.7916         2.79491 
        2.32553         21.6698         2.77666 
        2.33166         21.5729         2.75858 
         2.3378         21.4934         2.74064 
        2.34394         21.4028         2.72286 
        2.35007         21.3187         2.70525 
        2.35619         21.2211         2.68783 
        2.36233         21.1912         2.67051 
        2.36848           21.04         2.65331 
        2.37462         20.9689          2.6363 
        2.38075         20.8989         2.61946 
        2.38689         20.8502         2.60275 
        2.39303         20.7189         2.58618 
        2.39916          20.616         2.56978 
        2.40529         20.5401         2.55352 
        2.41143         20.4597         2.53739 
        2.41757          20.403         2.52139 
         2.4237          20.283         2.50556 
        2.42983         20.2035         2.48987 
        2.43598         20.1633         2.47427 
        2.44211         20.0473         2.45883 
        2.44823         19.9638         2.44355 
        2.45437         19.8803         2.42836 
        2.46052         19.8218         2.41329 
        2.46665         19.7706         2.39838 
        2.47279         19.6438         2.38359 
        2.47892         19.5847         2.36892 
        2.48507         19.4998         2.35436 
         2.4912         19.4683         2.33994 
