# k  (h/Mpc)    P(k)  (Mpc/h)^3    P_linear(k)  (Mpc/h)^3
     0.00783031         498.821         504.696 
       0.013688         558.227         560.289 
       0.019231          509.86         509.883 
      0.0249154         417.249         418.083 
      0.0312784          315.58          314.53 
      0.0375637         237.642         236.249 
      0.0433917         190.299         189.549 
      0.0492413         163.804         163.101 
      0.0555754         149.086          149.13 
      0.0619321         141.993         141.491 
       0.067871         133.409         133.658 
      0.0738098         121.662         121.904 
      0.0800417         105.266         105.508 
      0.0862327         88.0223          87.875 
      0.0921407         73.1528         72.8523 
      0.0982031         61.4493         61.2447 
       0.104506         54.2119          53.742 
       0.110769         50.4504         50.1073 
       0.116806         48.9228         48.8162 
       0.122832         48.3058         48.1498 
       0.129052         46.6908         46.7322 
       0.135211         43.8247         43.8644 
       0.141259          39.858         39.7367 
       0.147318         35.2535         35.0109 
       0.153489         30.6995         30.4817 
       0.159709         27.1224          26.878 
       0.165845         24.8568         24.5176 
       0.171974         23.4058         23.2276 
       0.178125          22.851         22.6517 
       0.184229          22.525         22.3413 
        0.19034         21.9313          21.875 
       0.196428         21.1238         20.9999 
       0.202534         19.9108         19.6779 
       0.208729         18.2304         18.0497 
       0.214876         16.5636         16.4099 
       0.220989         15.2131         14.9877 
       0.227147         14.0704         13.8994 
        0.23329         13.3388         13.1739 
       0.239377           12.91          12.733 
       0.245482         12.5493         12.4412 
       0.251667         12.3292           12.16 
       0.257832         11.9213         11.7862 
       0.263955         11.4353         11.2806 
       0.270079         10.8199         10.6628 
        0.27624         10.1928         9.99325 
       0.282372         9.57152         9.35801 
        0.28843         8.99591         8.81754 
       0.294538         8.56543         8.38858 
       0.300721          8.2723         8.06469 
        0.30691         7.98444         7.81977 
       0.313033         7.76932         7.61188 
       0.319153         7.50543         7.39907 
       0.325316         7.32857          7.1535 
        0.33145         7.03628         6.87327 
       0.337538         6.73381         6.57066 
       0.343633         6.40922         6.26548 
       0.349808         6.14031         5.97509 
       0.355968         5.88985         5.72119 
       0.362074          5.6659         5.50835 
       0.368217         5.48615         5.32972 
       0.374374         5.31053          5.1744 
       0.380519         5.17832         5.02916 
       0.386598         5.04035         4.88503 
       0.392688         4.90098         4.73294 
        0.39888         4.72537         4.57068 
       0.405048         4.56339          4.4061 
       0.411186          4.4054         4.24522 
       0.417313         4.24442         4.09427 
       0.423458         4.11446         3.95682 
       0.429607         3.97917         3.83297 
       0.435692         3.86499         3.72276 
       0.441815         3.76076         3.62051 
       0.447964         3.67438         3.52198 
       0.454126         3.55938         3.42424 
       0.460267          3.4655         3.32688 
       0.466387         3.35696         3.22939 
        0.47254         3.26581         3.13212 
       0.478662         3.17981         3.03841 
       0.484765         3.07678         2.94985 
       0.490885         2.99707         2.86641 
       0.497035         2.93703         2.78793 
       0.503198          2.8495         2.71445 
       0.509342         2.78158         2.64508 
       0.515458         2.70976         2.57845 
       0.521598         2.64403         2.51282 
       0.527764         2.56844         2.44801 
       0.533884         2.52093         2.38501 
           0.54         2.45265         2.32357 
       0.546137         2.39382         2.26372 
       0.552299         2.33601         2.20587 
       0.558452         2.27134         2.15073 
       0.564573         2.22488         2.09861 
       0.570708         2.17203         2.04873 
       0.576825          2.1184         2.00086 
       0.582926         2.07691         1.95455 
       0.589034         2.01842         1.90935 
       0.595184         1.97768         1.86503 
       0.601379         1.93199         1.82161 
       0.607522         1.89674         1.77978 
       0.613639         1.85993         1.73936 
       0.619772         1.80824         1.70009 
       0.625918         1.77653         1.66203 
       0.632068         1.74337         1.62525 
       0.638161          1.7007         1.59011 
         0.6443         1.66539         1.55589 
       0.650464         1.62626         1.52263 
       0.656582         1.60033         1.49058 
       0.662703         1.56704         1.45937 
       0.668861         1.54054         1.42876 
       0.675024         1.50561         1.39892 
       0.681124         1.47258         1.37018 
       0.687237           1.448         1.34218 
       0.693381         1.42003         1.31488 
       0.699536         1.38414         1.28835 
       0.705665         1.36027         1.26273 
       0.711789         1.33736         1.23788 
       0.717957         1.30909         1.21355 
        0.72409         1.28526         1.19002 
       0.730186          1.2604         1.16725 
       0.736317         1.24553         1.14492 
       0.742472         1.22148         1.12308 
       0.748622         1.19552          1.1018 
        0.75476         1.17229         1.08112 
       0.760888         1.15071           1.061 
       0.767043         1.13677         1.04132 
       0.773185         1.11159         1.02219 
       0.779291         1.09443         1.00366 
       0.785407         1.07467        0.985584 
       0.791564         1.05861        0.967846 
       0.797719         1.04185        0.950561 
       0.803834         1.02549        0.933814 
       0.809972         1.00692        0.917413 
       0.816124        0.988083        0.901372 
       0.822261        0.969086        0.885756 
       0.828378        0.955648        0.870557 
       0.834502        0.943562        0.855702 
       0.840667          0.9226        0.841097 
       0.846816        0.908375        0.826875 
       0.852925        0.898703        0.813073 
       0.859047        0.883584        0.799557 
       0.865192        0.867526        0.786307 
       0.871341        0.855175        0.773349 
       0.877463         0.84381        0.760744 
       0.883569        0.828124        0.748454 
       0.889708        0.816084        0.736374 
       0.895864         0.80267        0.724531 
       0.902008        0.789807        0.712975 
       0.908149        0.779416         0.70168 
       0.914301        0.763814        0.690613 
       0.920448        0.753516        0.679796 
       0.926574         0.74231         0.66925 
       0.932687        0.730833        0.658951 
       0.938823         0.72337        0.648833 
       0.944975        0.712538        0.638905 
       0.951105         0.70271        0.629222 
       0.957225         0.69476        0.619758 
       0.963368        0.683611        0.610457 
       0.969511         0.67257        0.601348 
       0.975621        0.662118        0.592475 
       0.981748        0.655564        0.583759 
       0.987916        0.644818        0.575165 
        0.99406        0.635106        0.566777 
        1.00019        0.628905        0.558573 
        1.00632        0.617649        0.550541 
        1.01246        0.609694        0.542655 
        1.01859        0.602449        0.534937 
        1.02471         0.59365        0.527379 
        1.03085        0.587557        0.519943 
        1.03698         0.57805        0.512666 
        1.04314        0.571349        0.505498 
        1.04929        0.562962        0.498484 
        1.05541        0.556996        0.491632 
        1.06154        0.548351        0.484893 
        1.06769        0.541476         0.47827 
        1.07382        0.534385        0.471793 
        1.07993        0.526649        0.465451 
        1.08607        0.522611        0.459199 
        1.09222        0.514337        0.453057 
        1.09836        0.509841        0.447035 
        1.10449        0.503467         0.44113 
        1.11063        0.494828        0.435325 
        1.11677        0.488434        0.429627 
         1.1229        0.483488        0.424041 
        1.12903         0.47735         0.41855 
        1.13518        0.472057        0.413152 
        1.14131        0.465526        0.407853 
        1.14745        0.457517         0.40265 
        1.15359        0.454033        0.397537 
        1.15973         0.44727        0.392511 
        1.16584        0.444409        0.387594 
        1.17197        0.438543        0.382755 
        1.17811        0.434155        0.377985 
        1.18424        0.429616        0.373309 
        1.19038        0.423112          0.3687 
        1.19652        0.417491        0.364171 
        1.20267        0.414584        0.359717 
        1.20881        0.408781         0.35534 
        1.21495        0.405095        0.351043 
        1.22108        0.399981        0.346817 
         1.2272        0.396454        0.342672 
        1.23334        0.390987        0.338585 
        1.23949        0.386848        0.334555 
        1.24562        0.382759        0.330602 
        1.25174        0.378943        0.326719 
        1.25789        0.375002        0.322887 
        1.26402        0.369631        0.319124 
        1.27014         0.36568         0.31543 
        1.27628        0.363253        0.311783 
        1.28244        0.357426        0.308187 
        1.28858        0.354286        0.304653 
        1.29471        0.351228        0.301183 
        1.30084        0.346587         0.29777 
        1.30697        0.342776        0.294404 
        1.31312        0.338133        0.291086 
        1.31925        0.335475        0.287829 
        1.32537        0.332418        0.284626 
        1.33151        0.329693         0.28146 
        1.33765        0.325784        0.278344 
        1.34378        0.321399        0.275281 
        1.34992        0.318815        0.272263 
        1.35606        0.315314        0.269283 
         1.3622        0.312302        0.266354 
        1.36833        0.308866        0.263475 
        1.37445        0.304875         0.26064 
        1.38059        0.302281        0.257838 
        1.38675        0.300804        0.255071 
        1.39288        0.296977        0.252356 
        1.39901        0.294085        0.249682 
        1.40515        0.291382         0.24704 
         1.4113        0.287788        0.244438 
        1.41742        0.285118        0.241883 
        1.42355        0.283594         0.23936 
         1.4297        0.279599        0.236865 
        1.43585        0.276945        0.234407 
        1.44198        0.275496        0.231994 
        1.44809        0.271894        0.229619 
        1.45423        0.269437        0.227269 
        1.46036        0.266941        0.224956 
        1.46649        0.264686        0.222674 
        1.47263        0.261874        0.220422 
        1.47877         0.25917        0.218203 
        1.48491        0.257004         0.21601 
        1.49104        0.253957        0.213853 
        1.49718        0.251899        0.211723 
        1.50333        0.249834        0.209619 
        1.50947        0.247421        0.207548 
         1.5156        0.244939        0.205508 
        1.52172        0.242861        0.203495 
        1.52787        0.240492        0.201506 
          1.534        0.238295        0.199545 
        1.54013        0.235895        0.197613 
        1.54627        0.234134        0.195702 
        1.55241        0.231749        0.193817 
        1.55855         0.22959        0.191959 
        1.56467        0.228468        0.190131 
         1.5708        0.225671        0.188322 
        1.57695        0.224081        0.186533 
        1.58308        0.221937        0.184772 
        1.58922        0.220092        0.183032 
        1.59535        0.218001        0.181315 
         1.6015         0.21598        0.179618 
        1.60764        0.214397        0.177944 
        1.61376        0.212055        0.176296 
        1.61989        0.210639        0.174667 
        1.62604        0.208697        0.173055 
        1.63218        0.207217        0.171464 
        1.63831        0.205457        0.169897 
        1.64444        0.203581        0.168349 
        1.65059        0.201869        0.166817 
        1.65673        0.200061        0.165306 
        1.66285        0.198725        0.163817 
        1.66898        0.197231        0.162347 
        1.67512        0.194879        0.160891 
        1.68127        0.193291        0.159452 
         1.6874        0.192396        0.158034 
        1.69353        0.190321        0.156634 
        1.69967        0.188898        0.155248 
        1.70581        0.187178        0.153879 
        1.71193        0.185813        0.152532 
        1.71806        0.184133        0.151198 
        1.72421         0.18278        0.149878 
        1.73035        0.181028        0.148575 
        1.73649        0.179984        0.147287 
        1.74262        0.178374        0.146016 
        1.74876        0.176782        0.144759 
        1.75489        0.175602        0.143519 
        1.76101        0.174048        0.142295 
        1.76715        0.172654        0.141083 
        1.77329        0.171311        0.139883 
        1.77943        0.169678        0.138697 
        1.78557        0.168731        0.137527 
        1.79171        0.167502         0.13637 
        1.79785        0.166054        0.135226 
        1.80399        0.164818        0.134095 
        1.81012        0.163598        0.132979 
        1.81625        0.162283        0.131876 
        1.82239        0.161219        0.130784 
        1.82853        0.159554        0.129704 
        1.83466        0.158489        0.128638 
        1.84078        0.157217        0.127586 
        1.84692        0.155989        0.126543 
        1.85306        0.155261        0.125511 
         1.8592        0.153701        0.124491 
        1.86533        0.152939        0.123484 
        1.87147        0.151594        0.122487 
        1.87761         0.15056          0.1215 
        1.88375        0.149203        0.120525 
        1.88988        0.148289        0.119562 
        1.89601        0.146935        0.118609 
        1.90215         0.14616        0.117666 
        1.90829        0.144797        0.116733 
        1.91442        0.144019        0.115811 
        1.92056        0.142871        0.114899 
         1.9267        0.141762        0.113996 
        1.93284        0.140684        0.113102 
        1.93897        0.139593         0.11222 
        1.94509        0.138974        0.111349 
        1.95123        0.137745        0.110485 
        1.95737        0.136934        0.109629 
        1.96349        0.135708        0.108785 
        1.96964        0.134836        0.107947 
        1.97578        0.133787        0.107118 
        1.98192        0.132926        0.106299 
        1.98805        0.132219        0.105488 
        1.99419        0.131097        0.104686 
        2.00033         0.13012        0.103892 
        2.00647        0.129542        0.103107 
         2.0126        0.128293        0.102331 
        2.01874        0.127568        0.101561 
        2.02488        0.126729        0.100799 
        2.03101        0.125765        0.100046 
        2.03714        0.124718       0.0993015 
        2.04328        0.124192       0.0985638 
        2.04941        0.123177       0.0978341 
        2.05554        0.122433       0.0971123 
        2.06167        0.121732       0.0963968 
        2.06781        0.120465       0.0956885 
        2.07396        0.119846       0.0949863 
        2.08009        0.119084       0.0942923 
        2.08622        0.118351        0.093606 
        2.09237        0.117656       0.0929253 
        2.09851        0.116775       0.0922512 
        2.10464        0.115955       0.0915849 
        2.11077        0.115316        0.090926 
        2.11691        0.114443       0.0902721 
        2.12305        0.113696       0.0896247 
        2.12918         0.11309       0.0889851 
        2.13531        0.112117       0.0883518 
        2.14145        0.111469       0.0877231 
         2.1476         0.11083       0.0870998 
        2.15372         0.11028       0.0864858 
        2.15985        0.109292        0.085877 
        2.16599         0.10849       0.0852723 
        2.17213        0.108032       0.0846741 
        2.17827        0.107247       0.0840818 
         2.1844        0.106762       0.0834957 
        2.19054         0.10584        0.082915 
        2.19666         0.10501       0.0823406 
         2.2028        0.104704       0.0817711 
        2.20893        0.104092       0.0812068 
        2.21508        0.103146       0.0806472 
        2.22122        0.102335       0.0800926 
        2.22736        0.102058       0.0795444 
        2.23349        0.101228       0.0790015 
        2.23962        0.100874       0.0784634 
        2.24577       0.0999892       0.0779298 
         2.2519       0.0995437       0.0774019 
        2.25802       0.0987648       0.0768798 
        2.26417       0.0982376        0.076361 
        2.27031       0.0976205       0.0758465 
        2.27644       0.0970439       0.0753383 
        2.28257        0.096454       0.0748347 
        2.28872       0.0958115       0.0743348 
        2.29486       0.0953464       0.0738396 
        2.30099       0.0946354       0.0733499 
        2.30712       0.0941243       0.0728644 
        2.31326       0.0934503       0.0723825 
         2.3194        0.093321       0.0719053 
        2.32553       0.0926484       0.0714331 
        2.33166       0.0921627       0.0709654 
         2.3378       0.0915247       0.0705012 
        2.34394       0.0907387        0.070041 
        2.35007       0.0902747       0.0695856 
        2.35619       0.0897386       0.0691348 
        2.36233       0.0891444       0.0686869 
        2.36848       0.0887896        0.068242 
        2.37462       0.0881427        0.067802 
        2.38075       0.0878431       0.0673664 
        2.38689       0.0871819       0.0669342 
        2.39303       0.0869151       0.0665058 
        2.39916        0.086058       0.0660817 
        2.40529       0.0857067       0.0656613 
        2.41143       0.0852587       0.0652442 
        2.41757        0.084751       0.0648306 
         2.4237       0.0843665       0.0644213 
        2.42983        0.083774       0.0640156 
        2.43598       0.0834877       0.0636123 
        2.44211       0.0829083       0.0632132 
        2.44823       0.0825038       0.0628184 
        2.45437       0.0818533       0.0624259 
        2.46052       0.0815043       0.0620364 
        2.46665       0.0809263       0.0616509 
        2.47279       0.0805921       0.0612688 
        2.47892       0.0800441       0.0608897 
        2.48507       0.0795368       0.0605134 
         2.4912       0.0792135       0.0601411 
