# k  (h/Mpc)    Pcb(k)  (Mpc/h)^3    Pcb_linear(k)  (Mpc/h)^3
     0.00783031         13049.8           13108 
       0.013688         16519.9         16952.5 
       0.019231           17475         17753.5 
      0.0249154         16906.9         16924.8 
      0.0312784         14932.8         15143.5 
      0.0375637         13007.3         13307.3 
      0.0433917         11757.6           11900 
      0.0492413         10613.6         10851.1 
      0.0555754         9870.59         10037.9 
      0.0619321         8940.55         9389.72 
       0.067871         8487.86         8793.69 
      0.0738098         7914.78         8132.13 
      0.0800417         7191.64         7367.93 
      0.0862327         6428.36         6598.57 
      0.0921407         5816.94         5928.04 
      0.0982031         5339.69         5358.95 
       0.104506         4831.44         4913.91 
       0.110769         4536.73         4599.69 
       0.116806         4380.76         4374.52 
       0.122832         4131.82         4177.65 
       0.129052         3913.17         3963.26 
       0.135211         3766.85         3720.45 
       0.141259         3472.16          3456.9 
       0.147318         3197.49         3188.12 
       0.153489         3010.31          2934.5 
       0.159709         2890.71         2718.72 
       0.165845         2655.73         2551.89 
       0.171974         2601.64         2425.69 
       0.178125         2530.72         2326.18 
       0.184229         2344.72         2238.23 
        0.19034         2310.26         2147.54 
       0.196428          2240.8         2047.52 
       0.202534          2102.8         1937.77 
       0.208729         2054.77         1822.88 
       0.214876         1963.66         1713.72 
       0.220989         1865.44         1616.95 
       0.227147         1819.42         1534.93 
        0.23329         1752.85         1468.06 
       0.239377          1744.1         1412.99 
       0.245482         1666.25         1363.83 
       0.251667         1606.26          1315.3 
       0.257832         1583.46         1265.01 
       0.263955         1512.48         1212.33 
       0.270079         1474.01         1158.15 
        0.27624         1412.87         1104.66 
       0.282372         1396.55         1054.88 
        0.28843         1374.07         1010.79 
       0.294538         1312.95         971.844 
       0.300721         1288.57         937.356 
        0.30691         1259.76         906.251 
       0.313033          1213.6         877.173 
       0.319153          1201.4          848.45 
       0.325316         1186.45         819.217 
        0.33145         1162.22         789.854 
       0.337538         1125.18          761.04 
       0.343633         1099.33         733.264 
       0.349808         1079.51         706.949 
       0.355968         1058.91         682.817 
       0.362074         1028.32         661.006 
       0.368217         1025.53         640.777 
       0.374374         1010.55         621.714 
       0.380519         976.061         603.403 
       0.386598          971.29         585.604 
       0.392688         948.724         568.004 
        0.39888          928.29         550.386 
       0.405048         912.197         533.312 
       0.411186         909.374         517.044 
       0.417313         906.168         501.667 
       0.423458         877.991         487.158 
       0.429607         854.855         473.523 
       0.435692         848.446         460.742 
       0.441815         832.955         448.414 
       0.447964         823.337         436.446 
       0.454126          812.81         424.763 
       0.460267          802.71         413.382 
       0.466387         790.475         402.341 
        0.47254         776.964         391.607 
       0.478662         767.242         381.332 
       0.484765         759.862         371.517 
       0.490885         751.668         362.119 
       0.497035         738.682         353.096 
       0.503198         737.846         344.413 
       0.509342         724.294         336.053 
       0.515458         710.319         327.989 
       0.521598         707.722          320.13 
       0.527764         692.316         312.457 
       0.533884         686.936         305.057 
           0.54         681.182         297.892 
       0.546137         671.551         290.946 
       0.552299          668.19         284.226 
       0.558452         660.578         277.758 
       0.564573         655.068         271.542 
       0.570708         649.313         265.513 
       0.576825         636.218          259.69 
       0.582926          634.64         254.056 
       0.589034         626.274         248.578 
       0.595184         620.421         243.216 
       0.601379         611.073         237.967 
       0.607522         602.295         232.913 
       0.613639         601.366          228.03 
       0.619772         597.732         223.285 
       0.625918         587.804         218.676 
       0.632068         584.847         214.205 
       0.638161         578.076         209.903 
         0.6443         572.315          205.69 
       0.650464         567.698         201.575 
       0.656582         563.429           197.6 
       0.662703         557.244         193.731 
       0.668861         551.289         189.943 
       0.675024         547.776         186.256 
       0.681124         539.177         182.706 
       0.687237         538.719         179.245 
       0.693381         530.232         175.861 
       0.699536         529.805         172.559 
       0.705665         523.449         169.358 
       0.711789         522.221         166.243 
       0.717957         514.938         163.185 
        0.72409         510.601         160.221 
       0.730186         510.768          157.35 
       0.736317         503.179         154.534 
       0.742472         497.716         151.778 
       0.748622         495.462         149.093 
        0.75476         490.842         146.479 
       0.760888         487.968         143.934 
       0.767043         485.309          141.44 
       0.773185         482.077         139.011 
       0.779291         476.228         136.653 
       0.785407          473.17         134.348 
       0.791564         470.213         132.083 
       0.797719         463.432         129.871 
       0.803834         465.408         127.724 
       0.809972         458.401         125.619 
       0.816124         454.746         123.558 
       0.822261         452.084         121.548 
       0.828378         449.905         119.591 
       0.834502          443.22         117.675 
       0.840667           443.2         115.789 
       0.846816         437.154         113.951 
       0.852925         437.472         112.165 
       0.859047         433.362         110.414 
       0.865192         431.052         108.695 
       0.871341         425.481         107.012 
       0.877463         423.898         105.373 
       0.883569          420.07         103.773 
       0.889708         416.179         102.199 
       0.895864         412.673         100.653 
       0.902008         411.733         99.1433 
       0.908149         408.166         97.6658 
       0.914301         406.682         96.2163 
       0.920448         402.567          94.798 
       0.926574         400.384         93.4136 
       0.932687         398.963         92.0602 
       0.938823         394.165         90.7291 
       0.944975         393.067         89.4215 
       0.951105         390.013         88.1447 
       0.957225         384.648         86.8953 
       0.963368         385.863         85.6662 
       0.969511         379.237         84.4611 
       0.975621         378.875         83.2859 
       0.981748         376.735         82.1304 
       0.987916         374.605         80.9897 
        0.99406          371.19         79.8753 
        1.00019         367.529         78.7843 
        1.00632         367.358         77.7148 
        1.01246         364.279         76.6639 
        1.01859         360.465         75.6343 
        1.02471         358.618         74.6251 
        1.03085         357.388         73.6311 
        1.03698         355.241         72.6574 
        1.04314         353.749         71.6974 
        1.04929         351.388         70.7572 
        1.05541         347.019         69.8379 
        1.06154         346.011         68.9328 
        1.06769         342.658         68.0426 
        1.07382         341.281         67.1713 
        1.07993         339.254         66.3173 
        1.08607         337.151         65.4749 
        1.09222         334.624         64.6464 
        1.09836         333.333         63.8334 
        1.10449         330.994         63.0355 
        1.11063         328.645         62.2505 
        1.11677         325.245         61.4793 
         1.1229         324.934         60.7227 
        1.12903         322.314         59.9783 
        1.13518         320.043         59.2459 
        1.14131         319.135         58.5263 
        1.14745         315.296         57.8192 
        1.15359         313.197         57.1238 
        1.15973         312.086         56.4396 
        1.16584          310.54         55.7698 
        1.17197          308.31         55.1101 
        1.17811         305.484         54.4591 
        1.18424         304.215         53.8206 
        1.19038         302.596         53.1906 
        1.19652         299.369          52.571 
        1.20267         298.988         51.9614 
        1.20881         297.007         51.3617 
        1.21495         295.274         50.7725 
        1.22108         293.493         50.1927 
         1.2272         289.761         49.6234 
        1.23334         289.144         49.0618 
        1.23949         287.639         48.5075 
        1.24562          286.17         47.9635 
        1.25174         284.107         47.4287 
        1.25789         281.808         46.9005 
        1.26402         281.414         46.3814 
        1.27014         279.985         45.8714 
        1.27628         277.169         45.3677 
        1.28244         275.813         44.8706 
        1.28858         274.421         44.3818 
        1.29471         272.954         43.9013 
        1.30084         271.794         43.4285 
        1.30697         268.868          42.962 
        1.31312         267.323         42.5018 
        1.31925         266.147         42.0498 
        1.32537         265.083          41.605 
        1.33151         262.867          41.165 
        1.33765         260.969         40.7317 
        1.34378         259.661         40.3056 
        1.34992         257.483         39.8853 
        1.35606         256.587         39.4701 
         1.3622         254.896         39.0617 
        1.36833         253.538         38.6601 
        1.37445         252.683         38.2644 
        1.38059          250.04         37.8731 
        1.38675          248.69         37.4864 
        1.39288         247.685         37.1066 
        1.39901         245.575         36.7324 
        1.40515         244.692         36.3625 
         1.4113         242.786         35.9979 
        1.41742         240.761         35.6397 
        1.42355         241.003         35.2858 
         1.4297         238.808         34.9356 
        1.43585          237.18         34.5904 
        1.44198         235.608         34.2512 
        1.44809         234.803         33.9173 
        1.45423         233.364         33.5866 
        1.46036          232.06         33.2609 
        1.46649         230.834         32.9394 
        1.47263         229.395          32.622 
        1.47877         227.798          32.309 
        1.48491         226.132         31.9996 
        1.49104         224.506         31.6949 
        1.49718         223.731          31.394 
        1.50333         221.817         31.0965 
        1.50947         221.103         30.8036 
         1.5156         219.732         30.5149 
        1.52172          218.43         30.2299 
        1.52787          216.94          29.948 
          1.534         216.501         29.6701 
        1.54013         214.746         29.3961 
        1.54627         213.648          29.125 
        1.55241         212.549         28.8574 
        1.55855         211.469         28.5935 
        1.56467         210.112         28.3336 
         1.5708         208.503         28.0763 
        1.57695         207.633         27.8218 
        1.58308         206.315         27.5711 
        1.58922         204.996         27.3234 
        1.59535         203.428         27.0788 
         1.6015         202.852         26.8369 
        1.60764          201.38          26.598 
        1.61376         199.815         26.3628 
        1.61989         198.694         26.1302 
        1.62604         197.685            25.9 
        1.63218         196.614         25.6727 
        1.63831         196.009         25.4487 
        1.64444         194.268         25.2272 
        1.65059         193.447         25.0079 
        1.65673         192.027         24.7915 
        1.66285         191.225         24.5783 
        1.66898         190.155         24.3675 
        1.67512         188.925         24.1588 
        1.68127         188.033         23.9524 
         1.6874         186.764         23.7488 
        1.69353          186.07         23.5478 
        1.69967          184.47         23.3486 
        1.70581         184.033         23.1518 
        1.71193          182.59         22.9581 
        1.71806         181.303         22.7662 
        1.72421         180.511         22.5761 
        1.73035         179.319         22.3884 
        1.73649         178.136         22.2029 
        1.74262         177.532         22.0197 
        1.74876         176.562         21.8384 
        1.75489         175.723         21.6596 
        1.76101         174.338         21.4828 
        1.76715         173.336         21.3078 
        1.77329         172.213         21.1345 
        1.77943         171.127         20.9631 
        1.78557         170.518         20.7939 
        1.79171          169.67         20.6265 
        1.79785         168.523         20.4609 
        1.80399         167.533         20.2972 
        1.81012          166.66         20.1355 
        1.81625         165.548         19.9757 
        1.82239          164.66         19.8174 
        1.82853         163.945         19.6609 
        1.83466         162.472         19.5062 
        1.84078         162.119         19.3534 
        1.84692         161.182          19.202 
        1.85306         159.936          19.052 
         1.8592         159.493         18.9039 
        1.86533         157.918         18.7575 
        1.87147         157.319         18.6124 
        1.87761         156.485         18.4688 
        1.88375         155.143          18.327 
        1.88988          154.75         18.1867 
        1.89601         154.354         18.0479 
        1.90215          153.41         17.9104 
        1.90829         151.939         17.7745 
        1.91442         151.284         17.6399 
        1.92056         150.316         17.5069 
         1.9267         149.657         17.3751 
        1.93284         148.615         17.2446 
        1.93897         147.912         17.1157 
        1.94509         146.974         16.9884 
        1.95123           146.3         16.8621 
        1.95737         145.671          16.737 
        1.96349         144.565         16.6135 
        1.96964         143.842         16.4908 
        1.97578         142.968         16.3694 
        1.98192          142.32         16.2495 
        1.98805         141.577         16.1307 
        1.99419         140.249         16.0131 
        2.00033         139.932         15.8967 
        2.00647         139.285         15.7814 
         2.0126         138.296         15.6675 
        2.01874         137.557         15.5546 
        2.02488         136.778         15.4427 
        2.03101         136.377         15.3321 
        2.03714         135.246         15.2227 
        2.04328         134.645         15.1142 
        2.04941         134.241         15.0069 
        2.05554         133.404         14.9007 
        2.06167         132.427         14.7954 
        2.06781         131.663         14.6911 
        2.07396         131.064         14.5877 
        2.08009         130.357         14.4855 
        2.08622         129.532         14.3844 
        2.09237         128.607          14.284 
        2.09851         128.277         14.1846 
        2.10464         127.462         14.0863 
        2.11077         126.803          13.989 
        2.11691         126.219         13.8925 
        2.12305         125.535         13.7969 
        2.12918         124.773         13.7024 
        2.13531         123.973         13.6088 
        2.14145         123.529         13.5159 
         2.1476         122.693         13.4237 
        2.15372         121.975         13.3328 
        2.15985         121.255         13.2428 
        2.16599         120.606         13.1532 
        2.17213         120.024         13.0647 
        2.17827         119.314         12.9769 
         2.1844         118.932         12.8901 
        2.19054         117.984          12.804 
        2.19666         117.274         12.7188 
         2.2028         116.845         12.6344 
        2.20893         116.372         12.5507 
        2.21508         115.363         12.4676 
        2.22122         114.886         12.3853 
        2.22736          114.51         12.3039 
        2.23349         113.851         12.2232 
        2.23962         113.086         12.1432 
        2.24577         112.536         12.0639 
         2.2519         111.774         11.9854 
        2.25802         111.373         11.9077 
        2.26417         110.623         11.8306 
        2.27031         109.982          11.754 
        2.27644         109.598         11.6783 
        2.28257         109.072         11.6033 
        2.28872         108.434         11.5288 
        2.29486         108.018          11.455 
        2.30099           107.1          11.382 
        2.30712         106.825         11.3096 
        2.31326         106.144         11.2378 
         2.3194         105.602         11.1665 
        2.32553         104.918         11.0961 
        2.33166         104.593         11.0262 
         2.3378         103.986         10.9569 
        2.34394          103.23         10.8882 
        2.35007         102.596         10.8201 
        2.35619         102.182         10.7527 
        2.36233         101.729         10.6858 
        2.36848         100.968         10.6193 
        2.37462         100.772         10.5534 
        2.38075         100.103         10.4882 
        2.38689         99.6124         10.4236 
        2.39303         99.1402         10.3594 
        2.39916         98.6058         10.2959 
        2.40529         98.1794         10.2329 
        2.41143         97.5553         10.1704 
        2.41757         96.8521         10.1084 
         2.4237         96.4299          10.047 
        2.42983         95.8565         9.98618 
        2.43598         95.5803         9.92568 
        2.44211         95.1193         9.86578 
        2.44823         94.4458         9.80651 
        2.45437         94.1209         9.74757 
        2.46052         93.4432         9.68906 
        2.46665         92.9923         9.63114 
        2.47279         92.6559         9.57372 
        2.47892         92.2065         9.51673 
        2.48507         91.8175         9.46016 
         2.4912         91.0301         9.40416 
