# k  (h/Mpc)    P(k)  (Mpc/h)^3    P_linear(k)  (Mpc/h)^3
     0.00783031           11978         12158.5 
       0.013688         14235.4         14137.1 
       0.019231         13675.5         13642.1 
      0.0249154         11866.7         12062.2 
      0.0312784         9929.82         9991.86 
      0.0375637         8250.36         8216.81 
      0.0433917         6933.66         6999.65 
      0.0492413         6165.78         6170.55 
      0.0555754         5473.98         5585.25 
      0.0619321         5199.25         5157.73 
       0.067871         4700.34         4778.17 
      0.0738098         4288.16         4354.53 
      0.0800417         3777.63         3860.55 
      0.0862327          3340.1         3364.31 
      0.0921407         2972.43         2938.38 
      0.0982031         2607.46         2586.94 
       0.104506         2413.42         2324.61 
       0.110769         2228.66         2152.66 
       0.116806         2099.05         2040.89 
       0.122832         2008.11         1949.38 
       0.129052         1866.96         1848.05 
       0.135211         1754.66         1726.56 
       0.141259         1651.05         1588.35 
       0.147318         1526.53         1443.61 
       0.153489         1380.92         1305.85 
       0.159709         1287.58         1189.62 
       0.165845         1221.79         1102.25 
       0.171974         1150.54         1039.65 
       0.178125         1098.77         994.077 
       0.184229         1055.04         956.512 
        0.19034         990.037         918.239 
       0.196428         966.557         874.531 
       0.202534         927.816         824.409 
       0.208729         873.552         770.033 
       0.214876         823.757         717.177 
       0.220989         789.243         669.899 
       0.227147         749.262         630.072 
        0.23329         716.795         598.389 
       0.239377         700.219         573.398 
       0.245482         653.511         552.222 
       0.251667         647.762          532.05 
       0.257832         622.898         511.241 
       0.263955         600.549         489.095 
       0.270079         575.767         465.759 
        0.27624         566.485         442.188 
       0.282372         542.731         419.911 
        0.28843         527.891         400.015 
       0.294538         501.016         382.539 
       0.300721         496.997         367.306 
        0.30691         474.212         353.963 
       0.313033         464.276         341.837 
       0.319153         449.266         330.115 
       0.325316         436.302         318.236 
        0.33145         422.633         306.258 
       0.337538           415.8         294.345 
       0.343633         402.025         282.732 
       0.349808         387.803           271.6 
       0.355968         383.379         261.357 
       0.362074          375.89         252.119 
       0.368217         365.168         243.642 
       0.374374         349.892         235.791 
       0.380519         346.988          228.36 
       0.386598         337.861         221.237 
       0.392688         334.657         214.228 
        0.39888         325.178           207.2 
       0.405048         317.593         200.367 
       0.411186         311.516         193.806 
       0.417313         305.322         187.566 
       0.423458          299.02          181.68 
       0.429607         293.283          176.15 
       0.435692         285.377         170.997 
       0.441815         282.744          166.08 
       0.447964         276.818         161.348 
       0.454126         268.134         156.755 
       0.460267         264.007         152.308 
       0.466387         260.733         148.001 
        0.47254         255.043         143.798 
       0.478662         254.207         139.766 
       0.484765         245.298         135.914 
       0.490885         242.442         132.224 
       0.497035         238.326          128.68 
       0.503198          233.57         125.284 
       0.509342          231.39         122.037 
       0.515458         228.128         118.921 
       0.521598         223.197         115.893 
       0.527764         220.083         112.944 
       0.533884         217.521         110.107 
           0.54         214.121         107.364 
       0.546137         212.876         104.703 
       0.552299         208.345         102.125 
       0.558452         206.539         99.6426 
       0.564573         203.345         97.2643 
       0.570708         199.067         94.9662 
       0.576825         196.327         92.7528 
       0.582926         193.644         90.6159 
       0.589034         191.693         88.5407 
       0.595184         189.583         86.5142 
       0.601379         187.052         84.5357 
       0.607522         183.735         82.6339 
       0.613639         182.481         80.7986 
       0.619772         178.647         79.0153 
       0.625918         177.268         77.2833 
       0.632068         174.767         75.6037 
       0.638161         173.684         73.9907 
         0.6443         170.992         72.4148 
       0.650464         169.244           70.88 
       0.656582         167.257         69.4009 
       0.662703         166.109         67.9634 
       0.668861         163.112         66.5577 
       0.675024         161.051         65.1902 
       0.681124         160.257         63.8746 
       0.687237         157.817         62.5929 
       0.693381         155.372         61.3407 
       0.699536         154.322         60.1214 
       0.705665         153.417         58.9412 
       0.711789         150.958         57.7943 
       0.717957         150.608         56.6705 
        0.72409          148.39          55.583 
       0.730186         146.425         54.5308 
       0.736317         144.952            53.5 
       0.742472         144.101          52.492 
       0.748622         142.737          51.511 
        0.75476         141.462         50.5573 
       0.760888         139.632         49.6292 
       0.767043         139.164          48.721 
       0.773185         137.699         47.8376 
       0.779291         135.159         46.9814 
       0.785407          134.69          46.145 
       0.791564         133.588          45.324 
       0.797719         131.303         44.5235 
       0.803834         130.719         43.7476 
       0.809972         129.699         42.9874 
       0.816124         129.172         42.2438 
       0.822261         127.755         41.5198 
       0.828378         126.522          40.815 
       0.834502         126.177         40.1261 
       0.840667          124.23         39.4487 
       0.846816         122.957         38.7889 
       0.852925         122.448         38.1484 
       0.859047         121.001         37.5211 
       0.865192         120.004         36.9059 
       0.871341         118.999         36.3041 
       0.877463         117.843         35.7186 
       0.883569         117.468         35.1475 
       0.889708         116.328          34.586 
       0.895864          115.07         34.0354 
       0.902008         114.349          33.498 
       0.908149         113.882         32.9725 
       0.914301          112.59         32.4575 
       0.920448         111.706         31.9541 
       0.926574         110.988         31.4631 
       0.932687         110.887         30.9835 
       0.938823         109.168         30.5123 
       0.944975         108.062         30.0498 
       0.951105         107.615         29.5986 
       0.957225         106.536         29.1575 
       0.963368         105.414         28.7239 
       0.969511         105.323         28.2991 
       0.975621         104.664         27.8853 
       0.981748         104.042         27.4787 
       0.987916         102.928         27.0777 
        0.99406         102.143         26.6863 
        1.00019         101.873         26.3034 
        1.00632         100.808         25.9284 
        1.01246         100.305         25.5602 
        1.01859           99.34         25.1997 
        1.02471          98.594         24.8467 
        1.03085         97.7279         24.4993 
        1.03698         97.4513         24.1592 
        1.04314         96.4579         23.8242 
        1.04929         95.9187         23.4964 
        1.05541         95.1977          23.176 
        1.06154          94.795         22.8609 
        1.06769         94.5165         22.5511 
        1.07382         93.7202         22.2482 
        1.07993         93.0061         21.9514 
        1.08607          92.315         21.6589 
        1.09222         92.0952         21.3715 
        1.09836         91.2476         21.0896 
        1.10449         90.6279         20.8131 
        1.11063          89.964         20.5413 
        1.11677         89.5978         20.2745 
         1.1229         88.7359         20.0129 
        1.12903         88.1498         19.7556 
        1.13518         88.1634         19.5027 
        1.14131         87.3917         19.2544 
        1.14745          86.761         19.0105 
        1.15359         86.2581         18.7708 
        1.15973         85.8891         18.5352 
        1.16584         85.0638         18.3046 
        1.17197          84.673         18.0777 
        1.17811         84.2025         17.8539 
        1.18424         83.6864         17.6346 
        1.19038         83.3419         17.4183 
        1.19652         82.8089         17.2058 
        1.20267         82.0416         16.9968 
        1.20881         81.6397         16.7914 
        1.21495         81.1122         16.5896 
        1.22108         80.8207         16.3912 
         1.2272         79.9514         16.1966 
        1.23334         79.7175         16.0046 
        1.23949         79.1974         15.8154 
        1.24562         78.7354         15.6297 
        1.25174         78.2778         15.4473 
        1.25789         77.9878         15.2673 
        1.26402         77.3794         15.0904 
        1.27014         76.9893         14.9168 
        1.27628         76.6203         14.7454 
        1.28244         76.0962         14.5764 
        1.28858         75.9335         14.4103 
        1.29471         75.3357         14.2471 
        1.30084         74.9702         14.0866 
        1.30697         74.4671         13.9283 
        1.31312          74.076         13.7722 
        1.31925         73.5861         13.6191 
        1.32537         73.3363         13.4684 
        1.33151         72.6454         13.3194 
        1.33765         72.3823         13.1728 
        1.34378         71.9824         13.0287 
        1.34992         71.6851         12.8867 
        1.35606          71.279         12.7464 
         1.3622         70.6625         12.6085 
        1.36833         70.5442          12.473 
        1.37445         70.0726         12.3395 
        1.38059          69.566         12.2076 
        1.38675         69.1937         12.0773 
        1.39288         68.8822         11.9494 
        1.39901         68.6247         11.8235 
        1.40515         68.1404          11.699 
         1.4113         67.8114         11.5764 
        1.41742         67.7053          11.456 
        1.42355         67.1082         11.3372 
         1.4297         66.9325         11.2196 
        1.43585         66.3729         11.1038 
        1.44198         66.0247           10.99 
        1.44809         65.7525          10.878 
        1.45423         65.4371         10.7672 
        1.46036         65.2085         10.6582 
        1.46649         64.7563         10.5506 
        1.47263         64.3622         10.4444 
        1.47877         64.2038         10.3398 
        1.48491         63.7848         10.2363 
        1.49104         63.4929         10.1346 
        1.49718         63.0643         10.0341 
        1.50333         62.8152         9.93487 
        1.50947         62.5228         9.83716 
         1.5156         62.1614         9.74091 
        1.52172         61.8791         9.64595 
        1.52787         61.7293         9.55207 
          1.534         61.2165         9.45955 
        1.54013         60.8479         9.36835 
        1.54627         60.7294          9.2782 
        1.55241         60.2232         9.18921 
        1.55855         60.0487         9.10152 
        1.56467         59.7032         9.01521 
         1.5708         59.5052         8.92979 
        1.57695         59.3311         8.84534 
        1.58308         58.7925         8.76217 
        1.58922         58.6117         8.68002 
        1.59535         58.4658         8.59895 
         1.6015         57.8929         8.51881 
        1.60764         57.7722         8.43972 
        1.61376          57.436         8.36185 
        1.61989         57.1731          8.2849 
        1.62604         56.9574         8.20875 
        1.63218         56.7415          8.1336 
        1.63831         56.2505         8.05956 
        1.64444         56.0764         7.98642 
        1.65059         55.8176         7.91401 
        1.65673         55.5598         7.84258 
        1.66285         55.1936         7.77222 
        1.66898         55.0245         7.70271 
        1.67512         54.6124         7.63391 
        1.68127         54.4638         7.56589 
         1.6874         54.2178         7.49886 
        1.69353         53.9505         7.43267 
        1.69967         53.6322         7.36713 
        1.70581         53.5192          7.3024 
        1.71193         53.3363          7.2387 
        1.71806         52.8028         7.17562 
        1.72421         52.7109         7.11317 
        1.73035         52.4671         7.05153 
        1.73649         52.1327         6.99064 
        1.74262          51.974         6.93051 
        1.74876         51.6903         6.87105 
        1.75489         51.4546         6.81242 
        1.76101         51.2754         6.75448 
        1.76715         50.9091         6.69714 
        1.77329         50.7121         6.64039 
        1.77943         50.3853         6.58428 
        1.78557         50.2445          6.5289 
        1.79171         49.9922         6.47414 
        1.79785         49.7252         6.42001 
        1.80399         49.6472          6.3665 
        1.81012         49.3278         6.31368 
        1.81625         48.9766         6.26147 
        1.82239         48.8417         6.20978 
        1.82853         48.5566          6.1587 
        1.83466          48.355         6.10824 
        1.84078         48.0956          6.0584 
        1.84692         47.8263         6.00904 
        1.85306         47.6413         5.96016 
         1.8592         47.3515         5.91191 
        1.86533         47.2288         5.86421 
        1.87147         46.9673         5.81698 
        1.87761         46.8061         5.77026 
        1.88375         46.5658          5.7241 
        1.88988         46.4317         5.67849 
        1.89601         46.1645         5.63335 
        1.90215          45.935         5.58867 
        1.90829            45.8          5.5445 
        1.91442         45.5545          5.5008 
        1.92056         45.2342         5.45761 
         1.9267         45.0828         5.41483 
        1.93284         44.8446         5.37249 
        1.93897         44.7096         5.33069 
        1.94509         44.4404         5.28942 
        1.95123         44.2709         5.24848 
        1.95737         44.0788         5.20794 
        1.96349         43.7776         5.16793 
        1.96964         43.7311         5.12823 
        1.97578         43.4452         5.08893 
        1.98192         43.2529         5.05012 
        1.98805         43.1736         5.01171 
        1.99419         42.8635          4.9737 
        2.00033         42.6714         4.93606 
        2.00647         42.4953         4.89883 
         2.0126         42.1748         4.86203 
        2.01874         42.1635         4.82556 
        2.02488         41.9539         4.78944 
        2.03101         41.7232         4.75375 
        2.03714         41.5487         4.71845 
        2.04328         41.3433         4.68347 
        2.04941         41.1205         4.64888 
        2.05554         40.9025         4.61466 
        2.06167          40.797         4.58074 
        2.06781          40.565         4.54715 
        2.07396         40.4402         4.51386 
        2.08009         40.2806         4.48095 
        2.08622         39.9969         4.44841 
        2.09237         39.8647         4.41613 
        2.09851         39.7219         4.38416 
        2.10464         39.5405         4.35256 
        2.11077         39.3591         4.32132 
        2.11691         39.1161         4.29031 
        2.12305          38.976          4.2596 
        2.12918         38.7966         4.22926 
        2.13531         38.5764         4.19922 
        2.14145         38.4055          4.1694 
         2.1476          38.251         4.13983 
        2.15372         38.0284          4.1107 
        2.15985         37.9157         4.08182 
        2.16599         37.7812         4.05314 
        2.17213         37.6491         4.02476 
        2.17827         37.4167         3.99665 
         2.1844         37.2658         3.96884 
        2.19054         37.0623         3.94129 
        2.19666         36.9013         3.91404 
         2.2028         36.7257         3.88702 
        2.20893          36.636         3.86024 
        2.21508         36.5067         3.83368 
        2.22122         36.2755         3.80736 
        2.22736         36.1745         3.78135 
        2.23349         35.9974         3.75558 
        2.23962         35.7225         3.73004 
        2.24577         35.5855         3.70472 
         2.2519         35.4228         3.67966 
        2.25802         35.3919         3.65488 
        2.26417         35.1441         3.63026 
        2.27031         35.0018         3.60584 
        2.27644         34.8541         3.58171 
        2.28257         34.7134         3.55781 
        2.28872         34.5049         3.53408 
        2.29486         34.4283         3.51057 
        2.30099         34.2597         3.48732 
        2.30712         34.1351         3.46427 
        2.31326         33.9133         3.44139 
         2.3194         33.7821         3.41873 
        2.32553         33.6486         3.39631 
        2.33166         33.5331         3.37411 
         2.3378         33.2815         3.35207 
        2.34394         33.2235         3.33022 
        2.35007         33.0485         3.30859 
        2.35619         32.8954         3.28719 
        2.36233         32.8021         3.26592 
        2.36848         32.6511         3.24479 
        2.37462         32.4559          3.2239 
        2.38075         32.3977         3.20321 
        2.38689         32.2595         3.18268 
        2.39303         32.0833         3.16234 
        2.39916           31.89          3.1422 
        2.40529         31.7605         3.12223 
        2.41143         31.6972         3.10243 
        2.41757         31.5538         3.08278 
         2.4237          31.448         3.06334 
        2.42983         31.2336         3.04407 
        2.43598         31.1335         3.02492 
        2.44211         30.9735         3.00596 
        2.44823         30.8918         2.98721 
        2.45437         30.7154         2.96856 
        2.46052         30.5232         2.95006 
        2.46665           30.46         2.93175 
        2.47279         30.3333         2.91359 
        2.47892         30.1849         2.89558 
        2.48507         30.0539         2.87771 
         2.4912          29.958         2.86002 
