# k  (h/Mpc)    Pcb(k)  (Mpc/h)^3    Pcb_linear(k)  (Mpc/h)^3
     0.00783031         11582.1         11739.4 
       0.013688         13773.7         13671.2 
       0.019231         13240.9           13202 
      0.0249154         11497.5           11678 
      0.0312784         9621.54         9676.42 
      0.0375637         7993.35         7958.88 
      0.0433917         6720.29         6780.74 
      0.0492413         5975.15          5978.1 
      0.0555754         5307.42         5411.43 
      0.0619321         5038.46         4997.49 
       0.067871         4557.42         4629.91 
      0.0738098         4157.55         4219.54 
      0.0800417         3663.05         3740.98 
      0.0862327         3237.77         3260.18 
      0.0921407         2879.68         2847.48 
      0.0982031         2525.88         2506.96 
       0.104506         2336.55         2252.77 
       0.110769         2157.72         2086.16 
       0.116806         2031.86         1977.85 
       0.122832         1944.36         1889.19 
       0.129052         1808.37            1791 
       0.135211          1699.3         1673.27 
       0.141259         1598.09         1539.34 
       0.147318         1476.88         1399.07 
       0.153489          1335.8         1265.57 
       0.159709         1244.75         1152.93 
       0.165845          1180.5         1068.26 
       0.171974          1111.2         1007.59 
       0.178125         1061.47         963.426 
       0.184229         1019.51         927.022 
        0.19034         956.463         889.931 
       0.196428         933.663         847.573 
       0.202534         896.251         798.998 
       0.208729         843.388         746.298 
       0.214876         794.641         695.074 
       0.220989         761.124         649.253 
       0.227147          722.04         610.654 
        0.23329         690.669         579.949 
       0.239377         674.444         555.729 
       0.245482         629.486         535.205 
       0.251667          623.74         515.656 
       0.257832         600.003         495.489 
       0.263955         578.313         474.024 
       0.270079         554.335         451.408 
        0.27624         545.132         428.565 
       0.282372         522.276         406.975 
        0.28843         507.348         387.694 
       0.294538         481.686         370.754 
       0.300721          477.62         355.991 
        0.30691          455.62          343.06 
       0.313033         445.977         331.307 
       0.319153         431.181         319.946 
       0.325316         418.868         308.433 
        0.33145         405.542         296.824 
       0.337538             399         285.279 
       0.343633         385.599         274.024 
       0.349808         372.029         263.234 
       0.355968         367.562         253.307 
       0.362074          360.09         244.354 
       0.368217         349.854         236.138 
       0.374374         335.399         228.529 
       0.380519         332.326         221.326 
       0.386598         323.602         214.423 
       0.392688         320.326          207.63 
        0.39888         311.327         200.818 
       0.405048         303.934         194.196 
       0.411186         297.977         187.837 
       0.417313         292.049         181.791 
       0.423458          285.99         176.084 
       0.429607         280.351         170.725 
       0.435692         272.668         165.731 
       0.441815         270.177         160.965 
       0.447964         264.562         156.379 
       0.454126         255.845         151.928 
       0.460267         252.049         147.618 
       0.466387          248.92         143.443 
        0.47254          243.38          139.37 
       0.478662         242.532         135.462 
       0.484765         234.094         131.729 
       0.490885         231.264         128.152 
       0.497035         227.426         124.717 
       0.503198         222.652         121.426 
       0.509342         220.455         118.278 
       0.515458         217.312         115.259 
       0.521598         212.748         112.324 
       0.527764         209.798         109.466 
       0.533884         207.235         106.716 
           0.54         203.949         104.058 
       0.546137           202.7         101.479 
       0.552299         198.427         98.9798 
       0.558452         196.527         96.5743 
       0.564573         193.455         94.2693 
       0.570708         189.409         92.0419 
       0.576825         186.897         89.8967 
       0.582926         184.172         87.8255 
       0.589034         182.267         85.8143 
       0.595184         180.207         83.8502 
       0.601379         177.835         81.9326 
       0.607522         174.578         80.0894 
       0.613639         173.397         78.3106 
       0.619772         169.762         76.5822 
       0.625918         168.329         74.9035 
       0.632068         166.048         73.2757 
       0.638161         164.938         71.7124 
         0.6443         162.431         70.1849 
       0.650464         160.772         68.6974 
       0.656582         158.787         67.2639 
       0.662703         157.542         65.8707 
       0.668861         154.735         64.5083 
       0.675024         152.807         63.1829 
       0.681124         152.037         61.9078 
       0.687237         149.608         60.6655 
       0.693381         147.321          59.452 
       0.699536         146.341         58.2702 
       0.705665         145.608         57.1263 
       0.711789         143.052         56.0147 
       0.717957         142.738         54.9255 
        0.72409         140.577         53.8715 
       0.730186         138.661         52.8517 
       0.736317         137.363         51.8526 
       0.742472          136.53         50.8757 
       0.748622         135.208         49.9249 
        0.75476         133.989         49.0006 
       0.760888         132.223         48.1011 
       0.767043         131.718         47.2208 
       0.773185         130.324         46.3646 
       0.779291         127.996         45.5348 
       0.785407         127.499         44.7242 
       0.791564         126.469         43.9284 
       0.797719         124.269         43.1526 
       0.803834          123.72         42.4005 
       0.809972         122.651         41.6638 
       0.816124         122.155         40.9431 
       0.822261         120.828         40.2414 
       0.828378          119.68         39.5583 
       0.834502         119.297         38.8906 
       0.840667         117.473         38.2341 
       0.846816         116.232         37.5946 
       0.852925         115.713         36.9738 
       0.859047         114.308         36.3658 
       0.865192          113.44         35.7696 
       0.871341         112.478         35.1863 
       0.877463         111.334         34.6188 
       0.883569         110.935         34.0653 
       0.889708          109.89         33.5211 
       0.895864         108.752         32.9874 
       0.902008         108.024         32.4666 
       0.908149         107.538         31.9573 
       0.914301         106.355         31.4582 
       0.920448         105.518         30.9702 
       0.926574         104.816         30.4944 
       0.932687         104.716         30.0296 
       0.938823         103.062         29.5728 
       0.944975         101.998         29.1246 
       0.951105         101.566         28.6872 
       0.957225         100.527         28.2597 
       0.963368          99.559         27.8395 
       0.969511           99.46         27.4278 
       0.975621         98.8548         27.0267 
       0.981748         98.1776         26.6327 
       0.987916         97.1431          26.244 
        0.99406         96.4243         25.8646 
        1.00019         96.0825         25.4935 
        1.00632         95.1393         25.1301 
        1.01246         94.6393         24.7732 
        1.01859         93.6246         24.4238 
        1.02471         93.0544         24.0817 
        1.03085         92.2266         23.7449 
        1.03698         91.9404         23.4154 
        1.04314         91.0153         23.0907 
        1.04929         90.4801         22.7729 
        1.05541         89.7574         22.4624 
        1.06154         89.4274          22.157 
        1.06769          89.113         21.8568 
        1.07382         88.4187         21.5631 
        1.07993         87.7429         21.2756 
        1.08607         87.0794         20.9921 
        1.09222         86.8455         20.7135 
        1.09836         86.0512         20.4403 
        1.10449         85.5313         20.1723 
        1.11063         84.8674         19.9089 
        1.11677         84.5173         19.6503 
         1.1229         83.6652         19.3967 
        1.12903         83.0672         19.1474 
        1.13518         83.1452         18.9022 
        1.14131         82.4512         18.6615 
        1.14745         81.7807         18.4252 
        1.15359         81.3415         18.1929 
        1.15973         80.9513         17.9645 
        1.16584         80.2257          17.741 
        1.17197          79.846         17.5211 
        1.17811         79.3859         17.3042 
        1.18424         78.8682         17.0916 
        1.19038         78.5055          16.882 
        1.19652         78.0558          16.676 
        1.20267         77.2936         16.4735 
        1.20881         76.9488         16.2744 
        1.21495         76.4398         16.0788 
        1.22108         76.1754         15.8866 
         1.2272         75.3345         15.6979 
        1.23334         75.1216         15.5119 
        1.23949         74.6571         15.3284 
        1.24562         74.2042         15.1485 
        1.25174         73.7917         14.9717 
        1.25789         73.5237         14.7972 
        1.26402         72.9912         14.6258 
        1.27014         72.5407         14.4575 
        1.27628         72.2021         14.2914 
        1.28244         71.6953         14.1276 
        1.28858         71.5267         13.9666 
        1.29471         71.0329         13.8084 
        1.30084          70.643         13.6529 
        1.30697         70.1877         13.4995 
        1.31312         69.8003         13.3482 
        1.31925         69.3758         13.1997 
        1.32537         69.1434         13.0537 
        1.33151         68.4681         12.9093 
        1.33765         68.2146         12.7672 
        1.34378          67.828         12.6276 
        1.34992         67.5492         12.4899 
        1.35606         67.1793          12.354 
         1.3622         66.6045         12.2203 
        1.36833         66.4724          12.089 
        1.37445         66.0474         11.9596 
        1.38059         65.5553         11.8318 
        1.38675         65.2225         11.7055 
        1.39288         64.8868         11.5815 
        1.39901         64.6839         11.4594 
        1.40515         64.2256         11.3388 
         1.4113         63.9295           11.22 
        1.41742         63.8325         11.1033 
        1.42355         63.2467         10.9881 
         1.4297         63.0833         10.8742 
        1.43585         62.5615         10.7619 
        1.44198         62.2352         10.6516 
        1.44809         61.9925         10.5431 
        1.45423         61.6767         10.4357 
        1.46036          61.466           10.33 
        1.46649         61.0743         10.2258 
        1.47263         60.6783         10.1229 
        1.47877         60.4889         10.0214 
        1.48491         60.1861         9.92118 
        1.49104          59.844         9.82255 
        1.49718         59.4111         9.72518 
        1.50333         59.2178         9.62899 
        1.50947         58.9413         9.53428 
         1.5156         58.5923           9.441 
        1.52172         58.3661         9.34896 
        1.52787         58.2196         9.25797 
          1.534         57.7313          9.1683 
        1.54013         57.3899         9.07991 
        1.54627         57.2729         8.99253 
        1.55241         56.7752         8.90629 
        1.55855         56.6082         8.82129 
        1.56467         56.2527         8.73765 
         1.5708         56.1367         8.65485 
        1.57695         55.9287           8.573 
        1.58308         55.4503          8.4924 
        1.58922         55.2922         8.41277 
        1.59535         55.1467          8.3342 
         1.6015         54.5989         8.25652 
        1.60764         54.4717         8.17987 
        1.61376         54.1575          8.1044 
        1.61989           53.91         8.02982 
        1.62604         53.7124         7.95601 
        1.63218         53.5371         7.88318 
        1.63831         53.1118         7.81142 
        1.64444         52.9101         7.74053 
        1.65059         52.6537         7.67035 
        1.65673          52.438         7.60111 
        1.66285         52.0655         7.53293 
        1.66898         51.9194         7.46555 
        1.67512         51.5359         7.39888 
        1.68127         51.3663         7.33295 
         1.6874         51.1601         7.26798 
        1.69353         50.8905         7.20383 
        1.69967         50.6195          7.1403 
        1.70581         50.5148         7.07757 
        1.71193         50.3244         7.01583 
        1.71806         49.8078         6.95469 
        1.72421          49.745         6.89416 
        1.73035         49.5175         6.83442 
        1.73649         49.1547         6.77541 
        1.74262         49.0411         6.71713 
        1.74876          48.779          6.6595 
        1.75489         48.5661         6.60267 
        1.76101         48.3859         6.54652 
        1.76715         48.0506         6.49094 
        1.77329         47.8599         6.43594 
        1.77943          47.563         6.38156 
        1.78557          47.425         6.32788 
        1.79171         47.1953         6.27481 
        1.79785         46.9518         6.22234 
        1.80399         46.8728         6.17049 
        1.81012         46.5512         6.11929 
        1.81625         46.2247         6.06869 
        1.82239         46.1202         6.01859 
        1.82853          45.827         5.96908 
        1.83466         45.6376         5.92018 
        1.84078         45.3768         5.87187 
        1.84692         45.1575         5.82403 
        1.85306         44.9712         5.77666 
         1.8592         44.6853         5.72989 
        1.86533         44.5905         5.68366 
        1.87147         44.3703         5.63789 
        1.87761         44.2063          5.5926 
        1.88375          43.969         5.54786 
        1.88988         43.8642         5.50366 
        1.89601         43.5979         5.45991 
        1.90215          43.405         5.41661 
        1.90829         43.2817         5.37379 
        1.91442         43.0244         5.33144 
        1.92056         42.7259         5.28957 
         1.9267         42.5754         5.24812 
        1.93284         42.3762         5.20708 
        1.93897         42.2528         5.16656 
        1.94509         41.9697         5.12656 
        1.95123         41.8388         5.08688 
        1.95737         41.6353         5.04759 
        1.96349         41.3715         5.00882 
        1.96964         41.3417         4.97034 
        1.97578         41.0422         4.93225 
        1.98192         40.8824         4.89464 
        1.98805         40.8012         4.85741 
        1.99419         40.5204         4.82057 
        2.00033         40.3311         4.78409 
        2.00647         40.1476           4.748 
         2.0126         39.8759         4.71234 
        2.01874         39.8713         4.67699 
        2.02488          39.664         4.64198 
        2.03101          39.443         4.60738 
        2.03714         39.2776         4.57318 
        2.04328         39.0839         4.53928 
        2.04941         38.8748         4.50575 
        2.05554         38.6739         4.47258 
        2.06167         38.5937         4.43971 
        2.06781          38.354         4.40715 
        2.07396         38.2526         4.37488 
        2.08009         38.0905         4.34299 
        2.08622          37.828         4.31145 
        2.09237         37.7057         4.28016 
        2.09851          37.548         4.24918 
        2.10464         37.3949         4.21856 
        2.11077         37.2568         4.18827 
        2.11691          37.001         4.15821 
        2.12305         36.8538         4.12845 
        2.12918         36.6896         4.09905 
        2.13531         36.4977         4.06993 
        2.14145         36.3525         4.04103 
         2.1476         36.1937         4.01237 
        2.15372         35.9893         3.98414 
        2.15985         35.8751         3.95615 
        2.16599         35.7826         3.92835 
        2.17213         35.6494         3.90084 
        2.17827         35.3973          3.8736 
         2.1844          35.287         3.84665 
        2.19054         35.1051         3.81994 
        2.19666         34.9494         3.79353 
         2.2028         34.7567         3.76734 
        2.20893         34.6886         3.74139 
        2.21508         34.5667         3.71565 
        2.22122         34.3384         3.69014 
        2.22736         34.2528         3.66493 
        2.23349          34.087         3.63995 
        2.23962          33.841          3.6152 
        2.24577         33.7095         3.59065 
         2.2519          33.561         3.56637 
        2.25802         33.5043         3.54235 
        2.26417         33.2942         3.51849 
        2.27031          33.171         3.49482 
        2.27644         33.0085         3.47144 
        2.28257         32.9057         3.44827 
        2.28872         32.7119         3.42527 
        2.29486         32.6326         3.40248 
        2.30099         32.4514         3.37995 
        2.30712         32.3469         3.35761 
        2.31326         32.1547         3.33544 
         2.3194         32.0507         3.31348 
        2.32553         31.9174         3.29175 
        2.33166         31.8045         3.27022 
         2.3378          31.549         3.24886 
        2.34394         31.4931         3.22768 
        2.35007         31.3512         3.20673 
        2.35619         31.2079         3.18598 
        2.36233         31.1187         3.16536 
        2.36848         30.9669         3.14489 
        2.37462          30.801         3.12464 
        2.38075         30.7408         3.10459 
        2.38689         30.6129          3.0847 
        2.39303         30.4465         3.06498 
        2.39916          30.257         3.04546 
        2.40529         30.1263          3.0261 
        2.41143         30.0854         3.00691 
        2.41757         29.9606         2.98787 
         2.4237          29.839         2.96903 
        2.42983         29.6304         2.95035 
        2.43598         29.5469         2.93179 
        2.44211         29.3944         2.91341 
        2.44823         29.3228         2.89523 
        2.45437         29.1595         2.87716 
        2.46052         28.9643         2.85923 
        2.46665         28.9292         2.84148 
        2.47279         28.8048         2.82389 
        2.47892         28.6584         2.80643 
        2.48507         28.5373         2.78911 
         2.4912         28.4525         2.77197 
