# k  (h/Mpc)    P(k)  (Mpc/h)^3    P_linear(k)  (Mpc/h)^3
     0.00783031         497.394         502.698 
       0.013688         626.469          628.51 
       0.019231         641.767         642.237 
      0.0249154         596.018         598.684 
      0.0312784          522.03          522.31 
      0.0375637         447.994         446.984 
      0.0433917          389.93         390.006 
      0.0492413         348.629         348.054 
      0.0555754         316.176         316.852 
      0.0619321         295.485         294.411 
       0.067871         275.427         275.967 
      0.0738098         255.669         256.326 
      0.0800417         232.079         233.098 
      0.0862327         208.108          208.41 
      0.0921407         185.612          185.54 
      0.0982031         164.784          164.96 
       0.104506         148.784         148.061 
       0.110769         136.552         135.967 
       0.116806         127.864         127.893 
       0.122832         122.294          121.97 
       0.129052         116.386         116.575 
       0.135211         110.496         110.757 
       0.141259         104.156         104.052 
       0.147318         96.9061         96.4837 
       0.153489         88.7474         88.5106 
       0.159709         81.3263         80.9816 
       0.165845         75.4781         74.6502 
       0.171974         70.0489         69.6753 
       0.178125         66.4281         65.9541 
       0.184229         63.7574         63.1869 
        0.19034         61.0036         60.8906 
       0.196428         59.0284         58.6512 
       0.202534         56.8606         56.1671 
       0.208729         53.7907         53.3115 
       0.214876         50.5493         50.2419 
       0.220989         47.8621         47.1662 
       0.227147         44.6523         44.2741 
        0.23329         42.1822         41.7612 
       0.239377         40.2303         39.7031 
       0.245482         38.3729         38.0344 
       0.251667         37.2307         36.6354 
       0.257832         35.8998         35.3913 
       0.263955         34.7064         34.1769 
       0.270079         33.4345         32.9002 
        0.27624          32.253          31.534 
       0.282372          30.841         30.1231 
        0.28843         29.3446         28.7409 
       0.294538         28.0453         27.4255 
       0.300721         27.0045         26.2232 
        0.30691         25.7984         25.1706 
       0.313033         24.9153         24.2647 
       0.319153         23.8884         23.4627 
       0.325316         23.4324          22.715 
        0.33145         22.6453          21.993 
       0.337538         21.9298         21.2721 
       0.343633         21.1338         20.5395 
       0.349808         20.4552         19.7935 
       0.355968          19.737          19.063 
       0.362074         19.0218         18.3725 
       0.368217         18.3972         17.7248 
       0.374374          17.731         17.1309 
       0.380519         17.2581          16.589 
       0.386598          16.787         16.0942 
       0.392688          16.364         15.6274 
        0.39888         15.8664         15.1693 
       0.405048         15.4438         14.7222 
       0.411186         15.0197         14.2823 
       0.417313         14.5194         13.8491 
       0.423458         14.1301         13.4259 
       0.429607         13.6854         13.0183 
       0.435692         13.2892         12.6347 
       0.441815         12.9483         12.2711 
       0.447964         12.6736         11.9276 
       0.454126         12.2526         11.6021 
       0.460267         11.9626         11.2932 
       0.466387          11.614          10.997 
        0.47254         11.3708         10.7072 
       0.478662          11.117         10.4258 
       0.484765         10.7955         10.1523 
       0.490885         10.5277         9.88556 
       0.497035         10.3534         9.62613 
       0.503198         10.0623         9.37626 
       0.509342         9.82422         9.13802 
       0.515458         9.57484         8.91113 
       0.521598         9.37023         8.69271 
       0.527764         9.13124         8.48191 
       0.533884          8.9695         8.28009 
           0.54         8.75778         8.08472 
       0.546137         8.57893         7.89399 
       0.552299         8.39717         7.70764 
       0.558452         8.15962           7.527 
       0.564573         8.02418         7.35286 
       0.570708         7.85325         7.18401 
       0.576825         7.65628         7.02128 
       0.582926         7.52209         6.86449 
       0.589034         7.30975         6.71288 
       0.595184         7.18432         6.56539 
       0.601379         7.02889         6.42159 
       0.607522         6.92092         6.28325 
       0.613639         6.81461         6.14933 
       0.619772         6.63011          6.0187 
       0.625918         6.53692         5.89145 
       0.632068         6.42929         5.76776 
       0.638161         6.27527          5.6488 
         0.6443         6.14772         5.53247 
       0.650464         6.01473         5.41912 
       0.656582          5.9415         5.30987 
       0.662703         5.82907          5.2037 
       0.668861         5.73296         5.09991 
       0.675024         5.60965         4.99894 
       0.681124         5.50095         4.90176 
       0.687237         5.42179         4.80699 
       0.693381         5.33059         4.71429 
       0.699536         5.19076         4.62385 
       0.705665         5.11683         4.53615 
       0.711789         5.03653         4.45082 
       0.717957         4.94175         4.36711 
        0.72409         4.85864         4.28605 
       0.730186         4.77933         4.20759 
       0.736317         4.72926         4.13072 
       0.742472         4.64791         4.05554 
       0.748622         4.55875         3.98233 
        0.75476         4.46503         3.91113 
       0.760888         4.40115         3.84179 
       0.767043         4.35081         3.77387 
       0.773185         4.25953         3.70774 
       0.779291         4.20844         3.64358 
       0.785407         4.13802         3.58086 
       0.791564         4.07612         3.51923 
       0.797719         4.01643         3.45909 
       0.803834         3.96534         3.40076 
       0.809972          3.9074         3.34358 
       0.816124         3.83322         3.28761 
       0.822261         3.76634         3.23309 
       0.828378         3.72094         3.17999 
       0.834502         3.68174         3.12805 
       0.840667         3.60362         3.07695 
       0.846816         3.54959         3.02715 
       0.852925         3.51777         2.97877 
       0.859047         3.46613         2.93136 
       0.865192         3.41844         2.88484 
       0.871341         3.37407         2.83931 
       0.877463         3.33116         2.79497 
       0.883569         3.27083          2.7517 
       0.889708         3.22171         2.70914 
       0.895864         3.18329         2.66737 
       0.902008         3.13348         2.62658 
       0.908149         3.09798         2.58668 
       0.914301         3.03991         2.54755 
       0.920448         3.00408         2.50927 
       0.926574         2.96116         2.47192 
       0.932687         2.92716         2.43541 
       0.938823           2.897         2.39952 
       0.944975         2.85597         2.36428 
       0.951105         2.82301         2.32988 
       0.957225         2.80048         2.29623 
       0.963368         2.75852         2.26313 
       0.969511         2.71754          2.2307 
       0.975621         2.67628         2.19908 
       0.981748         2.65304           2.168 
       0.987916         2.61733         2.13733 
        0.99406         2.57573         2.10737 
        1.00019          2.5521         2.07805 
        1.00632         2.51798         2.04933 
        1.01246          2.4891          2.0211 
        1.01859          2.4614         1.99347 
        1.02471         2.42823         1.96638 
        1.03085         2.40361         1.93971 
        1.03698         2.36976          1.9136 
        1.04314         2.34703         1.88786 
        1.04929         2.31534         1.86266 
        1.05541         2.29131         1.83803 
        1.06154         2.26387         1.81378 
        1.06769          2.2406         1.78994 
        1.07382         2.21264          1.7666 
        1.07993         2.18006         1.74374 
        1.08607         2.16864          1.7212 
        1.09222         2.13828         1.69903 
        1.09836         2.12285         1.67728 
        1.10449         2.09733         1.65595 
        1.11063          2.0679         1.63496 
        1.11677         2.04466         1.61434 
         1.1229         2.02337         1.59412 
        1.12903         1.99882         1.57423 
        1.13518          1.9835         1.55467 
        1.14131         1.95524         1.53545 
        1.14745         1.92378         1.51657 
        1.15359           1.915           1.498 
        1.15973         1.88553         1.47975 
        1.16584         1.87881         1.46187 
        1.17197         1.85508         1.44428 
        1.17811         1.83725         1.42692 
        1.18424         1.82354         1.40989 
        1.19038         1.79938          1.3931 
        1.19652         1.77935         1.37659 
        1.20267         1.76663         1.36035 
        1.20881          1.7417         1.34438 
        1.21495         1.72996         1.32869 
        1.22108         1.71265         1.31326 
         1.2272         1.70012         1.29811 
        1.23334         1.67784         1.28316 
        1.23949         1.65961         1.26842 
        1.24562         1.64775         1.25395 
        1.25174         1.62945         1.23973 
        1.25789         1.61513         1.22569 
        1.26402         1.59381          1.2119 
        1.27014         1.57939         1.19835 
        1.27628         1.57253         1.18497 
        1.28244         1.54903         1.17177 
        1.28858         1.53722         1.15879 
        1.29471           1.523         1.14603 
        1.30084         1.50653         1.13349 
        1.30697         1.49499         1.12111 
        1.31312         1.47312          1.1089 
        1.31925         1.46636         1.09691 
        1.32537         1.45322         1.08511 
        1.33151         1.44145         1.07345 
        1.33765         1.42528         1.06196 
        1.34378         1.40934         1.05067 
        1.34992          1.4035         1.03953 
        1.35606         1.38484         1.02853 
         1.3622         1.37629         1.01771 
        1.36833         1.36285         1.00708 
        1.37445         1.34734        0.996597 
        1.38059         1.33706        0.986237 
        1.38675         1.33368        0.975999 
        1.39288           1.315        0.965949 
        1.39901         1.30338        0.956046 
        1.40515         1.29348        0.946259 
         1.4113         1.28122        0.936615 
        1.41742         1.27035        0.927142 
        1.42355         1.26592        0.917784 
         1.4297         1.24813        0.908527 
        1.43585         1.23956        0.899403 
        1.44198         1.23386        0.890439 
        1.44809         1.21674        0.881616 
        1.45423         1.20814         0.87288 
        1.46036          1.1986        0.864279 
        1.46649         1.18824        0.855792 
        1.47263         1.17754        0.847412 
        1.47877         1.16642        0.839149 
        1.48491         1.15742        0.830985 
        1.49104         1.14813        0.822946 
        1.49718         1.14174        0.815009 
        1.50333         1.12992        0.807164 
        1.50947         1.12331         0.79944 
         1.5156          1.1126        0.791828 
        1.52172          1.1036        0.784316 
        1.52787         1.09371        0.776888 
          1.534         1.08796        0.769565 
        1.54013         1.07525        0.762344 
        1.54627         1.06707        0.755204 
        1.55241         1.05843        0.748155 
        1.55855         1.05069        0.741206 
        1.56467         1.04508        0.734364 
         1.5708         1.03299        0.727591 
        1.57695         1.02884        0.720893 
        1.58308         1.02037        0.714295 
        1.58922         1.01188        0.707775 
        1.59535         1.00443        0.701339 
         1.6015        0.996968        0.694975 
        1.60764        0.990477        0.688693 
        1.61376        0.980827        0.682507 
        1.61989        0.974976        0.676392 
        1.62604        0.966684        0.670338 
        1.63218        0.962312        0.664363 
        1.63831        0.952267        0.658474 
        1.64444        0.945186        0.652655 
        1.65059        0.939684        0.646893 
        1.65673        0.931421        0.641208 
        1.66285        0.924315        0.635607 
        1.66898        0.920539        0.630071 
        1.67512        0.910416        0.624591 
        1.68127        0.904326        0.619171 
         1.6874        0.900355        0.613828 
        1.69353        0.891405        0.608552 
        1.69967        0.885173        0.603325 
        1.70581        0.880487        0.598163 
        1.71193        0.873351         0.59308 
        1.71806        0.868203        0.588047 
        1.72421        0.861389        0.583062 
        1.73035        0.854222         0.57814 
        1.73649        0.850361        0.573277 
        1.74262        0.844166        0.568475 
        1.74876        0.837326        0.563724 
        1.75489        0.830659        0.559037 
        1.76101        0.824941        0.554406 
        1.76715        0.820066        0.549821 
        1.77329        0.814821        0.545282 
        1.77943        0.808236        0.540793 
        1.78557        0.802596        0.536362 
        1.79171        0.798786        0.531979 
        1.79785        0.792696        0.527645 
        1.80399        0.787345         0.52336 
        1.81012        0.783174        0.519129 
        1.81625        0.776489        0.514947 
        1.82239        0.772585        0.510804 
        1.82853        0.764002         0.50671 
        1.83466        0.761033        0.502664 
        1.84078        0.755111        0.498667 
        1.84692        0.752194        0.494707 
        1.85306        0.746571        0.490786 
         1.8592        0.742579        0.486913 
        1.86533        0.737176        0.483084 
        1.87147        0.732388        0.479292 
        1.87761         0.72795         0.47554 
        1.88375        0.720809        0.471832 
        1.88988          0.7186        0.468168 
        1.89601        0.712772        0.464541 
        1.90215        0.709119         0.46095 
        1.90829        0.703537        0.457399 
        1.91442        0.699099        0.453885 
        1.92056        0.695468        0.450411 
         1.9267        0.690276         0.44697 
        1.93284        0.687362        0.443563 
        1.93897        0.682678        0.440198 
        1.94509        0.678293        0.436876 
        1.95123        0.673233         0.43358 
        1.95737        0.669927        0.430315 
        1.96349        0.664754        0.427093 
        1.96964        0.661333        0.423894 
        1.97578        0.656877        0.420727 
        1.98192        0.654808        0.417599 
        1.98805        0.649118        0.414502 
        1.99419         0.64576        0.411437 
        2.00033        0.643043        0.408401 
        2.00647        0.637803        0.405397 
         2.0126        0.634233        0.402429 
        2.01874        0.630822        0.399485 
        2.02488        0.627558        0.396569 
        2.03101        0.622061        0.393688 
        2.03714         0.61803        0.390837 
        2.04328        0.616226        0.388012 
        2.04941        0.612055        0.385218 
        2.05554        0.608144        0.382453 
        2.06167        0.604682        0.379711 
        2.06781        0.599984        0.376996 
        2.07396        0.596246        0.374304 
        2.08009        0.593645        0.371643 
        2.08622         0.58991        0.369011 
        2.09237        0.588531          0.3664 
        2.09851        0.584893        0.363813 
        2.10464        0.581447        0.361255 
        2.11077        0.577411        0.358726 
        2.11691        0.573788        0.356215 
        2.12305        0.570804        0.353728 
        2.12918        0.567568        0.351271 
        2.13531        0.564237        0.348837 
        2.14145        0.561313         0.34642 
         2.1476        0.557743        0.344024 
        2.15372        0.556057        0.341663 
        2.15985        0.551374        0.339321 
        2.16599        0.547871        0.336995 
        2.17213        0.545572        0.334693 
        2.17827        0.543754        0.332413 
         2.1844        0.540825        0.330157 
        2.19054         0.53788        0.327921 
        2.19666        0.533769        0.325708 
         2.2028        0.531407        0.323515 
        2.20893        0.528366         0.32134 
        2.21508        0.525841        0.319183 
        2.22122        0.521565        0.317046 
        2.22736        0.519234        0.314932 
        2.23349        0.517948        0.312838 
        2.23962        0.514637        0.310763 
        2.24577        0.510579        0.308704 
         2.2519        0.508923        0.306667 
        2.25802        0.505791        0.304652 
        2.26417        0.502633        0.302649 
        2.27031        0.500117        0.300662 
        2.27644        0.498265        0.298699 
        2.28257        0.495436        0.296754 
        2.28872        0.492644        0.294823 
        2.29486        0.489826        0.292909 
        2.30099        0.487355        0.291016 
        2.30712        0.485401        0.289139 
        2.31326        0.482435        0.287275 
         2.3194        0.481706        0.285429 
        2.32553        0.478751        0.283603 
        2.33166        0.476108        0.281793 
         2.3378         0.47358        0.279997 
        2.34394        0.469551        0.278216 
        2.35007        0.468043        0.276452 
        2.35619        0.465795        0.274707 
        2.36233        0.462469        0.272972 
        2.36848        0.461256        0.271249 
        2.37462         0.45825        0.269544 
        2.38075        0.457283        0.267856 
        2.38689        0.454122        0.266181 
        2.39303        0.452826         0.26452 
        2.39916        0.449156        0.262876 
        2.40529         0.44751        0.261245 
        2.41143        0.445761        0.259628 
        2.41757        0.443218        0.258023 
         2.4237        0.441051        0.256435 
        2.42983        0.439259         0.25486 
        2.43598        0.437119        0.253295 
        2.44211        0.435298        0.251745 
        2.44823        0.433346        0.250212 
        2.45437        0.430365        0.248687 
        2.46052        0.429654        0.247174 
        2.46665         0.42665        0.245676 
        2.47279        0.424349        0.244192 
        2.47892        0.422023        0.242718 
        2.48507        0.420671        0.241255 
         2.4912        0.418764        0.239807 
