# k  (h/Mpc)    P(k)  (Mpc/h)^3    P_linear(k)  (Mpc/h)^3
     0.00783031         4719.46         4757.88 
       0.013688         5933.84         6042.01 
       0.019231         6277.57         6339.21 
      0.0249154         6113.95         6115.36 
      0.0312784         5527.29         5563.42 
      0.0375637         4891.07          4945.6 
      0.0433917         4415.07         4429.33 
      0.0492413         3971.71         4009.29 
      0.0555754         3650.51         3661.59 
      0.0619321         3311.28         3391.19 
       0.067871         3132.38         3172.31 
      0.0738098         2930.17         2957.65 
      0.0800417         2704.36         2722.12 
      0.0862327         2452.41         2479.29 
      0.0921407         2230.62         2251.52 
      0.0982031         2035.74         2037.13 
       0.104506         1827.94         1847.55 
       0.110769         1686.22         1697.59 
       0.116806         1599.67         1586.05 
       0.122832         1495.83         1498.52 
       0.129052         1425.64         1422.02 
       0.135211         1368.36         1349.87 
       0.141259         1281.79         1276.06 
       0.147318          1190.1         1197.36 
       0.153489         1119.76         1114.52 
       0.159709         1057.21         1033.07 
       0.165845         965.305         959.586 
       0.171974         930.998          896.34 
       0.178125         884.772         844.027 
       0.184229         825.742         801.928 
        0.19034         803.891         766.847 
       0.196428         775.456         735.663 
       0.202534         728.922          705.28 
       0.208729         712.141         673.504 
       0.214876         684.212         640.545 
       0.220989         638.757         607.061 
       0.227147         622.254         574.025 
        0.23329         596.336         543.245 
       0.239377         579.041         515.933 
       0.245482         548.929         492.096 
       0.251667         526.168           471.3 
       0.257832         519.288         453.145 
       0.263955         491.759         436.666 
       0.270079         475.518         420.837 
        0.27624         455.637         404.962 
       0.282372         443.999         388.982 
        0.28843         439.995         373.163 
       0.294538         418.424         357.523 
       0.300721         402.453         342.453 
        0.30691         395.555          328.46 
       0.313033         378.888          315.87 
       0.319153         371.949          304.48 
       0.325316          361.48         294.028 
        0.33145         352.266         284.351 
       0.337538         340.717         275.195 
       0.343633         330.456         266.257 
       0.349808         321.316         257.344 
       0.355968         314.108         248.576 
       0.362074         306.613         240.096 
       0.368217         301.536         231.882 
       0.374374         294.752         224.066 
       0.380519         282.633         216.749 
       0.386598         277.815         209.978 
       0.392688         271.204         203.631 
        0.39888         265.141         197.539 
       0.405048         260.204         191.748 
       0.411186         256.985         186.192 
       0.417313         251.491         180.796 
       0.423458         244.943         175.522 
       0.429607         239.955         170.394 
       0.435692         235.567         165.485 
       0.441815         230.397         160.735 
       0.447964         224.137         156.181 
       0.454126         220.403         151.834 
       0.460267           218.2         147.708 
       0.466387         213.828         143.785 
        0.47254         211.316         140.002 
       0.478662          204.72         136.372 
       0.484765         202.165         132.869 
       0.490885         198.737         129.464 
       0.497035         196.991         126.142 
       0.503198         193.431         122.916 
       0.509342         188.423         119.809 
       0.515458          186.53         116.828 
       0.521598         182.167         113.946 
       0.527764         180.187          111.16 
       0.533884         179.543         108.499 
           0.54         175.001         105.936 
       0.546137         171.117          103.45 
       0.552299         169.434         101.032 
       0.558452         166.439         98.6915 
       0.564573         165.666         96.4329 
       0.570708         161.456         94.2367 
       0.576825         159.542         92.1129 
       0.582926         157.841         90.0598 
       0.589034         155.614         88.0684 
       0.595184          154.14         86.1278 
       0.601379          150.48         84.2366 
       0.607522          148.32         82.4199 
       0.613639         147.109         80.6657 
       0.619772         145.138         78.9586 
       0.625918         143.934         77.2972 
       0.632068         141.065         75.6824 
       0.638161         139.116         74.1276 
         0.6443         138.509         72.6049 
       0.650464         135.971         71.1191 
       0.656582         135.388         69.6855 
       0.662703         133.834         68.2915 
       0.668861         131.066         66.9286 
       0.675024         131.106         65.6029 
       0.681124         128.973         64.3275 
       0.687237         126.675         63.0841 
       0.693381         126.182         61.8681 
       0.699536         124.586         60.6821 
       0.705665         122.791         59.5321 
       0.711789         121.336         58.4128 
       0.717957         120.067         57.3146 
        0.72409         119.295         56.2509 
       0.730186         118.534         55.2209 
       0.736317         116.404         54.2115 
       0.742472         115.156         53.2239 
       0.748622         113.491         52.2623 
        0.75476         113.077         51.3267 
       0.760888         112.404         50.4156 
       0.767043         110.447         49.5232 
       0.773185         109.237         48.6544 
       0.779291         108.054         47.8115 
       0.785407          106.76         46.9874 
       0.791564         106.648         46.1777 
       0.797719         105.421         45.3876 
       0.803834         104.511         44.6211 
       0.809972         103.887         43.8698 
       0.816124         102.676         43.1343 
       0.822261         101.411         42.4177 
       0.828378         101.182         41.7198 
       0.834502          99.583         41.0371 
       0.840667         99.1337         40.3653 
       0.846816         98.1835         39.7106 
       0.852925         97.2334         39.0746 
       0.859047         96.8205         38.4513 
       0.865192         95.4708         37.8396 
       0.871341         94.4766         37.2408 
       0.877463         93.9527         36.6578 
       0.883569         93.6712         36.0888 
       0.889708          92.869         35.5291 
       0.895864         91.9844         34.9798 
       0.902008         91.2284         34.4434 
       0.908149         90.1806         33.9186 
       0.914301         89.9237         33.4039 
       0.920448         89.4361         32.9004 
       0.926574         87.8233         32.4091 
       0.932687         87.5703          31.929 
       0.938823         86.8475         31.4569 
       0.944975         85.8951         30.9933 
       0.951105         85.2553         30.5408 
       0.957225         85.1898         30.0981 
       0.963368         84.2558         29.6628 
       0.969511         83.5037         29.2361 
       0.975621         82.9758         28.8201 
       0.981748         82.1493         28.4112 
       0.987916         81.6232         28.0078 
        0.99406         81.1997         27.6137 
        1.00019         80.3457          27.228 
        1.00632         79.8673         26.8501 
        1.01246         79.3131         26.4788 
        1.01859         78.9809         26.1152 
        1.02471         78.0669         25.7589 
        1.03085         77.6168         25.4081 
        1.03698         77.1511         25.0645 
        1.04314         76.6473         24.7259 
        1.04929         76.1079         24.3944 
        1.05541         75.6191         24.0703 
        1.06154         75.2349         23.7514 
        1.06769         74.3311         23.4377 
        1.07382         73.9627         23.1308 
        1.07993         73.6199         22.8301 
        1.08607         73.0105         22.5335 
        1.09222          72.782         22.2419 
        1.09836         72.1113         21.9559 
        1.10449         71.7008         21.6752 
        1.11063         71.1251         21.3991 
        1.11677         70.9746         21.1279 
         1.1229         70.2267          20.862 
        1.12903         70.0827         20.6003 
        1.13518         69.8603          20.343 
        1.14131         69.1196         20.0902 
        1.14745         68.4803         19.8419 
        1.15359         67.9096         19.5977 
        1.15973         67.8115         19.3576 
        1.16584         67.3533         19.1226 
        1.17197         66.6513         18.8911 
        1.17811         66.4217         18.6628 
        1.18424          65.664         18.4389 
        1.19038         65.6135         18.2181 
        1.19652         65.3213          18.001 
        1.20267         64.8369         17.7874 
        1.20881         64.3975         17.5773 
        1.21495         64.1503          17.371 
        1.22108         63.8467          17.168 
         1.2272         63.3273         16.9688 
        1.23334         62.9901         16.7723 
        1.23949         62.6466         16.5784 
        1.24562         62.1482         16.3882 
        1.25174         61.7913         16.2012 
        1.25789         61.8415         16.0166 
        1.26402         61.2705         15.8353 
        1.27014         60.9309         15.6571 
        1.27628         60.4062         15.4812 
        1.28244         60.2541         15.3077 
        1.28858         59.8687          15.137 
        1.29471         59.6276         14.9694 
        1.30084         59.1054         14.8045 
        1.30697         59.0243         14.6418 
        1.31312         58.4851         14.4813 
        1.31925         58.0973         14.3237 
        1.32537         57.8669         14.1687 
        1.33151         57.5438         14.0154 
        1.33765         57.2805         13.8644 
        1.34378         57.0601          13.716 
        1.34992         56.6475         13.5696 
        1.35606         56.3197         13.4251 
         1.3622          55.967          13.283 
        1.36833         55.6635         13.1432 
        1.37445         55.2594         13.0055 
        1.38059         55.1645         12.8694 
        1.38675           54.58         12.7349 
        1.39288         54.5871         12.6028 
        1.39901         54.1641         12.4727 
        1.40515         53.9355         12.3442 
         1.4113         53.8907         12.2175 
        1.41742         53.5301         12.0931 
        1.42355         53.0424         11.9701 
         1.4297         52.7861         11.8485 
        1.43585         52.4442         11.7287 
        1.44198          52.194          11.611 
        1.44809         51.9414         11.4951 
        1.45423         51.7577         11.3804 
        1.46036         51.4947         11.2674 
        1.46649         51.3082          11.156 
        1.47263          50.933         11.0459 
        1.47877         50.7619         10.9374 
        1.48491         50.5736         10.8302 
        1.49104         50.1604         10.7247 
        1.49718         49.9593         10.6205 
        1.50333         49.8098         10.5175 
        1.50947         49.4206         10.4161 
         1.5156         49.2448         10.3161 
        1.52172         48.8779         10.2175 
        1.52787         48.6911           10.12 
          1.534         48.4751         10.0239 
        1.54013         48.3249         9.92912 
        1.54627         47.8856         9.83541 
        1.55241         47.7119         9.74289 
        1.55855         47.5969         9.65169 
        1.56467          47.334         9.56192 
         1.5708         47.1577         9.47303 
        1.57695         46.8767         9.38513 
        1.58308         46.5152         9.29856 
        1.58922         46.3283         9.21302 
        1.59535         46.1846         9.12858 
         1.6015         46.0789         9.04509 
        1.60764          45.815         8.96269 
        1.61376          45.503         8.88153 
        1.61989          45.257         8.80132 
        1.62604         45.0842         8.72192 
        1.63218         44.8412         8.64355 
        1.63831          44.747         8.56633 
        1.64444         44.4487         8.49002 
        1.65059         44.2748         8.41446 
        1.65673         43.9997          8.3399 
        1.66285         43.9393         8.26646 
        1.66898         43.5134         8.19387 
        1.67512         43.4745         8.12202 
        1.68127         43.2375         8.05096 
         1.6874         43.0104         7.98092 
        1.69353         42.9067         7.91174 
        1.69967         42.7149         7.84323 
        1.70581         42.3171         7.77555 
        1.71193         42.1575         7.70893 
        1.71806         42.0645         7.64295 
        1.72421         41.8864         7.57761 
        1.73035         41.6386         7.51312 
        1.73649         41.3613         7.44938 
        1.74262         41.1272         7.38644 
        1.74876         40.9722         7.32418 
        1.75489         40.8289         7.26277 
        1.76101         40.6962         7.20208 
        1.76715         40.5354         7.14201 
        1.77329         40.2315         7.08254 
        1.77943         40.2149         7.02373 
        1.78557         39.9619         6.96567 
        1.79171         39.8093         6.90826 
        1.79785         39.5908         6.85148 
        1.80399          39.435         6.79536 
        1.81012         39.2903         6.73993 
        1.81625         38.9642         6.68515 
        1.82239         38.8493          6.6309 
        1.82853         38.7218         6.57728 
        1.83466         38.5121          6.5243 
        1.84078         38.3213         6.47196 
        1.84692         38.1737         6.42011 
        1.85306         37.9412         6.36876 
         1.8592         37.8534         6.31806 
        1.86533         37.6641         6.26794 
        1.87147         37.4925          6.2183 
        1.87761         37.2823         6.16918 
        1.88375         37.2486         6.12065 
        1.88988         36.9799         6.07269 
        1.89601         36.7748         6.02522 
        1.90215         36.6887         5.97822 
        1.90829         36.5226         5.93175 
        1.91442         36.3086         5.88576 
        1.92056          36.184         5.84031 
         1.9267         36.0727         5.79528 
        1.93284         35.8602         5.75071 
        1.93897         35.7333         5.70669 
        1.94509         35.5904         5.66322 
        1.95123         35.4384         5.62009 
        1.95737         35.2497         5.57739 
        1.96349         35.0816         5.53524 
        1.96964         35.0538          5.4934 
        1.97578         34.7801         5.45197 
        1.98192         34.6355         5.41106 
        1.98805         34.4052         5.37056 
        1.99419         34.3915         5.33047 
        2.00033         34.1743         5.29078 
        2.00647         34.0773         5.25149 
         2.0126         33.8742         5.21268 
        2.01874         33.7043         5.17419 
        2.02488         33.6012         5.13606 
        2.03101         33.3957         5.09839 
        2.03714         33.2935         5.06113 
        2.04328         33.1748          5.0242 
        2.04941         33.0007         4.98767 
        2.05554         32.9259         4.95153 
        2.06167         32.7137         4.91569 
        2.06781         32.6246         4.88021 
        2.07396         32.5217         4.84503 
        2.08009          32.344         4.81025 
        2.08622          32.175         4.77585 
        2.09237         32.0844         4.74172 
        2.09851         31.8461         4.70792 
        2.10464         31.7224         4.67451 
        2.11077         31.7111         4.64146 
        2.11691         31.5096         4.60865 
        2.12305         31.3743         4.57616 
        2.12918         31.2375         4.54406 
        2.13531         31.1229         4.51227 
        2.14145         30.9746         4.48071 
         2.1476         30.7944         4.44941 
        2.15372         30.6952         4.41857 
        2.15985         30.6033         4.38799 
        2.16599         30.4205         4.35761 
        2.17213         30.3572         4.32755 
        2.17827         30.1525         4.29778 
         2.1844         30.0718         4.26832 
        2.19054         29.9859         4.23913 
        2.19666         29.7925         4.21025 
         2.2028         29.7339         4.18161 
        2.20893         29.5336         4.15322 
        2.21508         29.4499         4.12507 
        2.22122         29.3122         4.09717 
        2.22736          29.209         4.06958 
        2.23349         29.0387         4.04226 
        2.23962         29.0031         4.01517 
        2.24577         28.8267          3.9883 
         2.2519         28.7333         3.96172 
        2.25802         28.5513         3.93542 
        2.26417         28.4299         3.90929 
        2.27031         28.3788         3.88337 
        2.27644         28.3147         3.85776 
        2.28257         28.1552         3.83238 
        2.28872         28.0488         3.80719 
        2.29486         27.9019         3.78222 
        2.30099         27.7523         3.75753 
        2.30712         27.7067         3.73305 
        2.31326         27.5326         3.70875 
         2.3194         27.4576         3.68467 
        2.32553         27.3374         3.66085 
        2.33166         27.1888         3.63725 
         2.3378         27.1655         3.61383 
        2.34394         27.0095          3.5906 
        2.35007         26.9325         3.56762 
        2.35619         26.7876         3.54486 
        2.36233          26.672         3.52224 
        2.36848         26.5441         3.49978 
        2.37462         26.4631         3.47756 
        2.38075         26.3248         3.45555 
        2.38689         26.2145         3.43372 
        2.39303         26.1762         3.41207 
        2.39916         26.0098         3.39064 
        2.40529         25.8696         3.36939 
        2.41143         25.8273         3.34831 
        2.41757         25.6582          3.3274 
         2.4237         25.5772         3.30671 
        2.42983         25.5017         3.28619 
        2.43598         25.3789         3.26579 
        2.44211         25.3012          3.2456 
        2.44823         25.1866         3.22563 
        2.45437          25.115         3.20577 
        2.46052         24.9658         3.18605 
        2.46665         24.9202         3.16654 
        2.47279         24.7484          3.1472 
        2.47892         24.6839         3.12801 
        2.48507         24.5917         3.10896 
         2.4912         24.5016         3.09011 
