# k  (h/Mpc)    P(k)  (Mpc/h)^3    P_linear(k)  (Mpc/h)^3
     0.00783031         6782.36         6874.74 
       0.013688            8861         8824.27 
       0.019231         9308.59         9308.89 
      0.0249154         8862.37         9002.66 
      0.0312784         8120.97         8192.32 
      0.0375637         7259.28         7274.01 
      0.0433917          6408.3         6506.61 
      0.0492413         5841.94         5886.93 
      0.0555754         5252.76         5381.78 
      0.0619321         4992.69         4996.78 
       0.067871         4584.53         4688.61 
      0.0738098         4280.39          4384.4 
      0.0800417         3909.19         4044.44 
      0.0862327         3595.14         3686.96 
      0.0921407         3296.98         3346.59 
      0.0982031         2964.79         3023.33 
       0.104506         2749.18         2736.69 
       0.110769         2523.93         2511.15 
       0.116806         2344.46         2345.91 
       0.122832         2232.31          2219.3 
       0.129052         2088.49         2111.23 
       0.135211         1991.55         2010.01 
       0.141259         1910.55         1905.07 
       0.147318         1809.46         1790.66 
       0.153489         1672.19         1667.61 
       0.159709         1575.18         1544.57 
       0.165845         1498.59         1432.49 
       0.171974         1397.59         1335.83 
       0.178125         1323.68         1256.46 
       0.184229         1268.14          1193.7 
        0.19034         1188.72         1142.72 
       0.196428         1169.21         1098.39 
       0.202534         1134.46         1055.46 
       0.208729         1082.82         1010.03 
       0.214876            1029           961.9 
       0.220989         998.783         911.966 
       0.227147         943.142         861.878 
        0.23329         903.502          814.74 
       0.239377         881.618          772.83 
       0.245482         823.486         736.493 
       0.251667         814.474         705.263 
       0.257832          785.75         678.554 
       0.263955         760.558         654.738 
       0.270079         735.802         632.017 
        0.27624           727.3         609.098 
       0.282372         696.986         585.682 
        0.28843          680.16         562.112 
       0.294538         648.626         538.469 
       0.300721         644.323         515.466 
        0.30691         614.643         494.045 
       0.313033         601.902         474.844 
       0.319153         583.092         457.653 
       0.325316         566.414         442.086 
        0.33145         550.731         427.857 
       0.337538         544.248         414.483 
       0.343633         527.225         401.415 
       0.349808         510.996         388.288 
       0.355968         505.904         375.228 
       0.362074         495.249         362.468 
       0.368217         482.024         350.004 
       0.374374         464.214         338.104 
       0.380519          458.92         326.975 
       0.386598         448.351          316.73 
       0.392688         445.046         307.204 
        0.39888         432.539         298.129 
       0.405048         424.221         289.551 
       0.411186         415.747         281.332 
       0.417313         408.551         273.326 
       0.423458         401.376         265.459 
       0.429607         392.659         257.761 
       0.435692         383.233         250.346 
       0.441815         380.674         243.152 
       0.447964         373.486          236.25 
       0.454126         360.562         229.671 
       0.460267         356.548         223.452 
       0.466387         352.507         217.566 
        0.47254         345.228         211.907 
       0.478662         343.608         206.486 
       0.484765         334.078         201.255 
       0.490885         329.979         196.159 
       0.497035         324.884         191.168 
       0.503198         317.864         186.308 
       0.509342         315.159         181.616 
       0.515458         311.384         177.108 
       0.521598         306.475         172.749 
       0.527764         301.162         168.542 
       0.533884         297.897         164.533 
           0.54         293.925         160.678 
       0.546137           292.6         156.943 
       0.552299         286.927          153.31 
       0.558452         283.621         149.793 
       0.564573         278.983         146.395 
       0.570708         274.449         143.086 
       0.576825         270.943         139.879 
       0.582926         268.008         136.777 
       0.589034         264.566         133.767 
       0.595184         262.176         130.835 
       0.601379         259.766         127.979 
       0.607522         254.605         125.238 
       0.613639         253.633         122.592 
       0.619772         247.781         120.017 
       0.625918         246.194         117.512 
       0.632068         243.144         115.077 
       0.638161         241.994         112.731 
         0.6443         237.936         110.431 
       0.650464         235.825         108.185 
       0.656582         234.263         106.017 
       0.662703         231.299         103.909 
       0.668861         227.959         101.848 
       0.675024         225.532         99.8439 
       0.681124         224.598         97.9163 
       0.687237         221.053         96.0373 
       0.693381         218.129         94.1996 
       0.699536         216.589         92.4066 
       0.705665         216.235         90.6675 
       0.711789         212.161         88.9744 
       0.717957         211.183         87.3128 
        0.72409         208.632         85.7031 
       0.730186         205.684         84.1442 
       0.736317         204.446         82.6163 
       0.742472         203.283         81.1214 
       0.748622          201.77         79.6654 
        0.75476         199.998         78.2489 
       0.760888         197.248         76.8693 
       0.767043          196.24         75.5178 
       0.773185         194.188         74.2017 
       0.779291         191.259         72.9248 
       0.785407         190.494         71.6762 
       0.791564         188.704         70.4493 
       0.797719         186.492         69.2519 
       0.803834         185.673         68.0902 
       0.809972         183.492         66.9513 
       0.816124         183.539         65.8363 
       0.822261         180.929         64.7499 
       0.828378         179.423         63.6916 
       0.834502         179.117         62.6562 
       0.840667         176.371         61.6374 
       0.846816         175.315         60.6442 
       0.852925         173.873         59.6794 
       0.859047         172.172         58.7336 
       0.865192         171.287         57.8054 
       0.871341         169.436         56.8968 
       0.877463         168.354         56.0119 
       0.883569         166.894         55.1482 
       0.889708         165.855         54.2984 
       0.895864         164.179         53.4645 
       0.902008         163.282           52.65 
       0.908149         162.416          51.853 
       0.914301         160.625         51.0714 
       0.920448          159.62         50.3067 
       0.926574         158.774         49.5604 
       0.932687         157.792          48.831 
       0.938823         155.902         48.1138 
       0.944975         154.783         47.4094 
       0.951105         153.945         46.7218 
       0.957225         152.056         46.0491 
       0.963368         151.139         45.3874 
       0.969511         150.533         44.7388 
       0.975621         149.822         44.1065 
       0.981748          148.94         43.4848 
       0.987916         147.153         42.8713 
        0.99406         146.575         42.2721 
        1.00019         145.562         41.6855 
        1.00632         144.545         41.1108 
        1.01246         143.521          40.546 
        1.01859         141.972         39.9929 
        1.02471         142.009         39.4508 
        1.03085         140.537          38.917 
        1.03698         139.344         38.3943 
        1.04314         138.395          37.879 
        1.04929         137.545         37.3744 
        1.05541         136.784         36.8811 
        1.06154         135.836         36.3955 
        1.06769         135.544          35.918 
        1.07382         134.736         35.4507 
        1.07993         133.704         34.9928 
        1.08607         132.588         34.5412 
        1.09222         131.896         34.0971 
        1.09836         130.841         33.6614 
        1.10449         130.045         33.2338 
        1.11063         129.306         32.8133 
        1.11677         128.714         32.4002 
         1.1229         127.369         31.9949 
        1.12903         126.524         31.5963 
        1.13518          126.65         31.2041 
        1.14131         125.363         30.8189 
        1.14745         124.505         30.4404 
        1.15359         123.751         30.0682 
        1.15973         123.423         29.7022 
        1.16584         122.359         29.3439 
        1.17197         121.639          28.991 
        1.17811          120.94         28.6429 
        1.18424         120.063         28.3015 
        1.19038         119.486         27.9647 
        1.19652         118.829         27.6336 
        1.20267         117.957         27.3079 
        1.20881         117.275         26.9875 
        1.21495         116.475         26.6727 
        1.22108         115.841         26.3631 
         1.2272         115.124         26.0592 
        1.23334         114.512         25.7593 
        1.23949         113.367         25.4635 
        1.24562         113.277         25.1732 
        1.25174           112.3         24.8879 
        1.25789         111.759         24.6061 
        1.26402         111.337         24.3292 
        1.27014         110.319         24.0573 
        1.27628         110.019         23.7888 
        1.28244         109.134         23.5238 
        1.28858         108.637         23.2633 
        1.29471          107.88         23.0073 
        1.30084         107.264         22.7554 
        1.30697          106.63         22.5069 
        1.31312         106.292         22.2618 
        1.31925         105.609         22.0211 
        1.32537         105.161         21.7843 
        1.33151         104.118         21.5501 
        1.33765         103.625         21.3194 
        1.34378         102.941         21.0927 
        1.34992         102.774          20.869 
        1.35606         102.121         20.6482 
         1.3622         101.228         20.4309 
        1.36833         100.984         20.2173 
        1.37445           100.2         20.0069 
        1.38059         99.6824         19.7988 
        1.38675         99.0846         19.5932 
        1.39288          98.475         19.3913 
        1.39901         98.3042         19.1924 
        1.40515          97.796         18.9959 
         1.4113         96.7439         18.8021 
        1.41742         96.6485         18.6119 
        1.42355         95.8385         18.4239 
         1.4297          95.385         18.2379 
        1.43585         94.7417         18.0546 
        1.44198         94.4876         17.8746 
        1.44809         93.7654         17.6973 
        1.45423         93.2727         17.5218 
        1.46036         92.9176          17.349 
        1.46649         92.3715         17.1785 
        1.47263          91.954         17.0101 
        1.47877         91.5623         16.8441 
        1.48491         90.9142           16.68 
        1.49104         90.3832         16.5185 
        1.49718         89.9282          16.359 
        1.50333         89.4063         16.2014 
        1.50947          88.766         16.0462 
         1.5156         88.6259         15.8932 
        1.52172          87.934         15.7423 
        1.52787         87.7521          15.593 
          1.534         87.2861         15.4458 
        1.54013         86.5636         15.3007 
        1.54627         86.1446         15.1572 
        1.55241         85.6585         15.0155 
        1.55855         85.2935         14.8759 
        1.56467         84.6933         14.7384 
         1.5708         84.3602         14.6022 
        1.57695         84.0922         14.4676 
        1.58308          83.354          14.335 
        1.58922         83.1892         14.2039 
        1.59535         82.8275         14.0746 
         1.6015         82.2026         13.9467 
        1.60764         81.9229         13.8204 
        1.61376         81.3532         13.6961 
        1.61989         80.9641         13.5731 
        1.62604         80.5378         13.4515 
        1.63218         80.3398         13.3314 
        1.63831         79.7827          13.213 
        1.64444         79.4299          13.096 
        1.65059         78.7189         12.9802 
        1.65673          78.506         12.8659 
        1.66285         78.1436         12.7533 
        1.66898          77.721          12.642 
        1.67512          77.165         12.5319 
        1.68127          76.801         12.4229 
         1.6874         76.4671         12.3155 
        1.69353         76.1122         12.2095 
        1.69967         75.6556         12.1044 
        1.70581         75.4217         12.0006 
        1.71193         75.1042         11.8984 
        1.71806         74.4469         11.7972 
        1.72421         74.3321          11.697 
        1.73035         73.7952         11.5981 
        1.73649         73.3869         11.5003 
        1.74262         73.1164         11.4038 
        1.74876         72.7547         11.3082 
        1.75489         72.2696          11.214 
        1.76101         72.0313         11.1209 
        1.76715         71.5693         11.0287 
        1.77329          71.274         10.9375 
        1.77943         70.9466         10.8472 
        1.78557         70.6278         10.7581 
        1.79171         70.2002           10.67 
        1.79785         69.9877         10.5829 
        1.80399         69.4849         10.4967 
        1.81012         69.3048         10.4116 
        1.81625         68.7109         10.3275 
        1.82239         68.4015         10.2443 
        1.82853         68.0395         10.1619 
        1.83466         67.7729         10.0806 
        1.84078         67.2629         10.0002 
        1.84692         67.0336         9.92061 
        1.85306          66.765         9.84176 
         1.8592         66.2614         9.76389 
        1.86533         65.9967         9.68692 
        1.87147         65.6419         9.61068 
        1.87761         65.3574         9.53524 
        1.88375         65.2082         9.46069 
        1.88988         64.9301         9.38703 
        1.89601         64.3862         9.31411 
        1.90215         64.1413          9.2419 
        1.90829         63.9022          9.1705 
        1.91442         63.4832         9.09985 
        1.92056         63.1791         9.03001 
         1.9267         62.8029         8.96083 
        1.93284         62.4574         8.89233 
        1.93897         62.2134         8.82469 
        1.94509         61.7656         8.75789 
        1.95123         61.6255         8.69161 
        1.95737         61.4048         8.62598 
        1.96349         61.0499         8.56119 
        1.96964         60.7729         8.49688 
        1.97578         60.4246         8.43321 
        1.98192            60.2         8.37031 
        1.98805         59.9641         8.30805 
        1.99419         59.5303         8.24643 
        2.00033         59.2659          8.1854 
        2.00647         59.0512           8.125 
         2.0126          58.636         8.06532 
        2.01874         58.3342         8.00615 
        2.02488         58.2074         7.94752 
        2.03101         57.8107         7.88958 
        2.03714         57.5058         7.83228 
        2.04328         57.2368         7.77549 
        2.04941         56.9232          7.7193 
        2.05554         56.5762         7.66371 
        2.06167         56.5328          7.6086 
        2.06781         56.1631         7.55402 
        2.07396         55.8134         7.49989 
        2.08009         55.6523         7.44639 
        2.08622         55.2409         7.39348 
        2.09237         55.0606         7.34097 
        2.09851         54.7637         7.28897 
        2.10464         54.4902         7.23755 
        2.11077         54.3055          7.1867 
        2.11691         53.9349         7.13622 
        2.12305         53.6116         7.08622 
        2.12918         53.3778         7.03682 
        2.13531         53.1707         6.98789 
        2.14145           52.92         6.93932 
         2.1476         52.7347         6.89115 
        2.15372         52.3847         6.84367 
        2.15985         52.1923          6.7966 
        2.16599         51.9599         6.74984 
        2.17213         51.8062         6.70357 
        2.17827         51.4306         6.65774 
         2.1844         51.0534         6.61239 
        2.19054         50.8843         6.56744 
        2.19666         50.7137         6.52297 
         2.2028         50.5018         6.47887 
        2.20893         50.2608         6.43517 
        2.21508         50.0614         6.39181 
        2.22122           49.76         6.34884 
        2.22736         49.4663         6.30636 
        2.23349         49.3086         6.26428 
        2.23962         48.9808         6.22256 
        2.24577         48.7551         6.18118 
         2.2519         48.5604         6.14023 
        2.25802         48.4305         6.09973 
        2.26417         48.0739         6.05947 
        2.27031         47.8838         6.01954 
        2.27644          47.531         5.98009 
        2.28257         47.4349         5.94099 
        2.28872         47.0699         5.90217 
        2.29486         46.9117         5.86371 
        2.30099         46.7271         5.82567 
        2.30712         46.5022         5.78795 
        2.31326         46.2821         5.75049 
         2.3194         46.0365          5.7134 
        2.32553         45.8495         5.67669 
        2.33166         45.5795         5.64032 
         2.3378         45.3382         5.60422 
        2.34394         45.0267         5.56843 
        2.35007         44.8846         5.53299 
        2.35619         44.8218         5.49791 
        2.36233         44.5908         5.46306 
        2.36848          44.219         5.42843 
        2.37462          44.168         5.39417 
        2.38075          43.863         5.36025 
        2.38689         43.7342         5.32659 
        2.39303         43.5427         5.29322 
        2.39916         43.3415         5.26017 
        2.40529         43.0386         5.22741 
        2.41143         42.8566         5.19491 
        2.41757         42.6914         5.16266 
         2.4237         42.5172         5.13075 
        2.42983         42.2805         5.09911 
        2.43598         42.0626         5.06766 
        2.44211         41.9198         5.03652 
        2.44823         41.6627         5.00571 
        2.45437         41.5083         4.97508 
        2.46052         41.2451         4.94468 
        2.46665         41.1048         4.91458 
        2.47279         40.9431         4.88475 
        2.47892         40.6746         4.85515 
        2.48507         40.5127         4.82576 
         2.4912          40.345         4.79667 
