# k  (h/Mpc)    P(k)  (Mpc/h)^3    P_linear(k)  (Mpc/h)^3
     0.00783031            3327         3368.27 
       0.013688         4330.46         4324.73 
       0.019231          4562.5         4562.95 
      0.0249154         4366.19         4413.28 
      0.0312784         3996.95         4016.32 
      0.0375637         3567.53         3566.29 
      0.0433917         3163.94         3190.15 
      0.0492413          2878.1         2886.39 
      0.0555754         2603.24         2638.76 
      0.0619321         2457.66         2450.03 
       0.067871         2272.41         2298.95 
      0.0738098          2122.1         2149.81 
      0.0800417         1944.88         1983.13 
      0.0862327         1784.07         1807.86 
      0.0921407         1629.36         1640.97 
      0.0982031         1466.04         1482.47 
       0.104506          1349.2         1341.92 
       0.110769         1237.96         1231.33 
       0.116806         1148.43         1150.31 
       0.122832         1093.71         1088.23 
       0.129052         1028.44         1035.24 
       0.135211         979.262         985.611 
       0.141259         936.219         934.157 
       0.147318         885.376         878.055 
       0.153489         819.716         817.716 
       0.159709         766.615         757.387 
       0.165845         723.801          702.43 
       0.171974         671.506         655.031 
       0.178125         635.187         616.111 
       0.184229         607.569          585.34 
        0.19034           570.9         560.339 
       0.196428         558.378         538.603 
       0.202534         542.336         517.553 
       0.208729          516.54         495.274 
       0.214876         488.924         471.675 
       0.220989         473.127          447.19 
       0.227147         443.505         422.629 
        0.23329         423.069         399.515 
       0.239377         408.596         378.964 
       0.245482         383.066         361.146 
       0.251667         375.789         345.832 
       0.257832         362.824         332.735 
       0.263955         350.354         321.057 
       0.270079         338.958         309.915 
        0.27624         332.743         298.677 
       0.282372         319.636         287.195 
        0.28843         307.769         275.637 
       0.294538         295.079         264.044 
       0.300721         289.818         252.764 
        0.30691         276.261          242.26 
       0.313033         268.572         232.845 
       0.319153         257.089         224.415 
       0.325316         251.709         216.782 
        0.33145         243.473         209.804 
       0.337538         239.477         203.246 
       0.343633         231.816         196.838 
       0.349808         225.076         190.401 
       0.355968         220.266         183.997 
       0.362074         213.884          177.74 
       0.368217          208.16         171.628 
       0.374374         201.943         165.793 
       0.380519         197.326         160.336 
       0.386598         192.247         155.312 
       0.392688         189.129         150.641 
        0.39888         184.165         146.191 
       0.405048         180.291         141.984 
       0.411186         176.387         137.954 
       0.417313         171.938         134.028 
       0.423458         168.349         130.171 
       0.429607         164.112         126.396 
       0.435692         159.022          122.76 
       0.441815         157.735         119.232 
       0.447964         155.175         115.848 
       0.454126         148.593         112.622 
       0.460267          146.73         109.572 
       0.466387          144.08         106.686 
        0.47254         141.696         103.911 
       0.478662         139.757         101.253 
       0.484765         136.144         98.6879 
       0.490885         133.709         96.1888 
       0.497035         131.993         93.7413 
       0.503198         128.511         91.3581 
       0.509342         125.919         89.0573 
       0.515458          124.12         86.8468 
       0.521598         122.576         84.7095 
       0.527764         120.543         82.6465 
       0.533884         118.425         80.6808 
           0.54         116.468         78.7905 
       0.546137         115.297         76.9588 
       0.552299         113.622         75.1776 
       0.558452         110.787         73.4528 
       0.564573         108.824         71.7866 
       0.570708         107.718         70.1637 
       0.576825         105.804         68.5915 
       0.582926         103.992           67.07 
       0.589034         101.812          65.594 
       0.595184         100.783         64.1564 
       0.601379         99.7015         62.7562 
       0.607522         97.2226         61.4118 
       0.613639         97.1171         60.1142 
       0.619772         94.7516         58.8519 
       0.625918         94.1356         57.6235 
       0.632068         92.8819         56.4294 
       0.638161         91.6091          55.279 
         0.6443         90.2925         54.1513 
       0.650464         89.0439           53.05 
       0.656582         88.1967         51.9869 
       0.662703         86.4489          50.953 
       0.668861         85.6148         49.9423 
       0.675024         84.4922         48.9596 
       0.681124         83.2865         48.0145 
       0.687237         81.9264         47.0931 
       0.693381          81.237         46.1919 
       0.699536         79.9097         45.3127 
       0.705665         80.2857         44.4599 
       0.711789         78.1693         43.6297 
       0.717957          77.636         42.8149 
        0.72409         76.5195         42.0256 
       0.730186         75.3383         41.2611 
       0.736317         75.1036         40.5119 
       0.742472         73.9458         39.7788 
       0.748622         73.4269         39.0649 
        0.75476         72.5222         38.3703 
       0.760888         71.5313         37.6938 
       0.767043         70.8259          37.031 
       0.773185         69.9403         36.3857 
       0.779291         69.5639         35.7595 
       0.785407         68.9053         35.1473 
       0.791564         67.8331         34.5456 
       0.797719         66.8795         33.9585 
       0.803834         66.7175         33.3889 
       0.809972         65.6649         32.8304 
       0.816124         64.7998         32.2836 
       0.822261         64.4977         31.7509 
       0.828378         63.9149         31.2319 
       0.834502         63.1799         30.7242 
       0.840667         62.6925         30.2246 
       0.846816         61.8862         29.7376 
       0.852925         61.3423         29.2645 
       0.859047         60.5404         28.8008 
       0.865192         60.3009         28.3456 
       0.871341         59.9377            27.9 
       0.877463         58.7832         27.4661 
       0.883569         58.4426         27.0426 
       0.889708         58.1145         26.6259 
       0.895864         57.5517          26.217 
       0.902008         57.0941         25.8176 
       0.908149         56.6192         25.4268 
       0.914301         56.2636         25.0435 
       0.920448         55.4313         24.6685 
       0.926574         55.1752         24.3026 
       0.932687         54.6477         23.9449 
       0.938823         53.9044         23.5932 
       0.944975         53.7671         23.2478 
       0.951105         53.2588         22.9106 
       0.957225         52.6314         22.5807 
       0.963368         52.4333         22.2563 
       0.969511         52.0655         21.9382 
       0.975621         51.6417         21.6282 
       0.981748         51.0182         21.3233 
       0.987916         50.7932         21.0225 
        0.99406          50.448         20.7286 
        1.00019         49.7709          20.441 
        1.00632         49.6128         20.1592 
        1.01246         49.1756         19.8822 
        1.01859         48.6357          19.611 
        1.02471         48.6682         19.3452 
        1.03085         48.1491         19.0834 
        1.03698          47.559         18.8271 
        1.04314         47.1517         18.5744 
        1.04929         46.9802          18.327 
        1.05541          46.467         18.0851 
        1.06154         46.3382          17.847 
        1.06769         45.9407         17.6128 
        1.07382          45.619         17.3837 
        1.07993         45.4709         17.1592 
        1.08607         44.9217         16.9377 
        1.09222         44.7712         16.7199 
        1.09836         44.2999         16.5063 
        1.10449         44.1041         16.2966 
        1.11063         43.5187         16.0904 
        1.11677          43.383         15.8878 
         1.1229         43.2551         15.6891 
        1.12903         42.6698         15.4936 
        1.13518         42.4924         15.3013 
        1.14131         42.4162         15.1124 
        1.14745         41.9776         14.9268 
        1.15359         41.8031         14.7443 
        1.15973         41.3334         14.5648 
        1.16584         41.0174         14.3891 
        1.17197         41.0475         14.2161 
        1.17811         40.5479         14.0454 
        1.18424         40.2151          13.878 
        1.19038         40.1837         13.7129 
        1.19652         39.9042         13.5505 
        1.20267         39.6234         13.3907 
        1.20881         39.3607         13.2336 
        1.21495         39.0727         13.0793 
        1.22108         38.8209         12.9275 
         1.2272         38.4206         12.7784 
        1.23334         38.3052         12.6314 
        1.23949         38.0757         12.4863 
        1.24562         37.9402          12.344 
        1.25174           37.72         12.2041 
        1.25789           37.49         12.0659 
        1.26402         37.2903         11.9301 
        1.27014         36.9305         11.7968 
        1.27628          36.723         11.6651 
        1.28244         36.5521         11.5352 
        1.28858         36.3979         11.4074 
        1.29471         36.1478         11.2819 
        1.30084         35.9318         11.1584 
        1.30697         35.6705         11.0366 
        1.31312         35.3826         10.9164 
        1.31925         35.2697         10.7983 
        1.32537         35.1324         10.6822 
        1.33151         34.8558         10.5673 
        1.33765         34.7801         10.4543 
        1.34378         34.6259         10.3431 
        1.34992         34.1144         10.2334 
        1.35606         34.0609         10.1251 
         1.3622         33.8724         10.0186 
        1.36833         33.6848         9.91382 
        1.37445         33.6438         9.81063 
        1.38059         33.4581         9.70859 
        1.38675         33.1307         9.60777 
        1.39288         33.0366         9.50879 
        1.39901         32.7593         9.41125 
        1.40515         32.6246         9.31486 
         1.4113         32.4931         9.21987 
        1.41742         32.1662         9.12656 
        1.42355         32.1426         9.03438 
         1.4297         31.9178          8.9432 
        1.43585         31.8615         8.85332 
        1.44198         31.5336         8.76502 
        1.44809          31.454         8.67809 
        1.45423         31.3201         8.59203 
        1.46036          31.202          8.5073 
        1.46649         30.9825         8.42368 
        1.47263         30.8018         8.34112 
        1.47877         30.6655         8.25971 
        1.48491         30.4883         8.17927 
        1.49104         30.4374         8.10007 
        1.49718         30.1517         8.02186 
        1.50333         30.0609         7.94456 
        1.50947         29.9377         7.86845 
         1.5156         29.7193         7.79345 
        1.52172          29.493         7.71942 
        1.52787         29.5026         7.64622 
          1.534         29.2857         7.57406 
        1.54013         29.0745          7.5029 
        1.54627         29.0249         7.43254 
        1.55241         28.8188         7.36306 
        1.55855         28.7033         7.29458 
        1.56467         28.6011         7.22715 
         1.5708          28.461         7.16039 
        1.57695         28.1871         7.09437 
        1.58308         28.2407         7.02934 
        1.58922         28.0416         6.96509 
        1.59535          27.851         6.90165 
         1.6015         27.7442         6.83893 
        1.60764         27.6824         6.77701 
        1.61376         27.5262         6.71604 
        1.61989         27.2719         6.65576 
        1.62604         27.2554          6.5961 
        1.63218          27.057          6.5372 
        1.63831         27.0003         6.47916 
        1.64444          26.818         6.42181 
        1.65059         26.6925         6.36501 
        1.65673         26.6085         6.30897 
        1.66285         26.4602         6.25376 
        1.66898         26.3489         6.19919 
        1.67512         26.2498         6.14517 
        1.68127          26.047         6.09174 
         1.6874         25.9611         6.03908 
        1.69353         25.9345         5.98706 
        1.69967         25.6979         5.93554 
        1.70581         25.5737         5.88465 
        1.71193         25.4373         5.83455 
        1.71806         25.3933         5.78492 
        1.72421         25.2693         5.73578 
        1.73035         25.1892         5.68727 
        1.73649         24.9995         5.63932 
        1.74262         24.9552         5.59197 
        1.74876         24.8117         5.54514 
        1.75489         24.6953         5.49894 
        1.76101         24.6053         5.45328 
        1.76715         24.5357         5.40807 
        1.77329         24.4284         5.36333 
        1.77943         24.2842         5.31907 
        1.78557         24.1632         5.27538 
        1.79171         24.0997         5.23217 
        1.79785         23.9615         5.18944 
        1.80399         23.8696          5.1472 
        1.81012         23.7766         5.10548 
        1.81625         23.6609         5.06424 
        1.82239         23.5971          5.0234 
        1.82853         23.4075         4.98303 
        1.83466         23.3325         4.94314 
        1.84078         23.1671         4.90374 
        1.84692          23.157          4.8647 
        1.85306         23.0033         4.82603 
         1.8592         22.9523         4.78785 
        1.86533         22.8383          4.7501 
        1.87147         22.7381         4.71272 
        1.87761         22.6968         4.67573 
        1.88375         22.5171         4.63917 
        1.88988         22.4928         4.60305 
        1.89601         22.3685         4.56729 
        1.90215         22.2569         4.53189 
        1.90829         22.2071         4.49687 
        1.91442         22.0779         4.46223 
        1.92056         22.0041         4.42798 
         1.9267         21.9284         4.39406 
        1.93284         21.8059         4.36047 
        1.93897         21.7218          4.3273 
        1.94509         21.6382         4.29454 
        1.95123         21.5338         4.26204 
        1.95737         21.4253         4.22986 
        1.96349         21.3589         4.19809 
        1.96964         21.2512         4.16655 
        1.97578         21.1941         4.13533 
        1.98192         21.0585         4.10449 
        1.98805         21.0123         4.07396 
        1.99419         20.9084         4.04374 
        2.00033         20.8244         4.01382 
        2.00647         20.7768          3.9842 
         2.0126         20.5915         3.95493 
        2.01874         20.5552         3.92592 
        2.02488         20.4748         3.89717 
        2.03101         20.4626         3.86876 
        2.03714         20.3245         3.84066 
        2.04328         20.2208         3.81281 
        2.04941         20.1436         3.78526 
        2.05554         20.1275           3.758 
        2.06167         20.0279         3.73097 
        2.06781          19.931         3.70421 
        2.07396         19.8418         3.67767 
        2.08009          19.776         3.65144 
        2.08622         19.6931         3.62549 
        2.09237         19.6179         3.59974 
        2.09851         19.5129         3.57424 
        2.10464          19.455         3.54903 
        2.11077         19.3641         3.52409 
        2.11691         19.3051         3.49934 
        2.12305         19.1977         3.47482 
        2.12918         19.1386          3.4506 
        2.13531         19.0691          3.4266 
        2.14145         18.9768         3.40278 
         2.1476         18.9065         3.37916 
        2.15372         18.8554         3.35588 
        2.15985         18.7335          3.3328 
        2.16599         18.7031         3.30987 
        2.17213         18.6482         3.28718 
        2.17827         18.5696         3.26471 
         2.1844          18.491         3.24247 
        2.19054         18.4001         3.22043 
        2.19666         18.3431         3.19862 
         2.2028         18.2729           3.177 
        2.20893         18.1803         3.15557 
        2.21508         18.1412         3.13431 
        2.22122          18.023         3.11324 
        2.22736         17.9675         3.09241 
        2.23349          17.894         3.07177 
        2.23962         17.8499         3.05131 
        2.24577         17.7541         3.03102 
         2.2519         17.7168         3.01094 
        2.25802          17.647         2.99108 
        2.26417         17.5785         2.97134 
        2.27031         17.5184         2.95176 
        2.27644         17.4498         2.93241 
        2.28257         17.3786         2.91324 
        2.28872         17.2973         2.89421 
        2.29486         17.2713         2.87535 
        2.30099         17.1863         2.85669 
        2.30712          17.134         2.83819 
        2.31326         17.0674         2.81983 
         2.3194         16.9493         2.80164 
        2.32553         16.9349         2.78364 
        2.33166         16.8261          2.7658 
         2.3378         16.7871          2.7481 
        2.34394         16.7035         2.73055 
        2.35007         16.6282         2.71318 
        2.35619          16.594         2.69597 
        2.36233         16.5231         2.67888 
        2.36848         16.4984          2.6619 
        2.37462         16.4388          2.6451 
        2.38075         16.3541         2.62847 
        2.38689         16.3043         2.61196 
        2.39303         16.2452          2.5956 
        2.39916         16.1679          2.5794 
        2.40529         16.1268         2.56333 
        2.41143         16.0541         2.54739 
        2.41757         16.0158         2.53158 
         2.4237         15.9159         2.51593 
        2.42983          15.886         2.50042 
        2.43598         15.8197         2.48499 
        2.44211         15.7343         2.46972 
        2.44823         15.6894         2.45462 
        2.45437         15.6614          2.4396 
        2.46052         15.6166         2.42469 
        2.46665         15.5272         2.40993 
        2.47279          15.485          2.3953 
        2.47892         15.4154         2.38078 
        2.48507         15.3699         2.36637 
         2.4912         15.3276         2.35211 
