# k  (h/Mpc)    P(k)  (Mpc/h)^3    P_linear(k)  (Mpc/h)^3
     0.00783031         11345.1         11421.8 
       0.013688         13634.2         13963.5 
       0.019231         13816.2         14004.9 
      0.0249154         12827.8         12801.5 
      0.0312784         10828.1         10911.3 
      0.0375637         9000.41         9125.14 
      0.0433917         7792.52         7813.85 
      0.0492413          6815.1         6877.95 
      0.0555754         6205.74         6212.62 
      0.0619321         5597.46         5763.79 
       0.067871         5327.13         5411.07 
      0.0738098         4986.83         5033.16 
      0.0800417         4545.51         4571.64 
      0.0862327          4029.1         4065.46 
      0.0921407         3583.85         3586.46 
      0.0982031         3204.69         3150.55 
       0.104506          2814.6         2792.55 
       0.110769         2584.16         2540.74 
       0.116806         2463.35         2380.46 
       0.122832         2323.78         2272.64 
       0.129052         2222.33         2182.13 
       0.135211         2157.76         2084.52 
       0.141259         2006.64         1965.56 
       0.147318         1850.08          1823.1 
       0.153489          1719.6         1665.84 
       0.159709         1617.22         1512.43 
       0.165845         1461.18         1381.06 
       0.171974         1410.21         1277.78 
       0.178125         1347.44         1202.55 
       0.184229         1251.43         1150.23 
        0.19034         1230.98         1110.85 
       0.196428         1195.92         1074.79 
       0.202534         1120.79          1034.2 
       0.208729         1099.76         984.788 
       0.214876         1048.31         928.353 
       0.220989          980.45         868.976 
       0.227147         949.757         811.189 
        0.23329         907.359          760.06 
       0.239377         891.908         718.271 
       0.245482         844.743         685.376 
       0.251667           812.8         659.404 
       0.257832         802.455         637.916 
       0.263955         761.886         617.863 
       0.270079         736.834         596.671 
        0.27624         706.277         573.112 
       0.282372         691.914         547.613 
        0.28843         683.534         521.544 
       0.294538         647.491         495.976 
       0.300721          628.97         472.224 
        0.30691         616.498         451.499 
       0.313033         588.551          434.08 
       0.319153         579.665         419.297 
       0.325316         569.877         406.127 
        0.33145         556.615         393.801 
       0.337538         536.434         381.527 
       0.343633         521.531         368.829 
       0.349808         508.648         355.485 
       0.355968         498.868         342.026 
       0.362074         481.531         328.989 
       0.368217         478.683         316.612 
       0.374374         469.383          305.28 
       0.380519         450.378         295.084 
       0.386598         445.612         286.018 
       0.392688         434.611         277.683 
        0.39888         423.472         269.668 
       0.405048         415.158         261.902 
       0.411186         413.688         254.196 
       0.417313         407.994         246.493 
       0.423458         396.286         238.829 
       0.429607         385.216         231.323 
       0.435692         379.483         224.198 
       0.441815         372.655         217.444 
       0.447964         364.606         211.102 
       0.454126         360.166         205.175 
       0.460267         354.319          199.64 
       0.466387         347.512         194.389 
        0.47254         342.797         189.281 
       0.478662         334.945         184.321 
       0.484765         330.841         179.469 
       0.490885         327.043         174.685 
       0.497035         320.649         169.992 
       0.503198         319.765          165.45 
       0.509342         311.902         161.111 
       0.515458         306.839         156.985 
       0.521598         301.636         153.038 
       0.527764         297.462         149.263 
       0.533884         295.747         145.674 
           0.54         291.109          142.21 
       0.546137         284.745         138.829 
       0.552299          283.54         135.522 
       0.558452         278.725         132.308 
       0.564573         276.657         129.194 
       0.570708         271.693         126.162 
       0.576825         267.185         123.235 
       0.582926         265.139         120.417 
       0.589034         260.916         117.703 
       0.595184         259.126         115.073 
       0.601379         254.925         112.515 
       0.607522         249.571         110.058 
       0.613639         248.507         107.681 
       0.619772         247.107         105.365 
       0.625918         243.319         103.109 
       0.632068          239.67         100.913 
       0.638161         238.153         98.7975 
         0.6443         235.453         96.7252 
       0.650464         231.766         94.7047 
       0.656582         229.716         92.7585 
       0.662703         228.264         90.8704 
       0.668861         223.784         89.0293 
       0.675024         223.177         87.2416 
       0.681124         220.294          85.523 
       0.687237         218.384         83.8475 
       0.693381         215.285         82.2076 
       0.699536         213.823         80.6063 
       0.705665         211.585         79.0528 
       0.711789         209.324         77.5408 
       0.717957           207.2         76.0581 
        0.72409         204.598         74.6232 
       0.730186         205.705         73.2357 
       0.736317         202.164         71.8775 
       0.742472         199.711           70.55 
       0.748622         197.117          69.258 
        0.75476         197.505         68.0017 
       0.760888         194.853         66.7785 
       0.767043         192.037         65.5802 
       0.773185         190.661         64.4136 
       0.779291         188.316         63.2818 
       0.785407          187.46         62.1755 
       0.791564         185.729         61.0889 
       0.797719         182.721          60.029 
       0.803834         183.743         59.0013 
       0.809972         181.537         57.9945 
       0.816124         178.622         57.0094 
       0.822261         177.467         56.0503 
       0.828378         177.112         55.1164 
       0.834502         174.742         54.2032 
       0.840667         174.581          53.305 
       0.846816         171.604         52.4299 
       0.852925         170.896           51.58 
       0.859047         169.228         50.7472 
       0.865192         168.812         49.9301 
       0.871341         166.746         49.1306 
       0.877463         165.218         48.3523 
       0.883569          165.08         47.5929 
       0.889708         163.418          46.846 
       0.895864         161.892         46.1133 
       0.902008         160.344          45.398 
       0.908149         158.829         44.6983 
       0.914301         158.042         44.0124 
       0.920448         157.757         43.3416 
       0.926574          155.52         42.6873 
       0.932687         155.215         42.0479 
       0.938823         153.971         41.4195 
       0.944975         152.987         40.8025 
       0.951105         151.424         40.2005 
       0.957225         150.615         39.6117 
       0.963368         149.625         39.0327 
       0.969511         147.941         38.4655 
       0.975621         146.575         37.9126 
       0.981748         145.944         37.3692 
       0.987916         145.174         36.8332 
        0.99406         144.196         36.3098 
        1.00019         143.257         35.7976 
        1.00632          142.22         35.2959 
        1.01246         141.275         34.8031 
        1.01859          140.25         34.3206 
        1.02471         139.235         33.8478 
        1.03085         138.255         33.3825 
        1.03698         137.235         32.9269 
        1.04314         136.875         32.4779 
        1.04929         136.143         32.0384 
        1.05541          135.23         31.6089 
        1.06154         133.895         31.1862 
        1.06769         133.225         30.7706 
        1.07382         132.556         30.3641 
        1.07993         131.447         29.9658 
        1.08607         130.817         29.5731 
        1.09222         129.763         29.1871 
        1.09836          129.05         28.8085 
        1.10449         128.121          28.437 
        1.11063          127.29         28.0717 
        1.11677         126.654          27.713 
         1.1229          125.58         27.3612 
        1.12903          124.85         27.0152 
        1.13518         123.992          26.675 
        1.14131         123.481         26.3408 
        1.14745         122.698         26.0126 
        1.15359         121.509         25.6899 
        1.15973         121.159         25.3726 
        1.16584          120.36         25.0621 
        1.17197         119.775         24.7564 
        1.17811         118.687         24.4549 
        1.18424         118.213         24.1593 
        1.19038         117.545         23.8677 
        1.19652         116.825         23.5811 
        1.20267         116.013         23.2993 
        1.20881         115.176         23.0221 
        1.21495         114.795         22.7499 
        1.22108         114.052         22.4821 
         1.2272         113.271         22.2194 
        1.23334         112.921         21.9602 
        1.23949         112.293         21.7046 
        1.24562         111.423         21.4538 
        1.25174         110.999         21.2073 
        1.25789         110.053          20.964 
        1.26402         109.783          20.725 
        1.27014         108.983         20.4902 
        1.27628         108.123         20.2585 
        1.28244         107.901         20.0299 
        1.28858         106.974         19.8051 
        1.29471          106.37         19.5843 
        1.30084         105.633         19.3671 
        1.30697         105.163         19.1529 
        1.31312         104.511         18.9416 
        1.31925         103.791         18.7342 
        1.32537         103.396         18.5301 
        1.33151         103.168         18.3283 
        1.33765         102.219         18.1297 
        1.34378         101.913         17.9344 
        1.34992         101.442         17.7419 
        1.35606         100.773         17.5517 
         1.3622         100.521         17.3648 
        1.36833         99.4415          17.181 
        1.37445         99.2783         16.9999 
        1.38059         98.6946         16.8209 
        1.38675         97.9664         16.6441 
        1.39288         97.3985         16.4705 
        1.39901         96.8801         16.2995 
        1.40515         96.4513         16.1305 
         1.4113         95.9119         15.9641 
        1.41742         95.3936         15.8006 
        1.42355         95.1004          15.639 
         1.4297         94.3347         15.4793 
        1.43585         93.9187         15.3219 
        1.44198         93.1412         15.1673 
        1.44809         92.6188         15.0151 
        1.45423         92.6095         14.8644 
        1.46036         91.7191         14.7161 
        1.46649         91.2057         14.5698 
        1.47263          90.744         14.4253 
        1.47877         90.3071         14.2829 
        1.48491         89.9078         14.1422 
        1.49104         89.0347         14.0037 
        1.49718         88.8202         13.8669 
        1.50333         88.4821         13.7318 
        1.50947         88.0355         13.5988 
         1.5156         87.6915         13.4677 
        1.52172         86.9079         13.3383 
        1.52787         86.6241         13.2104 
          1.534         86.1264         13.0843 
        1.54013         85.7767         12.9601 
        1.54627         85.0628         12.8372 
        1.55241         84.9798         12.7159 
        1.55855         84.1968         12.5963 
        1.56467         83.6481         12.4786 
         1.5708         83.1894          12.362 
        1.57695         82.9833         12.2468 
        1.58308         82.4875         12.1334 
        1.58922         82.3659         12.0212 
        1.59535         82.0483         11.9106 
         1.6015          81.317         11.8012 
        1.60764         80.8653         11.6932 
        1.61376         80.5828         11.5869 
        1.61989         80.0336         11.4818 
        1.62604         79.7057         11.3778 
        1.63218         79.3748         11.2751 
        1.63831         78.9279         11.1739 
        1.64444         78.4499          11.074 
        1.65059         78.0448          10.975 
        1.65673          77.796         10.8774 
        1.66285         77.2487         10.7812 
        1.66898         76.7293         10.6862 
        1.67512         76.3659         10.5921 
        1.68127          76.164         10.4991 
         1.6874          75.614         10.4074 
        1.69353         75.2141         10.3168 
        1.69967         74.8986         10.2272 
        1.70581         74.5997         10.1386 
        1.71193         74.1089         10.0514 
        1.71806         73.8387         9.96506 
        1.72421          73.424         9.87957 
        1.73035         73.0911         9.79517 
        1.73649          72.617         9.71179 
        1.74262         72.2535         9.62944 
        1.74876         71.9158         9.54799 
        1.75489         71.5543         9.46766 
        1.76101         71.1835         9.38828 
        1.76715         70.8296          9.3097 
        1.77329         70.4307         9.23193 
        1.77943         70.2723         9.15502 
        1.78557         69.8906         9.07909 
        1.79171          69.374         9.00402 
        1.79785         69.0011         8.92978 
        1.80399         68.9064          8.8564 
        1.81012         68.3773         8.78394 
        1.81625         68.0492         8.71232 
        1.82239         67.7141          8.6414 
        1.82853         67.3153          8.5713 
        1.83466          66.958         8.50204 
        1.84078         66.7475         8.43363 
        1.84692         66.6091         8.36586 
        1.85306          66.205         8.29875 
         1.8592         65.8433         8.23249 
        1.86533         65.4539         8.16698 
        1.87147         65.1309         8.10212 
        1.87761         64.6509         8.03794 
        1.88375          64.514         7.97452 
        1.88988         63.9911         7.91186 
        1.89601         63.9515         7.84984 
        1.90215         63.4276         7.78844 
        1.90829         63.1418         7.72773 
        1.91442         62.7998         7.66765 
        1.92056         62.6892         7.60828 
         1.9267         62.2463         7.54947 
        1.93284          62.024         7.49125 
        1.93897         61.6452         7.43376 
        1.94509         61.3491         7.37699 
        1.95123         61.0915         7.32067 
        1.95737         60.8247          7.2649 
        1.96349         60.5599         7.20986 
        1.96964         60.2271         7.15523 
        1.97578         59.8667         7.10114 
        1.98192         59.5172         7.04773 
        1.98805         59.0855         6.99485 
        1.99419         59.0991         6.94252 
        2.00033         58.6111          6.8907 
        2.00647         58.3979         6.83942 
         2.0126         58.1424         6.78875 
        2.01874         58.0524         6.73852 
        2.02488         57.7005         6.68876 
        2.03101         57.3276         6.63959 
        2.03714         57.0944         6.59096 
        2.04328          56.809         6.54276 
        2.04941         56.3692         6.49509 
        2.05554         56.2418         6.44793 
        2.06167         55.9686         6.40117 
        2.06781         55.7055         6.35487 
        2.07396         55.4217         6.30896 
        2.08009         55.1545         6.26359 
        2.08622         54.9191         6.21871 
        2.09237         54.6602         6.17419 
        2.09851          54.216         6.13009 
        2.10464         54.0626          6.0865 
        2.11077         53.8973         6.04338 
        2.11691         53.5915         6.00059 
        2.12305         53.2846         5.95821 
        2.12918         52.9971         5.91634 
        2.13531         52.8077         5.87487 
        2.14145           52.51         5.83371 
         2.1476         52.4295         5.79289 
        2.15372         52.0561         5.75267 
        2.15985         51.7827         5.71278 
        2.16599         51.5431         5.67317 
        2.17213         51.2731         5.63397 
        2.17827         51.0331         5.59515 
         2.1844         50.7104         5.55674 
        2.19054         50.6768         5.51867 
        2.19666         50.4241         5.48101 
         2.2028         50.0523         5.44367 
        2.20893         49.8063         5.40666 
        2.21508         49.4926         5.36996 
        2.22122         49.3019         5.33358 
        2.22736         49.0892         5.29762 
        2.23349         48.8826         5.26199 
        2.23962         48.6921         5.22668 
        2.24577         48.4149         5.19166 
         2.2519         48.1708         5.15701 
        2.25802         47.9591         5.12273 
        2.26417         47.7044         5.08867 
        2.27031         47.5509         5.05488 
        2.27644         47.3421         5.02151 
        2.28257         47.0148         4.98843 
        2.28872         46.8781         4.95559 
        2.29486          46.666         4.92306 
        2.30099         46.2957         4.89088 
        2.30712         46.2011         4.85898 
        2.31326         46.0131          4.8273 
         2.3194         45.7504         4.79593 
        2.32553         45.5527         4.76489 
        2.33166         45.3302         4.73414 
         2.3378         45.0917         4.70362 
        2.34394         44.8933         4.67336 
        2.35007         44.6739         4.64341 
        2.35619         44.4794         4.61376 
        2.36233         44.2694         4.58429 
        2.36848         44.0703         4.55503 
        2.37462          43.758         4.52608 
        2.38075         43.6725         4.49741 
        2.38689         43.4216         4.46897 
        2.39303         43.2572         4.44077 
        2.39916         43.0128         4.41285 
        2.40529         42.8771         4.38517 
        2.41143          42.673         4.35771 
        2.41757         42.5009         4.33048 
         2.4237         42.3088         4.30352 
        2.42983         42.0798          4.2768 
        2.43598          41.897         4.25023 
        2.44211          41.596         4.22393 
        2.44823         41.5075         4.19792 
        2.45437         41.2946         4.17205 
        2.46052         41.0019         4.14638 
        2.46665         40.8673         4.12097 
        2.47279         40.6642         4.09579 
        2.47892         40.5219         4.07079 
        2.48507         40.3862         4.04598 
         2.4912          40.056         4.02143 
