# k  (h/Mpc)    P(k)  (Mpc/h)^3    P_linear(k)  (Mpc/h)^3
     0.00783031         2242.65         2263.05 
       0.013688         2730.52         2768.91 
       0.019231         2760.16         2778.27 
      0.0249154         2542.61         2540.18 
      0.0312784         2162.36          2165.5 
      0.0375637         1804.59         1811.23 
      0.0433917         1554.52         1551.08 
      0.0492413         1363.51         1365.38 
      0.0555754         1238.31         1233.36 
      0.0619321         1132.53          1144.3 
       0.067871         1071.66          1074.3 
      0.0738098         998.377         999.293 
      0.0800417         909.517          907.68 
      0.0862327         806.536         807.193 
      0.0921407         712.477         712.097 
      0.0982031         630.463         625.553 
       0.104506         554.631         554.476 
       0.110769         506.065         504.482 
       0.116806         478.531         472.661 
       0.122832         453.195         451.255 
       0.129052         436.475         433.285 
       0.135211         419.045         413.907 
       0.141259         392.778         390.287 
       0.147318         362.209             362 
       0.153489          333.28         330.776 
       0.159709         305.781         300.314 
       0.165845         276.359          274.23 
       0.171974         261.319         253.724 
       0.178125          246.19         238.786 
       0.184229         233.274         228.396 
        0.19034         227.312         220.577 
       0.196428          219.71         213.418 
       0.202534         208.091         205.359 
       0.208729         201.123         195.547 
       0.214876         191.331         184.341 
       0.220989         176.995         172.551 
       0.227147         168.893         161.077 
        0.23329         159.516         150.924 
       0.239377         152.333         142.626 
       0.245482         144.757         136.094 
       0.251667          138.48         130.937 
       0.257832         136.127         126.671 
       0.263955         129.899         122.689 
       0.270079         125.365         118.481 
        0.27624         119.962         113.803 
       0.282372         115.408          108.74 
        0.28843         112.442         103.563 
       0.294538         106.811          98.486 
       0.300721          101.43         93.7696 
        0.30691         98.7356         89.6544 
       0.313033         94.5559         86.1955 
       0.319153         92.6931         83.2601 
       0.325316         88.8294         80.6449 
        0.33145         86.0195         78.1974 
       0.337538         83.5142           75.76 
       0.343633         81.1454         73.2387 
       0.349808         78.2857         70.5889 
       0.355968         75.6628         67.9165 
       0.362074         73.9104         65.3276 
       0.368217         71.4791         62.8701 
       0.374374         69.6392         60.6199 
       0.380519         66.6515         58.5951 
       0.386598         64.7584         56.7949 
       0.392688         62.8217         55.1399 
        0.39888         61.6587         53.5484 
       0.405048         60.1838         52.0063 
       0.411186         58.5883         50.4761 
       0.417313         56.8973         48.9465 
       0.423458         55.2166         47.4246 
       0.429607         54.1634         45.9341 
       0.435692         53.1403         44.5193 
       0.441815         51.0884         43.1783 
       0.447964         49.4923         41.9188 
       0.454126         48.6133         40.7419 
       0.460267         48.0724         39.6429 
       0.466387         46.7093         38.6002 
        0.47254         46.0066         37.5859 
       0.478662         44.5022          36.601 
       0.484765         43.5734         35.6376 
       0.490885         42.3042         34.6874 
       0.497035         41.6311         33.7556 
       0.503198         40.6941         32.8536 
       0.509342         39.5513          31.992 
       0.515458         39.0166         31.1728 
       0.521598          38.074          30.389 
       0.527764         37.5224         29.6395 
       0.533884         36.6962         28.9267 
           0.54         35.9452         28.2389 
       0.546137         34.8674         27.5676 
       0.552299         34.2567         26.9109 
       0.558452         33.5233         26.2726 
       0.564573         33.1982         25.6544 
       0.570708         32.3081         25.0523 
       0.576825         31.8713          24.471 
       0.582926         31.3013         23.9115 
       0.589034         30.6655         23.3726 
       0.595184         30.2721         22.8502 
       0.601379         29.4507         22.3423 
       0.607522         28.9626         21.8544 
       0.613639         28.5037         21.3826 
       0.619772         28.0006         20.9226 
       0.625918         27.4525         20.4746 
       0.632068         27.2008         20.0386 
       0.638161         26.6341         19.6185 
         0.6443         26.2135         19.2069 
       0.650464         25.5617         18.8057 
       0.656582         25.3952         18.4193 
       0.662703         25.0655         18.0443 
       0.668861         24.4042         17.6788 
       0.675024         24.0891         17.3238 
       0.681124         23.9591         16.9825 
       0.687237         23.4563         16.6498 
       0.693381         22.9594         16.3242 
       0.699536         22.8404         16.0062 
       0.705665         22.4024         15.6977 
       0.711789         22.0111         15.3975 
       0.717957         21.5614          15.103 
        0.72409         21.3669         14.8181 
       0.730186         21.2562         14.5426 
       0.736317         20.7992         14.2729 
       0.742472         20.5435         14.0093 
       0.748622         20.2194         13.7527 
        0.75476         19.7164         13.5033 
       0.760888         19.6506         13.2604 
       0.767043         19.3014         13.0224 
       0.773185         19.0838         12.7908 
       0.779291         18.8899          12.566 
       0.785407         18.5735         12.3464 
       0.791564         18.4376         12.1306 
       0.797719         18.0293         11.9201 
       0.803834         17.9524          11.716 
       0.809972         17.6016         11.5161 
       0.816124         17.4113         11.3205 
       0.822261         17.2139           11.13 
       0.828378         17.0235         10.9446 
       0.834502         16.8415         10.7633 
       0.840667         16.6569         10.5849 
       0.846816         16.2912         10.4111 
       0.852925         16.2366         10.2424 
       0.859047         16.0359          10.077 
       0.865192         15.8083         9.91476 
       0.871341         15.6036         9.75599 
       0.877463         15.4231         9.60144 
       0.883569         15.3271         9.45064 
       0.889708         15.0746         9.30233 
       0.895864         14.8852         9.15684 
       0.902008         14.7169         9.01479 
       0.908149         14.5175         8.87586 
       0.914301         14.4352         8.73966 
       0.920448         14.2247         8.60646 
       0.926574         14.1304         8.47653 
       0.932687         13.9214         8.34957 
       0.938823         13.7381         8.22478 
       0.944975         13.6468         8.10227 
       0.951105          13.483         7.98272 
       0.957225         13.3953          7.8658 
       0.963368         13.1866         7.75084 
       0.969511         13.0529         7.63819 
       0.975621          12.932          7.5284 
       0.981748         12.7614         7.42051 
       0.987916         12.6716         7.31407 
        0.99406          12.527         7.21013 
        1.00019         12.4329         7.10843 
        1.00632         12.3275          7.0088 
        1.01246         12.1857         6.91094 
        1.01859          12.049         6.81513 
        1.02471         11.9095         6.72126 
        1.03085         11.8593         6.62885 
        1.03698         11.7466         6.53838 
        1.04314          11.597         6.44923 
        1.04929         11.4503         6.36195 
        1.05541         11.3913         6.27666 
        1.06154         11.2857         6.19273 
        1.06769         11.2028         6.11021 
        1.07382         11.0307         6.02948 
        1.07993         10.9405          5.9504 
        1.08607         10.8846         5.87242 
        1.09222         10.7454         5.79577 
        1.09836         10.6946         5.72058 
        1.10449         10.5466         5.64681 
        1.11063         10.5058         5.57428 
        1.11677          10.428         5.50304 
         1.1229         10.3256         5.43319 
        1.12903         10.2401         5.36449 
        1.13518         10.1059         5.29692 
        1.14131         10.0432         5.23057 
        1.14745          9.9042         5.16539 
        1.15359         9.82548         5.10132 
        1.15973         9.74787         5.03831 
        1.16584         9.67008         4.97665 
        1.17197         9.58088         4.91595 
        1.17811         9.50579         4.85607 
        1.18424         9.44023         4.79738 
        1.19038         9.38373         4.73948 
        1.19652         9.29582         4.68257 
        1.20267         9.23013          4.6266 
        1.20881         9.11829         4.57156 
        1.21495         9.05621         4.51751 
        1.22108          8.9991         4.46434 
         1.2272         8.91911         4.41216 
        1.23334          8.8832          4.3607 
        1.23949         8.78506         4.30994 
        1.24562         8.71711         4.26014 
        1.25174          8.6677          4.2112 
        1.25789         8.55526         4.16288 
        1.26402         8.52798         4.11541 
        1.27014         8.48086         4.06881 
        1.27628         8.36969         4.02278 
        1.28244         8.35691         3.97739 
        1.28858         8.28074         3.93276 
        1.29471         8.17455         3.88891 
        1.30084         8.11727         3.84578 
        1.30697         8.10709         3.80324 
        1.31312         8.01832         3.76129 
        1.31925         7.96991          3.7201 
        1.32537         7.91263         3.67957 
        1.33151         7.85085         3.63951 
        1.33765         7.78994         3.60007 
        1.34378          7.7779         3.56129 
        1.34992         7.69431         3.52305 
        1.35606         7.63025          3.4853 
         1.3622         7.57038         3.44817 
        1.36833         7.53512         3.41167 
        1.37445         7.47851         3.37572 
        1.38059         7.42134         3.34018 
        1.38675         7.37639         3.30507 
        1.39288         7.31399          3.2706 
        1.39901         7.25923         3.23664 
        1.40515         7.21685         3.20309 
         1.4113         7.16116         3.17003 
        1.41742         7.13243         3.13756 
        1.42355         7.06429         3.10549 
         1.4297         7.02677         3.07378 
        1.43585         6.99151         3.04252 
        1.44198         6.94266         3.01181 
        1.44809         6.89581         2.98159 
        1.45423         6.84133         2.95168 
        1.46036         6.80646         2.92223 
        1.46649         6.75932         2.89317 
        1.47263         6.72509         2.86449 
        1.47877         6.67694          2.8362 
        1.48491          6.6487         2.80826 
        1.49104         6.58825         2.78076 
        1.49718         6.56436          2.7536 
        1.50333         6.51521         2.72677 
        1.50947         6.46372         2.70035 
         1.5156         6.44385         2.67432 
        1.52172         6.39794         2.64863 
        1.52787         6.36656         2.62323 
          1.534         6.32018          2.5982 
        1.54013         6.29534         2.57352 
        1.54627         6.24611         2.54912 
        1.55241         6.19455         2.52503 
        1.55855         6.18342         2.50128 
        1.56467         6.14643         2.47791 
         1.5708         6.10225         2.45477 
        1.57695         6.05444         2.43189 
        1.58308         6.01593         2.40936 
        1.58922         5.99762          2.3871 
        1.59535         5.96364         2.36512 
         1.6015         5.90785          2.3434 
        1.60764         5.88497         2.32195 
        1.61376         5.86035         2.30084 
        1.61989          5.8065         2.27997 
        1.62604         5.78907         2.25932 
        1.63218         5.76068         2.23893 
        1.63831         5.72729         2.21885 
        1.64444         5.67906           2.199 
        1.65059         5.65588         2.17935 
        1.65673         5.63383         2.15996 
        1.66285         5.60095         2.14086 
        1.66898         5.57086         2.12199 
        1.67512         5.53537         2.10331 
        1.68127          5.4943         2.08484 
         1.6874          5.4754         2.06663 
        1.69353         5.43446         2.04865 
        1.69967         5.41807         2.03084 
        1.70581         5.37792         2.01325 
        1.71193         5.35785         1.99594 
        1.71806         5.32597         1.97879 
        1.72421         5.29444         1.96182 
        1.73035         5.27288         1.94506 
        1.73649         5.24327          1.9285 
        1.74262         5.20612         1.91215 
        1.74876         5.20119         1.89598 
        1.75489         5.16415         1.88002 
        1.76101         5.12318         1.86426 
        1.76715         5.11798         1.84866 
        1.77329         5.08762         1.83321 
        1.77943         5.04558         1.81794 
        1.78557         5.04281         1.80287 
        1.79171          5.0124         1.78796 
        1.79785         4.99151         1.77322 
        1.80399         4.94533         1.75864 
        1.81012         4.93568         1.74425 
        1.81625         4.90199         1.73003 
        1.82239         4.88649         1.71595 
        1.82853         4.85323         1.70203 
        1.83466         4.81716         1.68828 
        1.84078         4.80276         1.67469 
        1.84692         4.78037         1.66124 
        1.85306         4.75668         1.64791 
         1.8592         4.74297         1.63475 
        1.86533         4.72095         1.62174 
        1.87147         4.69727         1.60886 
        1.87761         4.67845         1.59612 
        1.88375         4.64713         1.58353 
        1.88988         4.62561         1.57108 
        1.89601         4.60451         1.55877 
        1.90215         4.57431         1.54658 
        1.90829         4.56622         1.53452 
        1.91442         4.53613         1.52259 
        1.92056         4.53008          1.5108 
         1.9267         4.49315         1.49912 
        1.93284         4.48898         1.48756 
        1.93897          4.4539         1.47615 
        1.94509         4.42078         1.46487 
        1.95123         4.41729         1.45369 
        1.95737         4.39889         1.44262 
        1.96349         4.36761         1.43169 
        1.96964         4.34899         1.42084 
        1.97578         4.33352          1.4101 
        1.98192         4.30941         1.39949 
        1.98805         4.29512         1.38899 
        1.99419          4.2788          1.3786 
        2.00033          4.2456         1.36831 
        2.00647         4.23937         1.35813 
         2.0126         4.22059         1.34807 
        2.01874         4.20211         1.33809 
        2.02488         4.18593         1.32821 
        2.03101         4.15412         1.31845 
        2.03714          4.1386         1.30879 
        2.04328         4.12686         1.29922 
        2.04941         4.10306         1.28975 
        2.05554         4.09381         1.28039 
        2.06167         4.07461          1.2711 
        2.06781         4.05386         1.26191 
        2.07396           4.034         1.25279 
        2.08009         4.02205         1.24378 
        2.08622         4.00934         1.23487 
        2.09237         3.99643         1.22603 
        2.09851         3.96581         1.21727 
        2.10464         3.95305         1.20862 
        2.11077         3.94297         1.20006 
        2.11691         3.92493         1.19156 
        2.12305         3.90159         1.18314 
        2.12918         3.89198         1.17483 
        2.13531         3.87236         1.16659 
        2.14145         3.85761         1.15842 
         2.1476         3.83855         1.15031 
        2.15372         3.82103         1.14233 
        2.15985         3.81388         1.13441 
        2.16599         3.79842         1.12654 
        2.17213         3.78977         1.11876 
        2.17827         3.75835         1.11105 
         2.1844         3.74602         1.10342 
        2.19054         3.73668         1.09586 
        2.19666         3.72226         1.08838 
         2.2028         3.69332         1.08097 
        2.20893         3.69693         1.07362 
        2.21508         3.67569         1.06633 
        2.22122         3.64862         1.05911 
        2.22736         3.64034         1.05197 
        2.23349         3.62685         1.04489 
        2.23962         3.61927         1.03788 
        2.24577         3.59292         1.03093 
         2.2519         3.59338         1.02405 
        2.25802         3.56125         1.01724 
        2.26417         3.55574         1.01047 
        2.27031         3.54238         1.00377 
        2.27644         3.52749        0.997138 
        2.28257         3.51576        0.990571 
        2.28872         3.50178         0.98405 
        2.29486         3.48423        0.977589 
        2.30099         3.47439          0.9712 
        2.30712         3.46064        0.964864 
        2.31326         3.44981        0.958575 
         2.3194         3.43218        0.952346 
        2.32553         3.42118        0.946182 
        2.33166         3.41259        0.940076 
         2.3378         3.40005        0.934015 
        2.34394         3.37966        0.928006 
        2.35007         3.36801        0.922059 
        2.35619         3.36287        0.916171 
        2.36233         3.34174         0.91032 
        2.36848         3.33533        0.904508 
        2.37462          3.3237         0.89876 
        2.38075         3.31431        0.893067 
        2.38689         3.30115        0.887419 
        2.39303         3.28519         0.88182 
        2.39916         3.27629        0.876276 
        2.40529         3.25911         0.87078 
        2.41143         3.25428        0.865327 
        2.41757         3.24402        0.859918 
         2.4237          3.2273        0.854566 
        2.42983         3.22098        0.849259 
        2.43598         3.21012        0.843984 
        2.44211         3.19201        0.838762 
        2.44823         3.18199        0.833596 
        2.45437         3.16706         0.82846 
        2.46052         3.16075        0.823362 
        2.46665         3.14976        0.818317 
        2.47279          3.1329        0.813315 
        2.47892         3.12705        0.808352 
        2.48507         3.11808        0.803426 
         2.4912          3.1053         0.79855 
