# k  (h/Mpc)    P(k)  (Mpc/h)^3    P_linear(k)  (Mpc/h)^3
     0.00783031         9861.18         9911.35 
       0.013688         12504.9         12791.9 
       0.019231         13248.2         13426.3 
      0.0249154         12832.7         12836.5 
      0.0312784         11355.6         11479.1 
      0.0375637         9829.23           10007 
      0.0433917          8755.5         8823.12 
      0.0492413         7784.08         7909.57 
      0.0555754         7144.81          7208.8 
      0.0619321         6460.54         6710.07 
       0.067871         6169.96         6323.71 
      0.0738098         5819.25          5932.5 
      0.0800417         5376.35         5471.83 
      0.0862327         4856.06         4965.56 
      0.0921407         4395.19            4472 
      0.0982031         3990.02         4000.92 
       0.104506          3544.8          3588.5 
       0.110769         3259.67         3274.51 
       0.116806         3102.98          3056.8 
       0.122832         2913.07         2901.58 
       0.129052         2783.18         2776.54 
       0.135211         2707.22          2658.7 
       0.141259         2535.72         2528.87 
       0.147318         2358.26         2377.68 
       0.153489         2222.16         2207.24 
       0.159709         2112.23         2032.53 
       0.165845         1918.47         1872.62 
       0.171974         1856.55         1736.65 
       0.178125         1777.67         1628.74 
       0.184229         1644.76         1547.96 
        0.19034         1617.25         1486.49 
       0.196428          1572.2         1435.37 
       0.202534         1480.74         1385.42 
       0.208729         1456.48         1329.75 
       0.214876         1397.95         1267.22 
       0.220989         1317.03         1199.41 
       0.227147         1282.61         1129.65 
        0.23329         1230.13         1063.52 
       0.239377         1211.77         1005.28 
       0.245482         1150.29         956.129 
       0.251667         1107.19         915.583 
       0.257832         1093.52          882.46 
       0.263955         1041.16         853.912 
       0.270079         1011.71         826.717 
        0.27624         971.004         798.512 
       0.282372          955.63         768.561 
        0.28843         945.722         737.267 
       0.294538           898.7         705.147 
       0.300721          875.86         673.532 
        0.30691         859.264         644.223 
       0.313033         823.393         618.339 
       0.319153         811.963         595.785 
       0.325316         800.258         575.935 
        0.33145         783.868         558.227 
       0.337538         757.023         541.694 
       0.343633         737.398         525.424 
       0.349808         721.142         508.689 
       0.355968         708.245         491.686 
       0.362074         685.857         474.711 
       0.368217         683.081         457.959 
       0.374374         671.543          441.94 
       0.380519         646.301         427.039 
       0.386598         640.594         413.547 
       0.392688         626.982         401.179 
        0.39888         610.862         389.591 
       0.405048         600.836         378.738 
       0.411186         598.655         368.313 
       0.417313         593.493         358.092 
       0.423458         575.473         347.923 
       0.429607         560.396         337.825 
       0.435692         553.307         328.032 
       0.441815         544.058         318.488 
       0.447964         534.458         309.325 
       0.454126         528.177         300.658 
       0.460267         519.991         292.542 
       0.466387         512.151         284.909 
        0.47254         504.251         277.623 
       0.478662         494.572         270.672 
       0.484765         489.804         263.946 
       0.490885         484.615         257.344 
       0.497035         475.553         250.852 
       0.503198         475.188         244.497 
       0.509342           464.3         238.328 
       0.515458         456.758         232.389 
       0.521598         450.859         226.663 
       0.527764         443.463         221.164 
       0.533884         441.492         215.937 
           0.54         435.735         210.924 
       0.546137         427.362         206.082 
       0.552299         426.658         201.382 
       0.558452         420.142         196.826 
       0.564573         415.923         192.403 
       0.570708         411.298         188.079 
       0.576825         403.778         183.885 
       0.582926         401.332         179.825 
       0.589034         395.658         175.887 
       0.595184         392.954         172.049 
       0.601379         386.743         168.312 
       0.607522         380.123         164.732 
       0.613639         378.685         161.287 
       0.619772         377.122          157.94 
       0.625918         370.977         154.683 
       0.632068         366.882          151.51 
       0.638161         363.973         148.446 
         0.6443         360.563         145.438 
       0.650464         355.807         142.501 
       0.656582         352.752         139.666 
       0.662703         350.308         136.911 
       0.668861         344.882         134.219 
       0.675024         342.971         131.599 
       0.681124          339.12         129.079 
       0.687237         336.585         126.623 
       0.693381         332.771         124.221 
       0.699536         330.028         121.879 
       0.705665         326.855         119.608 
       0.711789         325.044         117.397 
       0.717957         320.829         115.227 
        0.72409         317.568         113.123 
       0.730186         319.452         111.083 
       0.736317         313.552         109.083 
       0.742472         310.306         107.125 
       0.748622         307.062         105.218 
        0.75476         306.858         103.363 
       0.760888         303.376         101.557 
       0.767043         300.395         99.7886 
       0.773185         298.891         98.0669 
       0.779291         294.318         96.3964 
       0.785407         293.579          94.763 
       0.791564         290.579         93.1576 
       0.797719         286.284         91.5902 
       0.803834         288.619          90.069 
       0.809972         284.693         88.5771 
       0.816124         281.147          87.116 
       0.822261         278.644          85.692 
       0.828378         278.528         84.3046 
       0.834502         274.276         82.9472 
       0.840667         274.385         81.6113 
       0.846816         269.781         80.3091 
       0.852925         269.496          79.044 
       0.859047         266.872         77.8039 
       0.865192          266.56         76.5867 
       0.871341         262.882         75.3951 
       0.877463          260.65         74.2346 
       0.883569         260.019         73.1017 
       0.889708         257.629          71.987 
       0.895864         255.649         70.8928 
       0.902008         253.601          69.824 
       0.908149         251.592          68.778 
       0.914301         250.274         67.7521 
       0.920448           249.2         66.7482 
       0.926574         247.059         65.7684 
       0.932687         245.719         64.8106 
       0.938823         243.654         63.8687 
       0.944975         242.543         62.9435 
       0.951105         240.127         62.0402 
       0.957225         238.438         61.1563 
       0.963368         237.889         60.2869 
       0.969511         234.063         59.4345 
       0.975621         233.136         58.6034 
       0.981748         231.944         57.7863 
       0.987916         230.882         56.9798 
        0.99406         228.926         56.1918 
        1.00019         227.539         55.4206 
        1.00632         226.737         54.6646 
        1.01246         225.013         53.9218 
        1.01859         222.798         53.1942 
        1.02471         221.149          52.481 
        1.03085         220.313         51.7786 
        1.03698         218.793         51.0907 
        1.04314          218.46         50.4126 
        1.04929         216.963         49.7484 
        1.05541         215.227          49.099 
        1.06154         213.585         48.4598 
        1.06769         211.992         47.8311 
        1.07382         211.693         47.2157 
        1.07993         209.352         46.6126 
        1.08607         208.024         46.0177 
        1.09222         206.933         45.4326 
        1.09836         206.104         44.8585 
        1.10449         204.151         44.2952 
        1.11063         203.034         43.7409 
        1.11677         202.108         43.1964 
         1.1229         200.587         42.6623 
        1.12903         199.769         42.1368 
        1.13518         198.308         41.6197 
        1.14131         197.395         41.1118 
        1.14745         195.644         40.6126 
        1.15359         193.941         40.1218 
        1.15973         193.622         39.6389 
        1.16584         192.719         39.1662 
        1.17197         191.395         38.7006 
        1.17811          189.71         38.2412 
        1.18424         188.961         37.7907 
        1.19038         187.728         37.3462 
        1.19652          186.23         36.9091 
        1.20267         185.392          36.479 
        1.20881          184.04          36.056 
        1.21495         183.787         35.6404 
        1.22108         182.345         35.2315 
         1.2272         180.862           34.83 
        1.23334         180.261         34.4339 
        1.23949         179.639         34.0431 
        1.24562         178.299         33.6595 
        1.25174         177.096         33.2825 
        1.25789         175.834         32.9101 
        1.26402         175.636         32.5442 
        1.27014         174.647         32.1847 
        1.27628         172.584         31.8297 
        1.28244         172.147         31.4794 
        1.28858         171.069         31.1349 
        1.29471         170.149         30.7963 
        1.30084         169.051         30.4632 
        1.30697         168.021         30.1345 
        1.31312         167.051         29.8102 
        1.31925         165.843         29.4918 
        1.32537         165.479         29.1783 
        1.33151         164.504         28.8684 
        1.33765          162.99         28.5631 
        1.34378         162.863         28.2629 
        1.34992         161.927         27.9669 
        1.35606          160.81         27.6744 
         1.3622         160.288         27.3867 
        1.36833         158.551         27.1039 
        1.37445         158.531         26.8252 
        1.38059         157.209         26.5495 
        1.38675          156.43         26.2772 
        1.39288         155.315         26.0097 
        1.39901         154.538         25.7462 
        1.40515         153.893         25.4857 
         1.4113         152.973          25.229 
        1.41742         151.802         24.9768 
        1.42355         151.765         24.7276 
         1.4297         150.347         24.4811 
        1.43585         149.589         24.2381 
        1.44198         148.259         23.9993 
        1.44809         147.511         23.7642 
        1.45423         147.284         23.5314 
        1.46036         146.054         23.3022 
        1.46649         145.162          23.076 
        1.47263         144.767         22.8526 
        1.47877         143.531         22.6323 
        1.48491         142.916         22.4146 
        1.49104          141.36         22.2002 
        1.49718         141.409         21.9885 
        1.50333         140.742         21.7793 
        1.50947          139.83         21.5732 
         1.5156         138.949         21.3701 
        1.52172         138.284         21.1696 
        1.52787         137.535         20.9714 
          1.534         136.856         20.7759 
        1.54013         136.122         20.5832 
        1.54627         135.169         20.3925 
        1.55241         134.713         20.2043 
        1.55855          133.96         20.0187 
        1.56467         132.951          19.836 
         1.5708         132.099          19.655 
        1.57695         131.733         19.4761 
        1.58308          130.85         19.2998 
        1.58922         130.698         19.1256 
        1.59535         129.982         18.9536 
         1.6015         128.656         18.7835 
        1.60764         127.921         18.6156 
        1.61376         127.416         18.4503 
        1.61989         126.859         18.2868 
        1.62604         125.992         18.1249 
        1.63218         125.572         17.9651 
        1.63831         124.687         17.8077 
        1.64444          123.85          17.652 
        1.65059         123.146         17.4979 
        1.65673         122.917         17.3458 
        1.66285         122.303         17.1959 
        1.66898         121.246         17.0478 
        1.67512         120.876         16.9011 
        1.68127         120.183          16.756 
         1.6874         119.225          16.613 
        1.69353         118.663         16.4717 
        1.69967         118.207         16.3318 
        1.70581         117.806         16.1936 
        1.71193         116.914         16.0574 
        1.71806         116.227         15.9226 
        1.72421         115.651         15.7891 
        1.73035         115.191         15.6572 
        1.73649         114.358         15.5269 
        1.74262         113.989         15.3982 
        1.74876         113.119         15.2709 
        1.75489         112.745         15.1453 
        1.76101         112.034         15.0212 
        1.76715         111.226         14.8983 
        1.77329         110.904         14.7766 
        1.77943         110.066         14.6562 
        1.78557         109.761         14.5374 
        1.79171         109.274         14.4198 
        1.79785         108.292         14.3036 
        1.80399         108.085         14.1887 
        1.81012          107.22         14.0752 
        1.81625         106.807          13.963 
        1.82239         106.336         13.8518 
        1.82853         105.758         13.7419 
        1.83466         104.905         13.6334 
        1.84078         104.586         13.5261 
        1.84692         104.294         13.4198 
        1.85306         103.569         13.3146 
         1.8592         103.182         13.2106 
        1.86533         102.474         13.1078 
        1.87147         102.003          13.006 
        1.87761         101.271         12.9052 
        1.88375          100.75         12.8057 
        1.88988         99.9941         12.7073 
        1.89601         99.9344         12.6098 
        1.90215         99.2192         12.5134 
        1.90829         98.5739          12.418 
        1.91442         98.2077         12.3236 
        1.92056         97.7642         12.2302 
         1.9267         97.1217         12.1377 
        1.93284         96.7245         12.0462 
        1.93897         96.3238         11.9557 
        1.94509         95.6035         11.8664 
        1.95123         95.1731         11.7778 
        1.95737         94.8345           11.69 
        1.96349         94.3147         11.6034 
        1.96964         93.8479         11.5174 
        1.97578         93.1582         11.4322 
        1.98192         92.6781         11.3481 
        1.98805         92.2011         11.2648 
        1.99419         91.8407         11.1823 
        2.00033         91.1166         11.1007 
        2.00647         90.9203         11.0198 
         2.0126         90.4102           10.94 
        2.01874          90.202         10.8608 
        2.02488         89.4623         10.7823 
        2.03101         89.0939         10.7047 
        2.03714         88.6393          10.628 
        2.04328         88.1799         10.5519 
        2.04941          87.708         10.4767 
        2.05554         87.3038         10.4023 
        2.06167         86.6048         10.3284 
        2.06781         86.1717         10.2553 
        2.07396         85.9659         10.1828 
        2.08009          85.339         10.1112 
        2.08622          85.104         10.0403 
        2.09237         84.7088         9.96991 
        2.09851         83.9451         9.90022 
        2.10464         83.8211         9.83132 
        2.11077         83.3757         9.76316 
        2.11691         83.0509          9.6955 
        2.12305         82.4831         9.62848 
        2.12918         82.0657         9.56227 
        2.13531         81.6775         9.49667 
        2.14145         81.0728         9.43154 
         2.1476         80.8641         9.36695 
        2.15372         80.4139         9.30329 
        2.15985         79.9141         9.24016 
        2.16599         79.5697         9.17744 
        2.17213         79.2298         9.11537 
        2.17827         78.6524          9.0539 
         2.1844         78.3041         8.99305 
        2.19054         78.0576         8.93274 
        2.19666         77.6239         8.87307 
         2.2028         77.1269          8.8139 
        2.20893         76.7542         8.75524 
        2.21508         76.3323         8.69705 
        2.22122         75.8941         8.63937 
        2.22736         75.6409         8.58234 
        2.23349         75.2154         8.52584 
        2.23962         74.9901         8.46983 
        2.24577         74.4281         8.41426 
         2.2519         74.0908         8.35928 
        2.25802         73.6529         8.30488 
        2.26417         73.2648         8.25082 
        2.27031          72.926         8.19719 
        2.27644         72.6623         8.14419 
        2.28257         72.2736         8.09167 
        2.28872         71.9167         8.03952 
        2.29486         71.6416         7.98783 
        2.30099         71.0764         7.93671 
        2.30712         70.9419         7.88602 
        2.31326         70.5991         7.83569 
         2.3194         70.0928         7.78583 
        2.32553         69.7993         7.73649 
        2.33166         69.3721          7.6876 
         2.3378         69.1279         7.63906 
        2.34394         68.7712         7.59093 
        2.35007         68.4386         7.54329 
        2.35619          68.064         7.49612 
        2.36233         67.7723         7.44924 
        2.36848         67.3954         7.40266 
        2.37462          67.046         7.35658 
        2.38075         66.7312         7.31094 
        2.38689         66.3896         7.26566 
        2.39303         66.0406         7.22076 
        2.39916          65.789          7.1763 
        2.40529         65.4576         7.13221 
        2.41143         65.1477         7.08847 
        2.41757         64.6974         7.04507 
         2.4237         64.5954         7.00212 
        2.42983         64.1426         6.95953 
        2.43598         63.8829         6.91719 
        2.44211         63.4163         6.87527 
        2.44823         63.2377         6.83379 
        2.45437         62.9132         6.79254 
        2.46052         62.4953          6.7516 
        2.46665         62.1888         6.71108 
        2.47279         61.9274          6.6709 
        2.47892         61.7225         6.63102 
        2.48507         61.2948         6.59144 
         2.4912         61.0824         6.55225 
