# k  (h/Mpc)    Pcb(k)  (Mpc/h)^3    Pcb_linear(k)  (Mpc/h)^3
     0.00783031         5856.66         5926.95 
       0.013688         6887.05         6862.12 
       0.019231         6578.68         6564.13 
      0.0249154         5661.28         5719.41 
      0.0312784         4618.86         4627.71 
      0.0375637         3720.37         3699.92 
      0.0433917         3064.19         3073.08 
      0.0492413         2667.85          2659.8 
      0.0555754         2366.44         2390.25 
      0.0619321         2240.77         2219.66 
       0.067871         2064.57         2081.35 
      0.0738098         1905.29            1921 
      0.0800417         1694.55         1716.45 
      0.0862327         1487.78         1492.42 
      0.0921407         1297.09         1286.72 
      0.0982031         1113.96         1108.48 
       0.104506         998.483         971.753 
       0.110769         907.914         884.007 
       0.116806         850.046         834.063 
       0.122832         820.778         802.941 
       0.129052         779.148         774.336 
       0.135211         742.502         737.424 
       0.141259         701.151         688.179 
       0.147318          646.68         628.531 
       0.153489         580.649         564.613 
       0.159709         528.312          505.47 
       0.165845         488.386         458.221 
       0.171974         450.619         424.103 
       0.178125         428.881         401.583 
       0.184229         413.168         387.157 
        0.19034         391.732         376.007 
       0.196428         384.839         364.021 
       0.202534         372.729         348.502 
       0.208729         350.557         328.651 
       0.214876         327.288         306.248 
       0.220989         309.509         283.661 
       0.227147          288.27         262.942 
        0.23329         272.174         245.844 
       0.239377         262.258         232.867 
       0.245482         245.631         223.274 
       0.251667         242.253         215.847 
       0.257832         234.849          209.33 
       0.263955         226.759         202.524 
       0.270079         217.751         194.697 
        0.27624         212.413         185.744 
       0.282372         203.262         176.182 
        0.28843         193.642         166.793 
       0.294538          184.11         158.038 
       0.300721           179.9         150.356 
        0.30691         171.088         143.978 
       0.313033         166.356         138.789 
       0.319153         159.182         134.361 
       0.325316          156.14          130.24 
        0.33145         150.396          126.12 
       0.337538         147.471         121.816 
       0.343633         142.015         117.263 
       0.349808          137.27         112.533 
       0.355968         133.862         107.883 
       0.362074         129.514         103.552 
       0.368217         125.429         99.5916 
       0.374374         121.368         96.0746 
       0.380519         118.722         92.9649 
       0.386598         115.472         90.1739 
       0.392688          113.33         87.5493 
        0.39888         110.236         84.9347 
       0.405048          107.36         82.3222 
       0.411186         104.794         79.7041 
       0.417313         101.943         77.0891 
       0.423458         99.4184         74.5284 
       0.429607         96.8577         72.0834 
       0.435692         93.5004         69.8124 
       0.441815         92.5011         67.6957 
       0.447964         90.7528         65.7319 
       0.454126         86.6759         63.8889 
       0.460267         85.6136         62.1419 
       0.466387         83.9021         60.4602 
        0.47254         82.2019         58.8014 
       0.478662          81.166         57.1718 
       0.484765         78.5733         55.5783 
       0.490885         77.0569         54.0239 
       0.497035         76.0445         52.5166 
       0.503198         73.8228         51.0729 
       0.509342         72.1637         49.7087 
       0.515458         70.9457         48.4226 
       0.521598         69.7807         47.1919 
       0.527764         68.6175         46.0053 
       0.533884         67.5223         44.8678 
           0.54         65.9751         43.7647 
       0.546137         65.2454         42.6853 
       0.552299         64.1725         41.6265 
       0.558452         62.4712         40.5982 
       0.564573         61.3348         39.6084 
       0.570708         60.4459         38.6528 
       0.576825         59.4752         37.7369 
       0.582926         58.1325         36.8577 
       0.589034         56.9892         36.0094 
       0.595184         56.2116         35.1852 
       0.601379         55.3208         34.3829 
       0.607522         54.0167         33.6117 
       0.613639         53.7684         32.8651 
       0.619772         52.5195         32.1362 
       0.625918         51.9492         31.4252 
       0.632068         51.2574         30.7341 
       0.638161          50.485         30.0704 
         0.6443         49.6978         29.4232 
       0.650464         48.9584         28.7947 
       0.656582         48.3532         28.1904 
       0.662703          47.374         27.6041 
       0.668861         46.7193         27.0312 
       0.675024         46.1132         26.4737 
       0.681124         45.3561         25.9372 
       0.687237         44.5203         25.4141 
       0.693381         44.1363         24.9029 
       0.699536         43.3128         24.4048 
       0.705665         43.4319         23.9226 
       0.711789         42.2531          23.454 
       0.717957         41.7908         22.9949 
        0.72409         41.2262         22.5508 
       0.730186         40.5574         22.1212 
       0.736317         40.3421         21.7006 
       0.742472         39.7064         21.2894 
       0.748622         39.2684         20.8894 
        0.75476         38.7834         20.5006 
       0.760888         38.1447         20.1223 
       0.767043         37.7012         19.7522 
       0.773185         37.1941         19.3922 
       0.779291          36.996         19.0433 
       0.785407         36.6228         18.7025 
       0.791564         36.0664          18.368 
       0.797719          35.353         18.0419 
       0.803834          35.251         17.7257 
       0.809972         34.6787         17.4161 
       0.816124         34.2247         17.1132 
       0.822261         33.9136         16.8184 
       0.828378         33.7128         16.5314 
       0.834502         33.2722         16.2509 
       0.840667         32.9129         15.9751 
       0.846816          32.379         15.7065 
       0.852925         32.1199         15.4458 
       0.859047          31.698         15.1906 
       0.865192         31.4032         14.9402 
       0.871341          31.289         14.6954 
       0.877463         30.6444         14.4572 
       0.883569         30.3809         14.2249 
       0.889708         30.1315         13.9966 
       0.895864         29.8173         13.7727 
       0.902008         29.5439         13.5542 
       0.908149         29.2596         13.3405 
       0.914301          29.124         13.1312 
       0.920448          28.718         12.9266 
       0.926574         28.4089          12.727 
       0.932687         28.1546         12.5321 
       0.938823         27.7422         12.3406 
       0.944975          27.616         12.1526 
       0.951105         27.3237         11.9693 
       0.957225          26.981         11.7901 
       0.963368         26.9732         11.6139 
       0.969511         26.6582         11.4414 
       0.975621         26.4426         11.2733 
       0.981748         26.0596         11.1081 
       0.987916         25.9065         10.9453 
        0.99406          25.687         10.7863 
        1.00019         25.3835         10.6308 
        1.00632         25.2124         10.4786 
        1.01246         25.0975         10.3291 
        1.01859         24.6795         10.1827 
        1.02471         24.6475         10.0394 
        1.03085         24.4186         9.89843 
        1.03698         24.0561         9.76043 
        1.04314         23.9063         9.62448 
        1.04929         23.6955         9.49145 
        1.05541         23.4536         9.36147 
        1.06154         23.3686         9.23362 
        1.06769         23.1812         9.10797 
        1.07382         22.9735         8.98507 
        1.07993         22.8464         8.86473 
        1.08607         22.5536          8.7461 
        1.09222          22.462         8.62953 
        1.09836         22.2348         8.51522 
        1.10449         22.0661         8.40313 
        1.11063         21.7838         8.29293 
        1.11677         21.7099         8.18475 
         1.1229         21.5851         8.07869 
        1.12903         21.3124         7.97442 
        1.13518         21.2185          7.8719 
        1.14131         21.1145         7.77125 
        1.14745         20.8703         7.67241 
        1.15359         20.8241         7.57528 
        1.15973         20.5681         7.47979 
        1.16584         20.3692         7.38637 
        1.17197         20.3603         7.29442 
        1.17811         20.0993         7.20376 
        1.18424         19.9405          7.1149 
        1.19038         19.8933          7.0273 
        1.19652         19.7717          6.9412 
        1.20267         19.6164         6.85654 
        1.20881         19.4277         6.77332 
        1.21495         19.3189         6.69162 
        1.22108         19.1752         6.61128 
         1.2272          18.984         6.53245 
        1.23334         18.9284         6.45472 
        1.23949          18.784         6.37808 
        1.24562         18.6507          6.3029 
        1.25174         18.5586         6.22905 
        1.25789         18.3933         6.15616 
        1.26402          18.304         6.08457 
        1.27014          18.097         6.01429 
        1.27628         18.0116         5.94492 
        1.28244         17.9286         5.87651 
        1.28858         17.8345         5.80927 
        1.29471         17.7051         5.74323 
        1.30084         17.5822         5.67828 
        1.30697         17.4688         5.61424 
        1.31312         17.2972          5.5511 
        1.31925         17.2061         5.48912 
        1.32537         17.1427         5.42816 
        1.33151         17.0069          5.3679 
        1.33765         16.9442          5.3086 
        1.34378         16.8199          5.2503 
        1.34992         16.6397         5.19285 
        1.35606         16.5981         5.13613 
         1.3622         16.4998         5.08036 
        1.36833         16.3596         5.02555 
        1.37445         16.3522         4.97158 
        1.38059         16.1971         4.91824 
        1.38675         16.0088         4.86555 
        1.39288         16.0052         4.81384 
        1.39901         15.8767         4.76291 
        1.40515          15.817          4.7126 
         1.4113         15.7051         4.66303 
        1.41742         15.5645         4.61437 
        1.42355         15.5449         4.56631 
         1.4297         15.4543         4.51879 
        1.43585         15.3829         4.47196 
        1.44198         15.2557         4.42598 
        1.44809         15.1577         4.38073 
        1.45423         15.0891         4.33595 
        1.46036         15.0304         4.29187 
        1.46649         14.9352         4.24839 
        1.47263         14.8203         4.20548 
        1.47877         14.7572         4.16319 
        1.48491         14.7129         4.12141 
        1.49104         14.6343         4.08029 
        1.49718         14.4987          4.0397 
        1.50333         14.4615          3.9996 
        1.50947         14.3802         3.96012 
         1.5156         14.2769         3.92124 
        1.52172         14.1968         3.88288 
        1.52787         14.1619         3.84496 
          1.534         14.0438         3.80759 
        1.54013          13.939         3.77075 
        1.54627         13.8862         3.73434 
        1.55241         13.8088          3.6984 
        1.55855         13.7254         3.66299 
        1.56467         13.6594         3.62814 
         1.5708         13.6366         3.59364 
        1.57695         13.5085         3.55954 
        1.58308         13.4973         3.52596 
        1.58922         13.4117         3.49279 
        1.59535         13.3188         3.46006 
         1.6015         13.2517          3.4277 
        1.60764         13.2179         3.39577 
        1.61376         13.1008         3.36434 
        1.61989         13.0275         3.33327 
        1.62604         13.0152         3.30253 
        1.63218         12.9299          3.2722 
        1.63831         12.8936         3.24232 
        1.64444         12.7708         3.21279 
        1.65059         12.7154         3.18357 
        1.65673         12.6699         3.15474 
        1.66285         12.5944         3.12634 
        1.66898          12.573         3.09829 
        1.67512         12.5072         3.07053 
        1.68127         12.4448         3.04308 
         1.6874         12.3575         3.01603 
        1.69353         12.2911         2.98932 
        1.69967         12.2382         2.96287 
        1.70581         12.1964         2.93676 
        1.71193         12.1302         2.91106 
        1.71806         12.0592         2.88561 
        1.72421         12.0079         2.86041 
        1.73035         11.9363         2.83555 
        1.73649         11.9087         2.81098 
        1.74262         11.8822         2.78673 
        1.74876         11.8111         2.76274 
        1.75489         11.7512         2.73909 
        1.76101         11.6718         2.71572 
        1.76715         11.6511         2.69259 
        1.77329         11.5744         2.66971 
        1.77943         11.5165         2.64708 
        1.78557         11.4921         2.62474 
        1.79171         11.4392         2.60266 
        1.79785         11.3435         2.58083 
        1.80399         11.3142         2.55925 
        1.81012         11.3008         2.53795 
        1.81625         11.2225          2.5169 
        1.82239         11.1905         2.49606 
        1.82853         11.1006         2.47546 
        1.83466          11.034         2.45512 
        1.84078         10.9885         2.43502 
        1.84692         10.9817         2.41512 
        1.85306         10.9063         2.39542 
         1.8592         10.8674         2.37596 
        1.86533         10.8396         2.35674 
        1.87147          10.778          2.3377 
        1.87761         10.7493         2.31886 
        1.88375          10.669         2.30026 
        1.88988         10.6315         2.28187 
        1.89601         10.5904         2.26368 
        1.90215         10.5405         2.24567 
        1.90829         10.5033         2.22787 
        1.91442         10.4606         2.21025 
        1.92056         10.4118         2.19285 
         1.9267         10.3661         2.17561 
        1.93284         10.3129         2.15855 
        1.93897         10.2723          2.1417 
        1.94509          10.222         2.12507 
        1.95123         10.1917         2.10857 
        1.95737         10.1606         2.09224 
        1.96349         10.1091         2.07612 
        1.96964         10.0525         2.06012 
        1.97578         10.0166         2.04429 
        1.98192         9.97415         2.02865 
        1.98805         9.94927         2.01317 
        1.99419         9.88061         1.99786 
        2.00033         9.84007          1.9827 
        2.00647         9.80416          1.9677 
         2.0126           9.782         1.95287 
        2.01874         9.71124         1.93818 
        2.02488         9.67251         1.92363 
        2.03101         9.65962         1.90925 
        2.03714         9.62802         1.89504 
        2.04328         9.56522         1.88095 
        2.04941         9.51018         1.86702 
        2.05554         9.51136         1.85323 
        2.06167         9.45416         1.83957 
        2.06781         9.43584         1.82605 
        2.07396         9.40972         1.81264 
        2.08009         9.36167         1.79938 
        2.08622         9.28153         1.78628 
        2.09237         9.28066         1.77328 
        2.09851         9.24071         1.76041 
        2.10464         9.20058         1.74768 
        2.11077         9.14585          1.7351 
        2.11691         9.12396         1.72261 
        2.12305         9.10917         1.71025 
        2.12918         9.04179         1.69804 
        2.13531         9.02593         1.68594 
        2.14145         8.97783         1.67393 
         2.1476         8.97451         1.66203 
        2.15372         8.92218          1.6503 
        2.15985         8.87053         1.63868 
        2.16599         8.86081         1.62713 
        2.17213         8.81608          1.6157 
        2.17827         8.79465         1.60439 
         2.1844         8.75115         1.59319 
        2.19054         8.71624          1.5821 
        2.19666         8.70369         1.57113 
         2.2028         8.66426         1.56025 
        2.20893         8.62689         1.54948 
        2.21508         8.57343         1.53879 
        2.22122         8.54717         1.52819 
        2.22736         8.52878         1.51772 
        2.23349          8.4796         1.50735 
        2.23962         8.45264         1.49707 
        2.24577         8.42292         1.48688 
         2.2519         8.41087          1.4768 
        2.25802         8.36881         1.46682 
        2.26417         8.34815         1.45692 
        2.27031          8.2837         1.44709 
        2.27644         8.27478         1.43738 
        2.28257          8.2415         1.42776 
        2.28872         8.22143         1.41821 
        2.29486         8.18629         1.40875 
        2.30099         8.17386          1.3994 
        2.30712         8.12661         1.39012 
        2.31326         8.10179         1.38092 
         2.3194         8.07014          1.3718 
        2.32553         8.03669         1.36278 
        2.33166          7.9942         1.35385 
         2.3378         7.97768         1.34498 
        2.34394         7.95843         1.33619 
        2.35007         7.91277         1.32749 
        2.35619         7.87453         1.31888 
        2.36233         7.85883         1.31032 
        2.36848         7.85079         1.30182 
        2.37462         7.82227         1.29342 
        2.38075         7.76783          1.2851 
        2.38689         7.74816         1.27684 
        2.39303         7.71954         1.26866 
        2.39916         7.71208         1.26056 
        2.40529         7.67126         1.25252 
        2.41143         7.65742         1.24456 
        2.41757         7.62501         1.23666 
         2.4237         7.60237         1.22884 
        2.42983         7.55845         1.22109 
        2.43598         7.55851         1.21338 
        2.44211         7.52138         1.20576 
        2.44823         7.48553         1.19822 
        2.45437         7.48052         1.19072 
        2.46052          7.4326         1.18328 
        2.46665         7.40298         1.17591 
        2.47279         7.37339         1.16862 
        2.47892         7.36454         1.16137 
        2.48507         7.33382         1.15419 
         2.4912         7.31864         1.14707 
