# k  (h/Mpc)    Pcb(k)  (Mpc/h)^3    Pcb_linear(k)  (Mpc/h)^3
     0.00783031         9447.22         9505.28 
       0.013688         11076.5         11311.3 
       0.019231         10935.6         11058.6 
      0.0249154         9874.69          9838.1 
      0.0312784         8104.84         8136.98 
      0.0375637         6571.33         6630.55 
      0.0433917         5588.17         5581.23 
      0.0492413         4849.73         4869.96 
      0.0555754         4408.83         4391.81 
      0.0619321          3994.6         4081.35 
       0.067871         3797.81          3830.7 
      0.0738098         3534.09         3546.26 
      0.0800417         3191.35         3187.83 
      0.0862327         2790.74         2795.13 
      0.0921407         2446.43         2431.46 
      0.0982031         2160.76         2111.85 
       0.104506         1886.24         1861.69 
       0.110769         1731.79         1696.53 
       0.116806         1655.67         1598.82 
       0.122832         1569.91         1535.85 
       0.129052         1508.12         1479.14 
       0.135211         1457.44         1409.74 
       0.141259         1349.56          1319.7 
       0.147318         1233.52         1211.33 
       0.153489         1132.66          1094.6 
       0.159709         1051.63          985.28 
       0.165845         946.336         896.432 
       0.171974          911.09         830.797 
       0.178125         868.362         786.184 
       0.184229         813.755         756.749 
        0.19034         799.707         733.984 
       0.196428         775.852         710.458 
       0.202534         724.655         681.065 
       0.208729         707.362         643.996 
       0.214876         670.973         602.151 
       0.220989         621.179         559.631 
       0.227147         598.942         520.147 
        0.23329         570.183         487.064 
       0.239377         556.764         461.511 
       0.245482         527.375         442.297 
       0.251667         506.974         427.318 
       0.257832         501.332         414.321 
       0.263955         474.562         401.046 
       0.270079         456.678         386.042 
        0.27624         437.114         368.963 
       0.282372         424.987         350.673 
        0.28843         419.209         332.586 
       0.294538         396.288         315.542 
       0.300721         382.071         300.433 
        0.30691         374.805         287.748 
       0.313033         357.136         277.376 
       0.319153         351.093         268.523 
       0.325316         343.098         260.362 
        0.33145         334.034         252.285 
       0.337538          321.74          243.92 
       0.343633          311.76         235.072 
       0.349808          302.79         225.861 
       0.355968          296.11         216.752 
       0.362074         286.549         208.203 
       0.368217         282.927         200.344 
       0.374374         275.938         193.319 
       0.380519          264.43         187.105 
       0.386598         260.514         181.535 
       0.392688         253.201          176.32 
        0.39888         247.437          171.16 
       0.405048         241.959         166.011 
       0.411186         239.846         160.856 
       0.417313         234.976           155.7 
       0.423458         228.598         150.623 
       0.429607         222.384         145.757 
       0.435692         218.692         141.225 
       0.441815         214.009         136.985 
       0.447964         208.092          133.05 
       0.454126         204.903         129.367 
       0.460267         202.221          125.88 
       0.466387         197.489         122.529 
        0.47254         195.129         119.233 
       0.478662         189.316         115.995 
       0.484765         186.722         112.818 
       0.490885         183.668         109.714 
       0.497035         181.102         106.699 
       0.503198         179.006         103.805 
       0.509342         174.257         101.062 
       0.515458         171.672         98.4779 
       0.521598         167.617         96.0089 
       0.527764         165.973         93.6302 
       0.533884         164.908         91.3498 
           0.54         161.029         89.1383 
       0.546137          157.35         86.9764 
       0.552299         155.587         84.8553 
       0.558452         152.887         82.7911 
       0.564573         152.071         80.7994 
       0.570708          148.13         78.8737 
       0.576825         146.242         77.0286 
       0.582926         144.665         75.2581 
       0.589034          142.27         73.5495 
       0.595184         140.886         71.8887 
       0.601379         138.176         70.2712 
       0.607522          135.25         68.7166 
       0.613639         134.334         67.2127 
       0.619772         132.567         65.7446 
       0.625918          131.52         64.3114 
       0.632068         128.429         62.9166 
       0.638161         127.351         61.5751 
         0.6443         126.336         60.2656 
       0.650464         123.782         58.9939 
       0.656582         123.028         57.7719 
       0.662703         121.721         56.5865 
       0.668861         119.157         55.4286 
       0.675024         119.125         54.3016 
       0.681124         117.127          53.216 
       0.687237         115.617         52.1569 
       0.693381         114.195          51.121 
       0.699536         113.057         50.1113 
       0.705665         111.756         49.1335 
       0.711789         110.256         48.1834 
       0.717957         108.927         47.2525 
        0.72409         107.815         46.3519 
       0.730186         107.591         45.4805 
       0.736317         105.913         44.6271 
       0.742472         104.236         43.7925 
       0.748622         102.679         42.9801 
        0.75476          102.96         42.1902 
       0.760888         101.768         41.4214 
       0.767043         99.8203         40.6688 
       0.773185         98.6891         39.9367 
       0.779291         97.6534         39.2269 
       0.785407         96.8877         38.5336 
       0.791564          96.183         37.8529 
       0.797719         94.7414         37.1892 
       0.803834         94.5375         36.5457 
       0.809972         93.6566         35.9153 
       0.816124         92.1911         35.2985 
       0.822261         91.3149         34.6979 
       0.828378         91.0741         34.1131 
       0.834502         89.9216         33.5414 
       0.840667         89.3223         32.9791 
       0.846816         88.3671         32.4313 
       0.852925         87.3517         31.8995 
       0.859047         86.8146         31.3786 
       0.865192         85.9671         30.8677 
       0.871341         85.1167         30.3678 
       0.877463         84.3649         29.8814 
       0.883569         84.2646          29.407 
       0.889708          83.382         28.9405 
       0.895864         82.6761          28.483 
       0.902008         81.7305         28.0365 
       0.908149         80.7156         27.5998 
       0.914301         80.5409         27.1718 
       0.920448         80.3985         26.7533 
       0.926574          78.672         26.3452 
       0.932687         78.5678         25.9465 
       0.938823         78.0059         25.5546 
       0.944975         77.1255           25.17 
       0.951105         76.4016         24.7947 
       0.957225         76.1837         24.4277 
       0.963368          75.381          24.067 
       0.969511         74.9382         23.7136 
       0.975621         74.0557         23.3693 
       0.981748         73.5904         23.0309 
       0.987916         72.9749         22.6971 
        0.99406         72.7733         22.3713 
        1.00019         71.8396         22.0525 
        1.00632         71.2636         21.7403 
        1.01246          70.912         21.4337 
        1.01859         70.5878         21.1335 
        1.02471         69.9831         20.8395 
        1.03085         69.3167         20.5501 
        1.03698         68.8448         20.2668 
        1.04314         68.3351         19.9877 
        1.04929         67.9671         19.7146 
        1.05541         67.4408         19.4476 
        1.06154         66.9781          19.185 
        1.06769         66.4961         18.9268 
        1.07382         65.8571         18.6743 
        1.07993         65.6613          18.427 
        1.08607         65.1208         18.1831 
        1.09222         64.8171         17.9434 
        1.09836         64.2654         17.7084 
        1.10449         63.8746         17.4779 
        1.11063         63.4365         17.2512 
        1.11677         63.0986         17.0286 
         1.1229          62.481         16.8104 
        1.12903         62.2549         16.5958 
        1.13518         61.8895         16.3848 
        1.14131         61.3614         16.1776 
        1.14745         61.1156         15.9741 
        1.15359         60.3217         15.7741 
        1.15973         60.2968         15.5774 
        1.16584         59.8675          15.385 
        1.17197         59.4264         15.1955 
        1.17811         59.0271         15.0087 
        1.18424         58.4286         14.8256 
        1.19038         58.3252          14.645 
        1.19652         57.9802         14.4675 
        1.20267         57.5373          14.293 
        1.20881          57.192         14.1214 
        1.21495         56.8435         13.9529 
        1.22108          56.747         13.7872 
         1.2272         56.1082         13.6245 
        1.23334         55.9562         13.4642 
        1.23949          55.518          13.306 
        1.24562         55.1249         13.1509 
        1.25174         54.9045         12.9984 
        1.25789         54.6701         12.8479 
        1.26402         54.2806         12.7001 
        1.27014         54.0508          12.555 
        1.27628         53.5746         12.4117 
        1.28244         53.5479         12.2704 
        1.28858         53.0629         12.1315 
        1.29471         52.6621          11.995 
        1.30084         52.2169         11.8608 
        1.30697         52.2926         11.7285 
        1.31312         51.8973         11.5979 
        1.31925         51.4761         11.4698 
        1.32537         51.2322         11.3438 
        1.33151         50.9571         11.2191 
        1.33765         50.7215         11.0965 
        1.34378         50.3756         10.9759 
        1.34992          50.175          10.857 
        1.35606         49.7609         10.7397 
         1.3622         49.6302         10.6243 
        1.36833         49.3402         10.5108 
        1.37445         48.8733         10.3991 
        1.38059         48.7601         10.2887 
        1.38675         48.3374         10.1796 
        1.39288         48.2585         10.0725 
        1.39901         47.8455         9.96705 
        1.40515         47.6871         9.86285 
         1.4113           47.52         9.76019 
        1.41742         47.1594         9.65938 
        1.42355         47.0139         9.55981 
         1.4297         46.7509         9.46134 
        1.43585         46.4803         9.36431 
        1.44198         46.1511         9.26901 
        1.44809         45.8465         9.17522 
        1.45423         45.7456         9.08239 
        1.46036         45.5158         8.99101 
        1.46649          45.195         8.90085 
        1.47263         44.9778         8.81187 
        1.47877         44.8061         8.72415 
        1.48491         44.4902         8.63748 
        1.49104         44.2556         8.55218 
        1.49718         44.0897         8.46797 
        1.50333          43.886         8.38477 
        1.50947         43.6279         8.30285 
         1.5156         43.4743         8.22215 
        1.52172         43.1267         8.14252 
        1.52787          42.972          8.0638 
          1.534         42.6752         7.98621 
        1.54013         42.6885         7.90972 
        1.54627         42.2622          7.8341 
        1.55241         42.1259         7.75946 
        1.55855         41.8994          7.6859 
        1.56467         41.5594          7.6135 
         1.5708         41.5678         7.54183 
        1.57695         41.2937         7.47097 
        1.58308         41.0341         7.40119 
        1.58922         40.8661         7.33226 
        1.59535         40.8079         7.26423 
         1.6015         40.6494         7.19697 
        1.60764         40.3327         7.13059 
        1.61376         40.1362         7.06524 
        1.61989         39.8188         7.00065 
        1.62604         39.7181         6.93673 
        1.63218         39.4033         6.87364 
        1.63831         39.3673         6.81149 
        1.64444         39.2035         6.75008 
        1.65059         38.9041         6.68928 
        1.65673         38.7447          6.6293 
        1.66285         38.6222         6.57022 
        1.66898         38.3524         6.51185 
        1.67512          38.158         6.45407 
        1.68127         38.0676         6.39694 
         1.6874         37.8884         6.34063 
        1.69353         37.6916         6.28504 
        1.69967         37.5486         6.22997 
        1.70581         37.2794          6.1756 
        1.71193         37.1363         6.12208 
        1.71806         36.9958         6.06908 
        1.72421         36.8026          6.0166 
        1.73035         36.6349         5.96481 
        1.73649         36.3966         5.91364 
        1.74262         36.1657         5.86311 
        1.74876           36.26         5.81313 
        1.75489         35.9414         5.76385 
        1.76101         35.8228         5.71515 
        1.76715         35.6222         5.66695 
        1.77329         35.3425         5.61924 
        1.77943          35.381         5.57206 
        1.78557         35.1801          5.5255 
        1.79171         34.9719         5.47946 
        1.79785         34.8615         5.43394 
        1.80399           34.64         5.38894 
        1.81012         34.5008         5.34452 
        1.81625         34.3029         5.30062 
        1.82239         34.1506         5.25714 
        1.82853         34.0374         5.21418 
        1.83466         33.8607         5.17173 
        1.84078         33.7128         5.12981 
        1.84692         33.5409         5.08828 
        1.85306         33.3664         5.04716 
         1.8592         33.2188         5.00657 
        1.86533         33.1205         4.96644 
        1.87147         32.9522          4.9267 
        1.87761          32.802         4.88738 
        1.88375         32.6448         4.84854 
        1.88988         32.5087         4.81016 
        1.89601         32.3537         4.77218 
        1.90215         32.1662         4.73457 
        1.90829         32.0723         4.69739 
        1.91442         31.9049         4.66061 
        1.92056         31.8041         4.62425 
         1.9267          31.724         4.58824 
        1.93284          31.546          4.5526 
        1.93897         31.3919          4.5174 
        1.94509         31.2155         4.48265 
        1.95123         31.1294         4.44818 
        1.95737         30.9985         4.41405 
        1.96349         30.9104         4.38036 
        1.96964         30.6996         4.34693 
        1.97578         30.5487         4.31383 
        1.98192         30.3944         4.28114 
        1.98805         30.2584         4.24879 
        1.99419         30.1657         4.21677 
        2.00033         30.0334         4.18507 
        2.00647         29.9374          4.1537 
         2.0126         29.7453         4.12271 
        2.01874         29.6794         4.09198 
        2.02488         29.4608         4.06154 
        2.03101         29.3991         4.03147 
        2.03714         29.2639         4.00173 
        2.04328         29.1566         3.97226 
        2.04941         28.9622         3.94311 
        2.05554         28.8696         3.91427 
        2.06167         28.7513         3.88568 
        2.06781         28.6255         3.85737 
        2.07396         28.4811         3.82931 
        2.08009          28.356         3.80157 
        2.08622         28.2684         3.77414 
        2.09237         28.1277         3.74692 
        2.09851         28.0345         3.71998 
        2.10464         27.9169         3.69334 
        2.11077         27.8276         3.66699 
        2.11691          27.613         3.64084 
        2.12305         27.5053         3.61495 
        2.12918          27.415         3.58937 
        2.13531         27.2552         3.56403 
        2.14145         27.1999         3.53889 
         2.1476         27.0806         3.51395 
        2.15372         26.9889         3.48938 
        2.15985         26.8082         3.46503 
        2.16599         26.6719         3.44083 
        2.17213         26.6274         3.41689 
        2.17827         26.5071         3.39319 
         2.1844         26.3515         3.36973 
        2.19054          26.318         3.34648 
        2.19666         26.1401         3.32349 
         2.2028         26.0395         3.30069 
        2.20893         25.9823          3.2781 
        2.21508         25.8659         3.25569 
        2.22122         25.7612         3.23348 
        2.22736         25.6163         3.21153 
        2.23349         25.5532         3.18979 
        2.23962         25.4256         3.16823 
        2.24577         25.3227         3.14686 
         2.2519         25.1786         3.12571 
        2.25802         25.0654          3.1048 
        2.26417         24.9558         3.08401 
        2.27031         24.8615          3.0634 
        2.27644         24.8295         3.04303 
        2.28257         24.6908         3.02285 
        2.28872         24.5976         3.00282 
        2.29486         24.4965         2.98297 
        2.30099         24.3609         2.96334 
        2.30712         24.2927         2.94388 
        2.31326         24.1701         2.92456 
         2.3194         24.0698         2.90543 
        2.32553         23.9932          2.8865 
        2.33166          23.887         2.86775 
         2.3378         23.7664         2.84913 
        2.34394         23.6981         2.83068 
        2.35007         23.6292         2.81242 
        2.35619         23.5241         2.79433 
        2.36233         23.4013         2.77637 
        2.36848         23.3375         2.75853 
        2.37462         23.2509         2.74088 
        2.38075         23.1126          2.7234 
        2.38689         23.0238         2.70606 
        2.39303         22.9579         2.68887 
        2.39916         22.8171         2.67185 
        2.40529         22.7588         2.65498 
        2.41143         22.6564         2.63824 
        2.41757         22.5536         2.62164 
         2.4237         22.4913         2.60522 
        2.42983         22.3341         2.58893 
        2.43598         22.2547         2.57275 
        2.44211         22.1789         2.55672 
        2.44823         22.0885         2.54087 
        2.45437         22.0552         2.52511 
        2.46052         21.9218         2.50947 
        2.46665          21.855         2.49399 
        2.47279         21.7262         2.47865 
        2.47892         21.6714         2.46343 
        2.48507         21.5821         2.44832 
         2.4912         21.5087         2.43336 
