# k  (h/Mpc)    Pcb(k)  (Mpc/h)^3    Pcb_linear(k)  (Mpc/h)^3
     0.00783031         8861.23         8916.35 
       0.013688         10395.8         10610.6 
       0.019231         10262.1         10373.6 
      0.0249154         9262.63         9228.78 
      0.0312784         7605.28         7633.04 
      0.0375637         6167.27         6219.92 
      0.0433917         5243.22         5235.59 
      0.0492413         4550.79         4568.37 
      0.0555754         4136.65         4119.84 
      0.0619321          3750.4          3828.6 
       0.067871         3564.84         3593.48 
      0.0738098         3316.35         3326.65 
      0.0800417         2994.63         2990.43 
      0.0862327         2618.56         2622.04 
      0.0921407         2294.34         2280.89 
      0.0982031          2025.2         1981.07 
       0.104506         1767.87         1746.41 
       0.110769         1622.58         1591.47 
       0.116806          1550.9         1499.81 
       0.122832         1470.77         1440.74 
       0.129052          1413.7         1387.55 
       0.135211         1365.32         1322.45 
       0.141259         1264.71         1237.98 
       0.147318         1155.65         1136.32 
       0.153489         1060.52         1026.82 
       0.159709         983.309         924.267 
       0.165845         884.626         840.921 
       0.171974         851.076          779.35 
       0.178125         810.599           737.5 
       0.184229         760.506         709.888 
        0.19034         747.094         688.532 
       0.196428         724.649         666.464 
       0.202534         677.011          638.89 
       0.208729         660.371         604.116 
       0.214876         626.367         564.863 
       0.220989         579.286         524.976 
       0.227147         558.239         487.937 
        0.23329         531.196         456.903 
       0.239377         517.953         432.932 
       0.245482         490.705         414.908 
       0.251667         471.582         400.857 
       0.257832         466.438         388.665 
       0.263955         441.478         376.211 
       0.270079         424.722         362.137 
        0.27624         406.476         346.115 
       0.282372         394.787         328.958 
        0.28843           389.3         311.991 
       0.294538         368.023         296.003 
       0.300721         354.351         281.829 
        0.30691         347.624         269.929 
       0.313033         331.269           260.2 
       0.319153         325.607         251.895 
       0.325316         317.809         244.239 
        0.33145         309.262         236.662 
       0.337538         297.958         228.815 
       0.343633         288.624         220.516 
       0.349808         280.162         211.874 
       0.355968         273.808          203.33 
       0.362074         265.241          195.31 
       0.368217         261.521         187.938 
       0.374374         254.887         181.348 
       0.380519         244.236         175.519 
       0.386598         240.438         170.294 
       0.392688         233.601         165.401 
        0.39888         228.434         160.561 
       0.405048         223.329         155.731 
       0.411186         221.103         150.895 
       0.417313         216.415         146.058 
       0.423458          210.58         141.295 
       0.429607         204.969         136.732 
       0.435692         201.536          132.48 
       0.441815         197.034         128.502 
       0.447964          191.45         124.811 
       0.454126         188.393         121.356 
       0.460267         186.059         118.085 
       0.466387          181.65         114.942 
        0.47254         179.501          111.85 
       0.478662         173.961         108.812 
       0.484765          171.56         105.832 
       0.490885         168.584          102.92 
       0.497035         166.407         100.092 
       0.503198         164.191          97.377 
       0.509342         159.818         94.8041 
       0.515458         157.471         92.3797 
       0.521598         153.664         90.0636 
       0.527764         152.183         87.8323 
       0.533884         151.195         85.6931 
           0.54         147.459         83.6185 
       0.546137         144.096         81.5905 
       0.552299         142.328         79.6007 
       0.558452         139.849         77.6643 
       0.564573         139.118          75.796 
       0.570708         135.413         73.9895 
       0.576825         133.749         72.2587 
       0.582926         132.278         70.5978 
       0.589034          130.06          68.995 
       0.595184         128.719          67.437 
       0.601379          126.15         65.9197 
       0.607522         123.531         64.4614 
       0.613639         122.651         63.0506 
       0.619772         120.889         61.6735 
       0.625918         119.999          60.329 
       0.632068         117.173         59.0205 
       0.638161          116.05         57.7622 
         0.6443         115.207         56.5337 
       0.650464         112.811         55.3408 
       0.656582         112.187         54.1945 
       0.662703         110.894         53.0825 
       0.668861         108.548         51.9962 
       0.675024         108.526         50.9391 
       0.681124         106.663         49.9207 
       0.687237         105.174         48.9271 
       0.693381         103.973         47.9554 
       0.699536         102.868         47.0082 
       0.705665         101.649          46.091 
       0.711789         100.273         45.1997 
       0.717957         99.0278         44.3264 
        0.72409         98.0614         43.4816 
       0.730186         97.7386         42.6642 
       0.736317         96.1892         41.8636 
       0.742472         94.6713         41.0807 
       0.748622         93.2613         40.3186 
        0.75476         93.4117         39.5776 
       0.760888         92.4219         38.8564 
       0.767043         90.6019         38.1504 
       0.773185         89.5328         37.4637 
       0.779291         88.5948         36.7979 
       0.785407          87.844         36.1475 
       0.791564          87.284         35.5089 
       0.797719         85.9691         34.8863 
       0.803834         85.6664         34.2826 
       0.809972         84.8917         33.6913 
       0.816124          83.611         33.1126 
       0.822261         82.7217         32.5492 
       0.828378         82.5203         32.0007 
       0.834502         81.4535         31.4643 
       0.840667          80.872         30.9369 
       0.846816         80.0612          30.423 
       0.852925         79.0819         29.9242 
       0.859047         78.6807         29.4355 
       0.865192         77.7954         28.9562 
       0.871341         77.0042         28.4873 
       0.877463         76.3384         28.0311 
       0.883569         76.2357          27.586 
       0.889708         75.4268         27.1484 
       0.895864         74.8102         26.7193 
       0.902008         73.9562         26.3003 
       0.908149         73.0231         25.8907 
       0.914301         72.8306         25.4892 
       0.920448         72.6954         25.0967 
       0.926574          71.127         24.7138 
       0.932687         70.9727         24.3397 
       0.938823         70.4533         23.9721 
       0.944975         69.6222         23.6113 
       0.951105         68.9975         23.2593 
       0.957225         68.7926         22.9151 
       0.963368          68.082         22.5767 
       0.969511         67.6531         22.2452 
       0.975621         66.9061         21.9221 
       0.981748         66.4359         21.6047 
       0.987916         65.8694         21.2916 
        0.99406         65.6717          20.986 
        1.00019         64.8015         20.6869 
        1.00632         64.2998          20.394 
        1.01246         63.9666         20.1064 
        1.01859         63.6802         19.8248 
        1.02471         63.0838          19.549 
        1.03085         62.5146         19.2775 
        1.03698         62.1156         19.0118 
        1.04314         61.6225           18.75 
        1.04929         61.2302         18.4937 
        1.05541         60.8084         18.2433 
        1.06154          60.391          17.997 
        1.06769         59.9005         17.7548 
        1.07382         59.3107         17.5179 
        1.07993         59.1562         17.2859 
        1.08607         58.6581         17.0571 
        1.09222         58.3992         16.8323 
        1.09836         57.9109         16.6118 
        1.10449         57.5569         16.3956 
        1.11063         57.1264         16.1829 
        1.11677         56.8604         15.9741 
         1.1229         56.2915         15.7694 
        1.12903         56.0827         15.5681 
        1.13518         55.7906         15.3702 
        1.14131         55.2719         15.1758 
        1.14745          55.011         14.9849 
        1.15359         54.3111         14.7973 
        1.15973         54.3181         14.6128 
        1.16584         53.9067         14.4323 
        1.17197         53.4537         14.2546 
        1.17811         53.1427         14.0793 
        1.18424         52.5276         13.9075 
        1.19038         52.4378         13.7381 
        1.19652         52.1593         13.5716 
        1.20267         51.7523         13.4079 
        1.20881         51.4486         13.2469 
        1.21495         51.1618         13.0889 
        1.22108         51.0733         12.9334 
         1.2272          50.468         12.7809 
        1.23334         50.3096         12.6304 
        1.23949         49.9342         12.4821 
        1.24562         49.6001         12.3365 
        1.25174         49.3624         12.1935 
        1.25789         49.1697         12.0523 
        1.26402           48.81         11.9137 
        1.27014         48.6381         11.7775 
        1.27628         48.1605         11.6431 
        1.28244         48.1476         11.5106 
        1.28858         47.7062         11.3803 
        1.29471         47.3345         11.2523 
        1.30084         46.9439         11.1264 
        1.30697         47.0287         11.0022 
        1.31312         46.6374         10.8797 
        1.31925         46.2614         10.7596 
        1.32537         46.0343         10.6413 
        1.33151         45.7614         10.5244 
        1.33765         45.5841         10.4093 
        1.34378         45.2921         10.2962 
        1.34992         45.0577         10.1847 
        1.35606         44.6752         10.0746 
         1.3622         44.5689         9.96636 
        1.36833          44.351         9.85995 
        1.37445         43.8901         9.75515 
        1.38059         43.7923         9.65156 
        1.38675         43.4234         9.54923 
        1.39288         43.3568         9.44879 
        1.39901         42.9779         9.34985 
        1.40515         42.8504         9.25211 
         1.4113         42.7185          9.1558 
        1.41742         42.3866         9.06123 
        1.42355         42.1962         8.96783 
         1.4297         42.0073         8.87546 
        1.43585         41.7505         8.78443 
        1.44198         41.4416         8.69504 
        1.44809         41.1822         8.60705 
        1.45423          41.082         8.51997 
        1.46036         40.9011         8.43425 
        1.46649         40.5984         8.34968 
        1.47263         40.4013         8.26621 
        1.47877         40.2374         8.18391 
        1.48491         39.9802         8.10262 
        1.49104         39.7447          8.0226 
        1.49718         39.6155          7.9436 
        1.50333         39.4321         7.86555 
        1.50947         39.1755          7.7887 
         1.5156         39.0372           7.713 
        1.52172         38.7343         7.63831 
        1.52787         38.6182         7.56446 
          1.534         38.3364         7.49167 
        1.54013          38.366         7.41992 
        1.54627         37.9805         7.34899 
        1.55241         37.8279         7.27897 
        1.55855         37.6591         7.20996 
        1.56467         37.3558         7.14204 
         1.5708         37.3552         7.07481 
        1.57695         37.1253         7.00834 
        1.58308         36.8537         6.94288 
        1.58922         36.7146         6.87821 
        1.59535         36.6389          6.8144 
         1.6015         36.5319          6.7513 
        1.60764         36.2168         6.68904 
        1.61376         36.0417         6.62773 
        1.61989         35.7735         6.56714 
        1.62604         35.6733         6.50718 
        1.63218          35.384           6.448 
        1.63831         35.3599         6.38969 
        1.64444         35.2043         6.33209 
        1.65059         34.9519         6.27506 
        1.65673          34.812         6.21879 
        1.66285         34.7159         6.16337 
        1.66898          34.476         6.10861 
        1.67512         34.3111         6.05441 
        1.68127         34.1884         6.00082 
         1.6874         34.0445         5.94799 
        1.69353         33.8862         5.89584 
        1.69967         33.7541         5.84419 
        1.70581         33.5131         5.79318 
        1.71193         33.3799         5.74297 
        1.71806         33.2592         5.69326 
        1.72421         33.0828         5.64403 
        1.73035         32.9253         5.59544 
        1.73649         32.7149         5.54744 
        1.74262         32.5129         5.50004 
        1.74876         32.5992         5.45316 
        1.75489         32.3046         5.40693 
        1.76101         32.2032         5.36124 
        1.76715         32.0153         5.31602 
        1.77329          31.769         5.27127 
        1.77943         31.7974         5.22702 
        1.78557          31.651         5.18334 
        1.79171         31.4546         5.14015 
        1.79785          31.354         5.09745 
        1.80399         31.1569         5.05524 
        1.81012         31.0547         5.01357 
        1.81625         30.8244         4.97238 
        1.82239         30.7167          4.9316 
        1.82853         30.6164         4.89129 
        1.83466         30.4503         4.85148 
        1.84078         30.3104         4.81215 
        1.84692         30.1538          4.7732 
        1.85306          30.003         4.73462 
         1.8592         29.9091         4.69654 
        1.86533         29.7965         4.65889 
        1.87147         29.6509         4.62162 
        1.87761         29.4947         4.58474 
        1.88375         29.3742          4.5483 
        1.88988         29.2611          4.5123 
        1.89601         29.0953         4.47666 
        1.90215         28.9602         4.44139 
        1.90829         28.8608         4.40651 
        1.91442         28.7153           4.372 
        1.92056         28.6194          4.3379 
         1.9267         28.5495         4.30412 
        1.93284         28.3928         4.27068 
        1.93897         28.2821         4.23767 
        1.94509         28.1124         4.20507 
        1.95123         28.0373         4.17273 
        1.95737         27.8962         4.14071 
        1.96349          27.837         4.10911 
        1.96964         27.6578         4.07775 
        1.97578         27.5042          4.0467 
        1.98192         27.3804         4.01604 
        1.98805         27.2586         3.98569 
        1.99419         27.1628         3.95565 
        2.00033         27.0425         3.92591 
        2.00647         26.9806         3.89649 
         2.0126         26.7909         3.86741 
        2.01874         26.7274         3.83859 
        2.02488         26.5432         3.81004 
        2.03101         26.4607         3.78183 
        2.03714         26.3637         3.75393 
        2.04328          26.257         3.72628 
        2.04941         26.0974         3.69893 
        2.05554         26.0165         3.67188 
        2.06167         25.9143         3.64506 
        2.06781         25.7996         3.61851 
        2.07396          25.681         3.59218 
        2.08009         25.5557         3.56616 
        2.08622         25.4761         3.54043 
        2.09237         25.3619          3.5149 
        2.09851         25.2871         3.48962 
        2.10464          25.147         3.46463 
        2.11077         25.0893         3.43991 
        2.11691         24.9053         3.41539 
        2.12305         24.8252          3.3911 
        2.12918         24.7206          3.3671 
        2.13531         24.6109         3.34334 
        2.14145          24.543         3.31975 
         2.1476         24.4222         3.29636 
        2.15372         24.3506         3.27331 
        2.15985         24.1939         3.25046 
        2.16599         24.0661         3.22776 
        2.17213         24.0203         3.20531 
        2.17827         23.9193         3.18307 
         2.1844         23.7888         3.16106 
        2.19054         23.7623         3.13926 
        2.19666         23.6013         3.11769 
         2.2028         23.5486          3.0963 
        2.20893         23.4627         3.07511 
        2.21508         23.3563         3.05408 
        2.22122         23.2578         3.03325 
        2.22736         23.1595         3.01266 
        2.23349         23.0746         2.99226 
        2.23962         22.9738         2.97204 
        2.24577         22.8708         2.95199 
         2.2519         22.7502         2.93216 
        2.25802         22.6397         2.91253 
        2.26417           22.55         2.89304 
        2.27031         22.4719          2.8737 
        2.27644         22.4247          2.8546 
        2.28257         22.3273         2.83567 
        2.28872         22.2473         2.81687 
        2.29486         22.1435         2.79825 
        2.30099         22.0181         2.77984 
        2.30712         21.9636         2.76159 
        2.31326         21.8547         2.74346 
         2.3194         21.7812         2.72552 
        2.32553         21.7015         2.70776 
        2.33166         21.6062         2.69016 
         2.3378         21.5085          2.6727 
        2.34394         21.4385         2.65539 
        2.35007         21.3662         2.63826 
        2.35619         21.3053          2.6213 
        2.36233         21.1601         2.60445 
        2.36848          21.105         2.58771 
        2.37462         21.0578         2.57115 
        2.38075         20.9243         2.55475 
        2.38689         20.8201         2.53849 
        2.39303         20.7786         2.52237 
        2.39916         20.6605          2.5064 
        2.40529         20.6104         2.49057 
        2.41143         20.5022         2.47487 
        2.41757         20.4025          2.4593 
         2.4237         20.3587         2.44389 
        2.42983         20.2377         2.42862 
        2.43598         20.1468         2.41343 
        2.44211         20.0923          2.3984 
        2.44823         19.9948         2.38353 
        2.45437         19.9687         2.36875 
        2.46052         19.8702         2.35408 
        2.46665         19.8011         2.33956 
        2.47279         19.6925         2.32516 
        2.47892         19.6347         2.31088 
        2.48507         19.5627         2.29671 
         2.4912         19.4981         2.28268 
