# k  (h/Mpc)    Pcb(k)  (Mpc/h)^3    Pcb_linear(k)  (Mpc/h)^3
     0.00783031         268.144          270.43 
       0.013688         319.487         322.108 
       0.019231         314.099         315.027 
      0.0249154         280.278         280.315 
      0.0312784         232.065         231.875 
      0.0375637         189.091         188.962 
      0.0433917          159.55         159.065 
      0.0492413         138.993         138.799 
      0.0555754         125.593         125.174 
      0.0619321         116.009         116.328 
       0.067871         109.164         109.185 
      0.0738098         101.055         101.079 
      0.0800417         90.9652         90.8637 
      0.0862327         79.6973          79.671 
      0.0921407         69.3586         69.3056 
      0.0982031         60.4147         60.1958 
       0.104506          53.089         53.0658 
       0.110769         48.4023         48.3579 
       0.116806         45.7224         45.5731 
       0.122832         43.7834         43.7781 
       0.129052         42.2254         42.1619 
       0.135211         40.2794         40.1838 
       0.141259         37.6329         37.6174 
       0.147318         34.4877         34.5284 
       0.153489         31.2407          31.201 
       0.159709         28.1793          28.085 
       0.165845         25.5426         25.5524 
       0.171974         23.8213         23.6816 
       0.178125         22.5153         22.4099 
       0.184229         21.6216         21.5709 
        0.19034         21.0356          20.922 
       0.196428         20.3278         20.2514 
       0.202534         19.3916         19.4135 
       0.208729         18.4168         18.3569 
       0.214876         17.2757         17.1642 
       0.220989         15.9899         15.9522 
       0.227147         14.9567         14.8267 
        0.23329          14.023         13.8837 
       0.239377         13.3001         13.1553 
       0.245482         12.7459         12.6076 
       0.251667         12.2681         12.1806 
       0.257832         11.9454         11.8102 
       0.263955           11.52         11.4317 
       0.270079         11.0896         11.0041 
        0.27624         10.5765         10.5172 
       0.282372         10.0638         9.99589 
        0.28843         9.60005         9.48032 
       0.294538         9.10701          8.9945 
       0.300721          8.6466         8.56379 
        0.30691         8.32426         8.20221 
       0.313033         8.01651         7.90657 
       0.319153         7.80557         7.65421 
       0.325316         7.50715         7.42158 
        0.33145         7.27216         7.19136 
       0.337538         7.04486         6.95291 
       0.343633         6.81016         6.70071 
       0.349808         6.53436         6.43814 
       0.355968         6.26978          6.1785 
       0.362074         6.04961         5.93481 
       0.368217         5.81853          5.7108 
       0.374374         5.64206         5.51055 
       0.380519         5.43869         5.33341 
       0.386598         5.26761         5.17466 
       0.392688         5.10886         5.02598 
        0.39888         4.97522         4.87892 
       0.405048         4.83187         4.73215 
       0.411186         4.68031         4.58518 
       0.417313         4.53513         4.43821 
       0.423458         4.37551         4.29349 
       0.429607         4.25797         4.15481 
       0.435692          4.1337         4.02562 
       0.441815         4.00039         3.90475 
       0.447964         3.87452         3.79259 
       0.454126         3.78413          3.6876 
       0.460267         3.69594          3.5882 
       0.466387         3.59305         3.49269 
        0.47254         3.50441         3.39873 
       0.478662         3.40591         3.30643 
       0.484765         3.31733         3.21587 
       0.490885         3.22026         3.12739 
       0.497035         3.12432         3.04146 
       0.503198         3.05432         2.95896 
       0.509342         2.96453         2.88078 
       0.515458         2.89907         2.80711 
       0.521598         2.82973         2.73673 
       0.527764         2.77036         2.66893 
       0.533884         2.68661         2.60393 
           0.54         2.63025         2.54089 
       0.546137         2.56052         2.47926 
       0.552299         2.50383          2.4188 
       0.558452         2.44382         2.35996 
       0.564573          2.3889         2.30319 
       0.570708         2.33448          2.2483 
       0.576825         2.28156          2.1957 
       0.582926         2.22539         2.14523 
       0.589034         2.18407         2.09653 
       0.595184         2.13973         2.04919 
       0.601379         2.08647         2.00308 
       0.607522         2.03879         1.95877 
       0.613639         1.99102          1.9159 
       0.619772         1.95664         1.87405 
       0.625918         1.91442          1.8332 
       0.632068         1.87452         1.79344 
       0.638161         1.83463          1.7552 
         0.6443         1.79513         1.71787 
       0.650464         1.75962         1.68162 
       0.656582         1.72937         1.64679 
       0.662703         1.69314           1.613 
       0.668861         1.65177         1.57999 
       0.675024         1.62164         1.54787 
       0.681124         1.60347         1.51692 
       0.687237         1.56483         1.48673 
       0.693381         1.52778          1.4572 
       0.699536         1.50717         1.42842 
       0.705665         1.47811         1.40055 
       0.711789         1.44461         1.37347 
       0.717957         1.41905         1.34693 
        0.72409         1.39321         1.32126 
       0.730186         1.37399         1.29642 
       0.736317         1.34258          1.2721 
       0.742472         1.32273         1.24831 
       0.748622         1.30036         1.22515 
        0.75476         1.27214         1.20263 
       0.760888         1.25437         1.18072 
       0.767043         1.22166         1.15927 
       0.773185         1.20561          1.1384 
       0.779291         1.19112         1.11817 
       0.785407         1.16784          1.0984 
       0.791564         1.14708           1.079 
       0.797719         1.12705         1.06008 
       0.803834         1.10822         1.04174 
       0.809972         1.09013         1.02377 
       0.816124         1.07225         1.00618 
       0.822261         1.05551        0.989064 
       0.828378         1.03724        0.972395 
       0.834502         1.01984        0.956098 
       0.840667         1.00595         0.94007 
       0.846816          0.9885        0.924456 
       0.852925        0.970832        0.909297 
       0.859047        0.956053        0.894448 
       0.865192        0.942073        0.879884 
       0.871341        0.928947        0.865637 
       0.877463        0.911047        0.851772 
       0.883569        0.898184        0.838248 
       0.889708        0.886549        0.824951 
       0.895864        0.873128         0.81191 
       0.902008        0.857457        0.799181 
       0.908149        0.846345        0.786734 
       0.914301        0.835384        0.774534 
       0.920448        0.823408        0.762605 
       0.926574        0.812767        0.750971 
       0.932687        0.800361        0.739605 
       0.938823        0.785119        0.728435 
       0.944975        0.776554        0.717471 
       0.951105        0.761664        0.706774 
       0.957225        0.752162        0.696314 
       0.963368        0.743247        0.686032 
       0.969511        0.733737        0.675958 
       0.975621        0.721553        0.666142 
       0.981748         0.70882        0.656497 
       0.987916        0.700519        0.646983 
        0.99406        0.692761        0.637695 
        1.00019        0.682523        0.628608 
        1.00632        0.675478        0.619708 
        1.01246        0.665661        0.610968 
        1.01859         0.65703        0.602412 
        1.02471        0.646013        0.594031 
        1.03085          0.6369        0.585781 
        1.03698        0.630491        0.577707 
        1.04314        0.621674        0.569751 
        1.04929         0.61552        0.561965 
        1.05541        0.604743        0.554356 
        1.06154        0.598508         0.54687 
        1.06769          0.5912        0.539511 
        1.07382         0.58327        0.532313 
        1.07993        0.576125        0.525262 
        1.08607        0.568905        0.518311 
        1.09222        0.560888        0.511479 
        1.09836        0.554738        0.504779 
        1.10449        0.546707        0.498207 
        1.11063        0.539734        0.491746 
        1.11677        0.534534        0.485402 
         1.1229        0.525969        0.479181 
        1.12903        0.521316        0.473064 
        1.13518        0.514266         0.46705 
        1.14131        0.508913        0.461143 
        1.14745        0.504202        0.455342 
        1.15359         0.49667        0.449641 
        1.15973        0.491533        0.444035 
        1.16584        0.484988         0.43855 
        1.17197        0.478726         0.43315 
        1.17811        0.472762        0.427825 
        1.18424        0.467656        0.422605 
        1.19038        0.461491        0.417458 
        1.19652        0.457933        0.412398 
        1.20267        0.453033        0.407423 
        1.20881        0.445581        0.402532 
        1.21495        0.441602        0.397728 
        1.22108        0.437077        0.393005 
         1.2272        0.431028        0.388369 
        1.23334        0.426703        0.383798 
        1.23949        0.422878         0.37929 
        1.24562        0.417828        0.374867 
        1.25174        0.413351        0.370521 
        1.25789        0.407459        0.366232 
        1.26402         0.40424        0.362018 
        1.27014        0.398496        0.357882 
        1.27628        0.395338        0.353797 
        1.28244        0.390964        0.349769 
        1.28858        0.385894        0.345809 
        1.29471        0.382178         0.34192 
        1.30084        0.378144        0.338094 
        1.30697        0.375266        0.334321 
        1.31312        0.371112          0.3306 
        1.31925        0.366829        0.326948 
        1.32537        0.363079        0.323355 
        1.33151        0.359204        0.319803 
        1.33765        0.355358        0.316306 
        1.34378        0.351065        0.312869 
        1.34992        0.349016        0.309481 
        1.35606        0.344422        0.306136 
         1.3622        0.341303        0.302846 
        1.36833         0.33847        0.299612 
        1.37445         0.33505        0.296428 
        1.38059        0.331476         0.29328 
        1.38675        0.327676         0.29017 
        1.39288        0.323891        0.287119 
        1.39901         0.32175        0.284112 
        1.40515        0.318123        0.281142 
         1.4113        0.315865        0.278215 
        1.41742        0.312557        0.275342 
        1.42355        0.308062        0.272504 
         1.4297         0.30666        0.269697 
        1.43585        0.302788        0.266931 
        1.44198         0.30057        0.264214 
        1.44809        0.297112        0.261541 
        1.45423        0.294619        0.258895 
        1.46036        0.291701         0.25629 
        1.46649        0.288973         0.25372 
        1.47263        0.285389        0.251184 
        1.47877        0.284542        0.248683 
        1.48491        0.280208        0.246213 
        1.49104        0.279297        0.243781 
        1.49718        0.275753        0.241381 
        1.50333        0.273558        0.239009 
        1.50947        0.271166        0.236674 
         1.5156        0.268416        0.234374 
        1.52172        0.266212        0.232104 
        1.52787        0.262931         0.22986 
          1.534        0.261419        0.227648 
        1.54013        0.258939        0.225468 
        1.54627        0.256844        0.223312 
        1.55241        0.254385        0.221185 
        1.55855        0.252078        0.219088 
        1.56467        0.250136        0.217024 
         1.5708         0.24759        0.214981 
        1.57695        0.245433        0.212961 
        1.58308        0.242602        0.210972 
        1.58922        0.241355        0.209007 
        1.59535        0.238826        0.207068 
         1.6015           0.237        0.205151 
        1.60764        0.234794        0.203259 
        1.61376        0.232857        0.201396 
        1.61989        0.230664        0.199555 
        1.62604        0.228612        0.197733 
        1.63218         0.22724        0.195934 
        1.63831         0.22489        0.194163 
        1.64444        0.223354        0.192412 
        1.65059        0.220842        0.190679 
        1.65673        0.219301        0.188969 
        1.66285        0.217729        0.187285 
        1.66898        0.215659        0.185621 
        1.67512        0.213742        0.183974 
        1.68127        0.211865        0.182346 
         1.6874        0.210485        0.180741 
        1.69353        0.208475        0.179156 
        1.69967        0.206697        0.177587 
        1.70581        0.205503        0.176037 
        1.71193         0.20401        0.174511 
        1.71806        0.202008           0.173 
        1.72421         0.20025        0.171504 
        1.73035        0.198631        0.170028 
        1.73649        0.197375        0.168569 
        1.74262        0.195341        0.167129 
        1.74876        0.194337        0.165704 
        1.75489        0.192744          0.1643 
        1.76101        0.191051        0.162911 
        1.76715        0.189648        0.161537 
        1.77329        0.187945        0.160177 
        1.77943        0.186398        0.158833 
        1.78557        0.185484        0.157505 
        1.79171        0.184054        0.156193 
        1.79785        0.182258        0.154895 
        1.80399        0.180508        0.153613 
        1.81012        0.179694        0.152347 
        1.81625         0.17846        0.151095 
        1.82239        0.177333        0.149856 
        1.82853         0.17547        0.148631 
        1.83466        0.174079        0.147421 
        1.84078        0.172918        0.146226 
        1.84692        0.171633        0.145043 
        1.85306        0.170484         0.14387 
         1.8592        0.169134        0.142713 
        1.86533        0.168026        0.141569 
        1.87147        0.166576        0.140437 
        1.87761        0.165239        0.139316 
        1.88375        0.164042        0.138209 
        1.88988        0.162774        0.137115 
        1.89601        0.161312        0.136032 
        1.90215        0.160443         0.13496 
        1.90829        0.159013          0.1339 
        1.91442        0.158363        0.132852 
        1.92056         0.15731        0.131815 
         1.9267        0.155969        0.130789 
        1.93284        0.154581        0.129773 
        1.93897          0.1536         0.12877 
        1.94509        0.152618        0.127779 
        1.95123         0.15128        0.126796 
        1.95737        0.150481        0.125823 
        1.96349        0.149314        0.124863 
        1.96964        0.148141         0.12391 
        1.97578        0.147106        0.122967 
        1.98192        0.146397        0.122035 
        1.98805        0.145388        0.121113 
        1.99419        0.144539          0.1202 
        2.00033          0.1432        0.119296 
        2.00647        0.142282        0.118402 
         2.0126        0.141409        0.117519 
        2.01874        0.140418        0.116643 
        2.02488        0.139519        0.115775 
        2.03101        0.138251        0.114918 
        2.03714        0.138011         0.11407 
        2.04328        0.136388         0.11323 
        2.04941        0.135863        0.112399 
        2.05554        0.134929        0.111577 
        2.06167        0.133962        0.110762 
        2.06781        0.132754        0.109955 
        2.07396        0.132219        0.109155 
        2.08009        0.131228        0.108365 
        2.08622        0.130494        0.107583 
        2.09237        0.129566        0.106807 
        2.09851        0.128491        0.106039 
        2.10464        0.127828        0.105279 
        2.11077        0.126866        0.104528 
        2.11691        0.126251        0.103783 
        2.12305        0.125131        0.103045 
        2.12918        0.124347        0.102316 
        2.13531         0.12364        0.101594 
        2.14145        0.122882        0.100877 
         2.1476        0.122107        0.100166 
        2.15372        0.121437       0.0994658 
        2.15985        0.120488       0.0987715 
        2.16599        0.119547       0.0980818 
        2.17213        0.119135       0.0973995 
        2.17827        0.118283       0.0967238 
         2.1844        0.117555       0.0960551 
        2.19054        0.116896       0.0953924 
        2.19666        0.116152        0.094737 
         2.2028        0.115077       0.0940872 
        2.20893        0.114629       0.0934431 
        2.21508         0.11392       0.0928044 
        2.22122        0.113229       0.0921714 
        2.22736        0.112459       0.0915456 
        2.23349          0.1117       0.0909258 
        2.23962        0.111147       0.0903114 
        2.24577        0.110505       0.0897022 
         2.2519        0.109764       0.0890994 
        2.25802        0.109051       0.0885031 
        2.26417        0.108601       0.0879106 
        2.27031        0.107754        0.087323 
        2.27644        0.107477       0.0867425 
        2.28257        0.106509       0.0861673 
        2.28872        0.105912       0.0855963 
        2.29486        0.105351       0.0850305 
        2.30099        0.104552        0.084471 
        2.30712        0.104051       0.0839163 
        2.31326        0.103293       0.0833656 
         2.3194        0.102852       0.0828202 
        2.32553        0.102267       0.0822806 
        2.33166        0.101537        0.081746 
         2.3378        0.100997       0.0812154 
        2.34394        0.100418       0.0806894 
        2.35007       0.0998859       0.0801688 
        2.35619       0.0994224       0.0796534 
        2.36233       0.0986745       0.0791413 
        2.36848       0.0981427       0.0786327 
        2.37462       0.0977187       0.0781296 
        2.38075       0.0970538       0.0776313 
        2.38689       0.0965821        0.077137 
        2.39303       0.0960531       0.0766472 
        2.39916       0.0953548        0.076162 
        2.40529       0.0948222       0.0756811 
        2.41143       0.0941771        0.075204 
        2.41757       0.0937419       0.0747309 
         2.4237       0.0932713       0.0742626 
        2.42983       0.0928001       0.0737984 
        2.43598       0.0922058        0.073337 
        2.44211       0.0914667       0.0728802 
        2.44823       0.0912572       0.0724284 
        2.45437       0.0907093       0.0719792 
        2.46052       0.0901794       0.0715334 
        2.46665       0.0896835       0.0710922 
        2.47279       0.0891478       0.0706548 
        2.47892       0.0889474       0.0702208 
        2.48507        0.088121       0.0697901 
         2.4912       0.0878141       0.0693638 
