# k  (h/Mpc)    P(k)  (Mpc/h)^3    P_linear(k)  (Mpc/h)^3
     0.00783031         15293.4         15565.2 
       0.013688         19365.9         19230.3 
       0.019231         19442.9         19437.8 
      0.0249154         17482.9         17883.9 
      0.0312784           15157         15349.1 
      0.0375637         12919.3         12932.9 
      0.0433917         10952.9         11158.6 
      0.0492413         9820.08         9893.78 
      0.0555754         8704.49         8989.01 
      0.0619321         8362.43         8359.58 
       0.067871         7606.15         7840.08 
      0.0738098         7051.85         7269.16 
      0.0800417         6310.55         6576.11 
      0.0862327         5685.88         5832.56 
      0.0921407         5132.25         5147.35 
      0.0982031         4523.32         4540.79 
       0.104506         4191.21          4056.6 
       0.110769         3852.21         3724.38 
       0.116806         3623.68         3513.99 
       0.122832         3465.22         3365.28 
       0.129052         3237.69         3226.15 
       0.135211         3083.35         3065.17 
       0.141259         2949.39          2869.9 
       0.147318          2766.4         2644.99 
       0.153489         2519.26         2408.51 
       0.159709         2362.34         2189.19 
       0.165845         2254.09          2010.5 
       0.171974         2121.12          1876.3 
       0.178125         2017.24         1781.47 
       0.184229         1932.72         1714.39 
        0.19034         1832.28         1658.57 
       0.196428         1799.53         1600.26 
       0.202534         1733.98         1530.49 
       0.208729          1652.3         1446.64 
       0.214876          1578.5         1355.38 
       0.220989         1519.52         1264.83 
       0.227147         1450.25         1181.92 
        0.23329         1389.53         1112.76 
       0.239377          1364.7         1058.94 
       0.245482         1279.22         1017.46 
       0.251667         1272.81         983.673 
       0.257832         1223.42         953.004 
       0.263955         1184.15         921.113 
       0.270079         1142.55         885.489 
        0.27624         1129.54          845.87 
       0.282372          1081.9          804.46 
        0.28843         1070.89         764.336 
       0.294538         1016.55         727.103 
       0.300721         1010.52         694.403 
        0.30691         969.776          666.94 
       0.313033         950.862         644.217 
       0.319153         931.996         624.343 
       0.325316         902.391         605.519 
        0.33145         881.239         586.519 
       0.337538         866.224         566.764 
       0.343633         845.274         546.013 
       0.349808         816.084         524.686 
       0.355968         810.423         503.909 
       0.362074         801.301         484.659 
       0.368217         776.672         467.149 
       0.374374         746.041          451.54 
       0.380519         746.299         437.685 
       0.386598         725.498         425.115 
       0.392688         723.128         413.141 
        0.39888         701.581         401.136 
       0.405048         691.503         389.042 
       0.411186         681.605         376.923 
       0.417313          667.41         364.869 
       0.423458           655.4         353.092 
       0.429607         646.497         341.912 
       0.435692         632.109         331.591 
       0.441815         626.686         321.965 
       0.447964         613.649         313.034 
       0.454126         605.919         304.636 
       0.460267         592.005         296.611 
       0.466387         585.255         288.818 
        0.47254         578.968         281.108 
       0.478662         574.718         273.508 
       0.484765         556.457          266.05 
       0.490885         552.594         258.785 
       0.497035         541.564         251.778 
       0.503198         537.262         245.086 
       0.509342         532.393         238.757 
       0.515458         528.266           232.8 
       0.521598         514.823         227.104 
       0.527764         506.059         221.599 
       0.533884         504.022         216.286 
           0.54         497.839         211.103 
       0.546137          494.84         206.025 
       0.552299         486.613         201.046 
       0.558452         483.676         196.205 
       0.564573         477.114         191.538 
       0.570708         470.863         187.033 
       0.576825         458.828         182.728 
       0.582926         459.332         178.609 
       0.589034         455.173         174.634 
       0.595184         451.205         170.761 
       0.601379         444.312         166.973 
       0.607522         438.146          163.32 
       0.613639         437.443         159.782 
       0.619772         427.877         156.329 
       0.625918          426.12         152.961 
       0.632068         419.654         149.685 
       0.638161          418.06         146.534 
         0.6443         410.952         143.456 
       0.650464         408.318         140.466 
       0.656582         405.201         137.595 
       0.662703         403.906         134.812 
       0.668861         396.951         132.093 
       0.675024         393.611         129.447 
       0.681124         390.542         126.894 
       0.687237         387.091         124.399 
       0.693381         381.691         121.954 
       0.699536           376.8         119.569 
       0.705665         375.157         117.258 
       0.711789         373.278         115.013 
       0.717957         370.014         112.816 
        0.72409         367.372         110.692 
       0.730186           362.5         108.638 
       0.736317         359.528         106.626 
       0.742472          357.65         104.658 
       0.748622         353.888         102.741 
        0.75476         349.605         100.875 
       0.760888         346.021         99.0569 
       0.767043         346.518         97.2757 
       0.773185         342.404         95.5416 
       0.779291         337.783         93.8598 
       0.785407         336.684         92.2164 
       0.791564         332.509          90.603 
       0.797719         330.211         89.0299 
       0.803834         326.984          87.505 
       0.809972         326.246         86.0111 
       0.816124         325.376         84.5493 
       0.822261         321.023         83.1259 
       0.828378         318.873         81.7398 
       0.834502         315.861         80.3842 
       0.840667         313.276         79.0507 
       0.846816         311.822         77.7511 
       0.852925           309.7         76.4889 
       0.859047          307.59         75.2522 
       0.865192           303.9         74.0388 
       0.871341         301.611         72.8516 
       0.877463         300.787         71.6958 
       0.883569         298.764         70.5682 
       0.889708         295.829         69.4593 
       0.895864         293.863         68.3715 
       0.902008         291.692         67.3095 
       0.908149         289.452         66.2709 
       0.914301         286.573         65.2527 
       0.920448         285.013         64.2569 
       0.926574         281.723         63.2856 
       0.932687         281.942         62.3365 
       0.938823         278.757         61.4036 
       0.944975         278.073         60.4878 
       0.951105          275.72          59.594 
       0.957225         273.867         58.7199 
       0.963368         270.372         57.8605 
       0.969511         269.427         57.0183 
       0.975621         267.243         56.1975 
       0.981748         266.597         55.3909 
       0.987916         264.761         54.5951 
        0.99406         260.977         53.8179 
        1.00019         260.495         53.0576 
        1.00632         259.048         52.3127 
        1.01246         256.826          51.581 
        1.01859         257.306         50.8646 
        1.02471         252.965         50.1627 
        1.03085          251.64         49.4717 
        1.03698         250.679         48.7952 
        1.04314         248.114         48.1286 
        1.04929         246.451         47.4761 
        1.05541         247.012         46.8383 
        1.06154         242.964         46.2107 
        1.06769         242.588         45.5938 
        1.07382         240.752         44.9902 
        1.07993         239.167         44.3989 
        1.08607         238.519         43.8158 
        1.09222         236.396         43.2427 
        1.09836         234.731         42.6806 
        1.10449         232.453         42.1291 
        1.11063         230.575         41.5868 
        1.11677         230.241         41.0543 
         1.1229          228.39         40.5321 
        1.12903          227.24         40.0186 
        1.13518         225.591         39.5136 
        1.14131         223.848         39.0176 
        1.14745         223.643         38.5304 
        1.15359         221.623         38.0515 
        1.15973         219.979         37.5806 
        1.16584         218.485         37.1198 
        1.17197         218.531          36.666 
        1.17811         215.755         36.2185 
        1.18424         214.656         35.7798 
        1.19038         214.077         35.3472 
        1.19652         212.227         34.9219 
        1.20267         211.704         34.5036 
        1.20881         209.867         34.0922 
        1.21495         208.598         33.6883 
        1.22108         207.331          33.291 
         1.2272         205.926          32.901 
        1.23334         205.115         32.5164 
        1.23949         203.433          32.137 
        1.24562         202.602         31.7648 
        1.25174         201.263         31.3991 
        1.25789         199.841         31.0379 
        1.26402         198.081         30.6832 
        1.27014         196.953         30.3348 
        1.27628         196.094         29.9909 
        1.28244          195.98         29.6516 
        1.28858         193.697          29.318 
        1.29471         192.383         28.9903 
        1.30084         191.617          28.668 
        1.30697         190.118         28.3501 
        1.31312         188.639         28.0365 
        1.31925         187.973         27.7288 
        1.32537         187.302         27.4259 
        1.33151         185.427         27.1265 
        1.33765         184.296         26.8318 
        1.34378         183.684          26.542 
        1.34992         182.703         26.2563 
        1.35606         182.633         25.9742 
         1.3622         180.648         25.6968 
        1.36833         178.991         25.4241 
        1.37445         178.429         25.1555 
        1.38059         176.916           24.89 
        1.38675         176.366         24.6277 
        1.39288          175.34         24.3702 
        1.39901         174.925         24.1166 
        1.40515          173.02         23.8659 
         1.4113         172.298          23.619 
        1.41742          171.02         23.3765 
        1.42355          170.21         23.1369 
         1.4297         168.913            22.9 
        1.43585         168.221         22.6665 
        1.44198         167.318         22.4372 
        1.44809         166.533         22.2115 
        1.45423         165.619          21.988 
        1.46036         164.423          21.768 
        1.46649         163.329          21.551 
        1.47263         162.354         21.3368 
        1.47877         161.373         21.1255 
        1.48491         159.917         20.9168 
        1.49104         159.803         20.7114 
        1.49718         158.229         20.5086 
        1.50333         157.601         20.3082 
        1.50947         156.786         20.1108 
         1.5156         155.727         19.9164 
        1.52172         155.048         19.7246 
        1.52787         153.617         19.5349 
          1.534         153.276         19.3479 
        1.54013         152.257         19.1636 
        1.54627         151.358         18.9814 
        1.55241          150.34         18.8015 
        1.55855         149.493         18.6241 
        1.56467         148.461         18.4496 
         1.5708         147.703         18.2768 
        1.57695         147.134          18.106 
        1.58308         146.331         17.9377 
        1.58922         145.533         17.7715 
        1.59535         144.372         17.6074 
         1.6015         143.949         17.4452 
        1.60764         143.039         17.2851 
        1.61376         142.105         17.1275 
        1.61989         141.349         16.9717 
        1.62604         140.292         16.8175 
        1.63218         139.929         16.6653 
        1.63831         138.857         16.5154 
        1.64444         138.244         16.3672 
        1.65059         137.416         16.2205 
        1.65673         136.347         16.0758 
        1.66285         135.943         15.9332 
        1.66898         134.892         15.7923 
        1.67512         134.697         15.6529 
        1.68127         133.433          15.515 
         1.6874         132.514         15.3791 
        1.69353         132.172         15.2449 
        1.69967         131.278          15.112 
        1.70581         130.547         14.9807 
        1.71193          129.78         14.8515 
        1.71806         129.207         14.7235 
        1.72421         128.416         14.5968 
        1.73035         128.175         14.4717 
        1.73649         127.203         14.3481 
        1.74262         126.275         14.2261 
        1.74876          125.78         14.1054 
        1.75489           124.9         13.9864 
        1.76101         124.041         13.8687 
        1.76715         123.648         13.7523 
        1.77329         123.199          13.637 
        1.77943          122.21         13.5231 
        1.78557         121.767         13.4105 
        1.79171         120.901         13.2993 
        1.79785         120.215         13.1893 
        1.80399         119.482         13.0806 
        1.81012         118.952         12.9732 
        1.81625         118.386         12.8671 
        1.82239         117.869          12.762 
        1.82853         117.073         12.6581 
        1.83466         116.321         12.5555 
        1.84078         115.874         12.4542 
        1.84692         114.849         12.3538 
        1.85306          114.69         12.2544 
         1.8592         113.853         12.1562 
        1.86533         113.008         12.0592 
        1.87147          112.47         11.9631 
        1.87761           111.8          11.868 
        1.88375         111.078         11.7741 
        1.88988         110.619         11.6813 
        1.89601         109.926         11.5894 
        1.90215         109.378         11.4985 
        1.90829          108.87         11.4085 
        1.91442         108.285         11.3196 
        1.92056         107.536         11.2316 
         1.9267         107.241         11.1445 
        1.93284         106.587         11.0583 
        1.93897         105.869         10.9731 
        1.94509          105.47          10.889 
        1.95123          104.84         10.8056 
        1.95737          104.34          10.723 
        1.96349         103.756         10.6415 
        1.96964         102.825         10.5606 
        1.97578         102.321         10.4805 
        1.98192         102.118         10.4014 
        1.98805          101.33         10.3231 
        1.99419         101.008         10.2456 
        2.00033         100.239         10.1689 
        2.00647         99.9285          10.093 
         2.0126         99.1435         10.0179 
        2.01874         98.5824         9.94356 
        2.02488         98.2402         9.86987 
        2.03101         97.4963         9.79707 
        2.03714         96.9459         9.72507 
        2.04328         96.5533         9.65371 
        2.04941         96.0445         9.58313 
        2.05554         95.4102          9.5133 
        2.06167         95.1094         9.44407 
        2.06781         94.3816         9.37552 
        2.07396         94.0128         9.30756 
        2.08009         93.5743         9.24038 
        2.08622         92.9298         9.17395 
        2.09237         92.4497         9.10804 
        2.09851          92.039         9.04276 
        2.10464         91.5624         8.97823 
        2.11077         91.0816         8.91441 
        2.11691         90.7058         8.85107 
        2.12305         89.9788         8.78834 
        2.12918         89.4561         8.72637 
        2.13531         89.1505           8.665 
        2.14145         88.4164         8.60407 
         2.1476         87.9697         8.54365 
        2.15372         87.6848         8.48412 
        2.15985         87.2565          8.4251 
        2.16599         86.6241         8.36647 
        2.17213         86.2618         8.30847 
        2.17827          85.821         8.25102 
         2.1844         85.2202         8.19417 
        2.19054         84.9848         8.13784 
        2.19666         84.5282         8.08211 
         2.2028         84.0239         8.02686 
        2.20893         83.6167          7.9721 
        2.21508         83.1073         7.91778 
        2.22122         82.6865         7.86395 
        2.22736         82.2899         7.81074 
        2.23349         81.9043         7.75803 
        2.23962         81.4604         7.70577 
        2.24577         81.0921         7.65396 
         2.2519         80.7373         7.60269 
        2.25802         80.1256         7.55197 
        2.26417         79.7666         7.50158 
        2.27031         79.3684         7.45159 
        2.27644          78.847         7.40221 
        2.28257         78.4101         7.35328 
        2.28872         78.1882          7.3047 
        2.29486         77.5981         7.25656 
        2.30099         77.1233         7.20896 
        2.30712         76.9042         7.16177 
        2.31326           76.45         7.11492 
         2.3194         76.0183         7.06851 
        2.32553         75.7359          7.0226 
        2.33166          75.319         6.97711 
         2.3378         74.7745         6.93196 
        2.34394         74.4475          6.8872 
        2.35007         74.1019          6.8429 
        2.35619         73.7796         6.79904 
        2.36233         73.3009         6.75546 
        2.36848         72.9239         6.71217 
        2.37462         72.4761         6.66936 
        2.38075         72.2352         6.62695 
        2.38689         71.7895         6.58488 
        2.39303         71.3405         6.54318 
        2.39916         71.0664         6.50189 
        2.40529         70.8364         6.46096 
        2.41143         70.2585         6.42034 
        2.41757         70.0428         6.38006 
         2.4237          69.733          6.3402 
        2.42983         69.2526         6.30068 
        2.43598         68.8885          6.2614 
        2.44211         68.6975         6.22251 
        2.44823         68.2713         6.18405 
        2.45437         67.7681          6.1458 
        2.46052         67.5008         6.10784 
        2.46665         67.2723         6.07027 
        2.47279         66.8197         6.03303 
        2.47892         66.5413         5.99608 
        2.48507         66.0941          5.9594 
         2.4912         65.8108          5.9231 
