# k  (h/Mpc)    Pcb(k)  (Mpc/h)^3    Pcb_linear(k)  (Mpc/h)^3
     0.00783031         13494.5         13547.3 
       0.013688         16816.1         17255.2 
       0.019231         17868.5         18157.4 
      0.0249154           17528         17554.6 
      0.0312784           15749         15992.2 
      0.0375637           13879         14222.1 
      0.0433917         12562.1         12735.6 
      0.0492413         11256.7         11525.3 
      0.0555754           10343         10527.3 
      0.0619321         9281.95         9758.53 
       0.067871         8819.23         9142.19 
      0.0738098         8302.54         8539.31 
      0.0800417         7659.85         7874.19 
      0.0862327            6954          7181.6 
      0.0921407         6353.56         6525.13 
      0.0982031         5834.39         5901.59 
       0.104506         5230.01         5346.32 
       0.110769         4838.15         4905.74 
       0.116806         4611.67         4579.23 
       0.122832         4321.63         4326.13 
       0.129052         4097.02         4108.98 
       0.135211         3978.89         3907.04 
       0.141259         3711.59         3700.64 
       0.147318         3457.42          3478.4 
       0.153489         3276.09          3241.2 
       0.159709         3149.06         3004.59 
       0.165845         2876.75         2788.58 
       0.171974         2795.73         2601.18 
       0.178125            2700          2445.9 
       0.184229         2488.73         2321.81 
        0.19034         2453.15         2220.08 
       0.196428         2386.53          2131.5 
       0.202534         2252.65         2046.38 
       0.208729         2210.14         1957.39 
       0.214876         2120.42         1864.15 
       0.220989         2019.05            1768 
       0.227147         1966.32         1671.75 
        0.23329         1890.85         1580.97 
       0.239377         1877.97         1499.82 
       0.245482         1791.45         1428.95 
       0.251667         1725.98         1367.57 
       0.257832         1700.35         1314.73 
       0.263955         1627.79         1267.57 
       0.270079            1590          1222.8 
        0.27624         1525.15         1177.98 
       0.282372         1509.51         1132.61 
        0.28843         1484.28         1087.13 
       0.294538         1419.13         1041.64 
       0.300721         1393.47         997.319 
        0.30691         1361.02         955.917 
       0.313033          1311.8         918.611 
       0.319153         1298.45         885.035 
       0.325316         1283.13         854.514 
        0.33145         1257.44         826.579 
       0.337538         1218.14         800.368 
       0.343633         1191.24         774.893 
       0.349808         1170.79         749.393 
       0.355968         1147.87         724.171 
       0.362074         1116.01         699.543 
       0.368217         1112.88         675.517 
       0.374374         1096.23         652.531 
       0.380519         1059.83         630.965 
       0.386598         1055.63         611.075 
       0.392688         1030.12         592.503 
        0.39888         1009.41         574.812 
       0.405048          991.75         558.094 
       0.411186         987.841         542.091 
       0.417313         985.822         526.571 
       0.423458         955.391         511.344 
       0.429607         930.143         496.463 
       0.435692         923.731         482.162 
       0.441815         906.426         468.268 
       0.447964         897.506         454.913 
       0.454126         885.438         442.183 
       0.460267         875.117         430.126 
       0.466387         861.987         418.689 
        0.47254         846.653         407.707 
       0.478662         837.183         397.198 
       0.484765         829.502          387.06 
       0.490885         819.811         377.191 
       0.497035         805.997         367.554 
       0.503198          805.29         358.172 
       0.509342         790.563         349.107 
       0.515458         775.321         340.397 
       0.521598         773.877         331.979 
       0.527764         756.408          323.85 
       0.533884         749.724         316.088 
           0.54         744.076         308.623 
       0.546137         734.647         301.397 
       0.552299         730.053         294.379 
       0.558452         722.483         287.582 
       0.564573         716.578         281.014 
       0.570708          710.17         274.622 
       0.576825         695.891         268.438 
       0.582926         694.485         262.456 
       0.589034         685.897         256.649 
       0.595184         678.621         250.986 
       0.601379         668.463         245.469 
       0.607522         659.703         240.176 
       0.613639         659.021          235.07 
       0.619772         654.162         230.104 
       0.625918          644.34         225.271 
       0.632068         640.634          220.57 
       0.638161         632.677         216.042 
         0.6443         626.815         211.607 
       0.650464         622.257         207.279 
       0.656582         617.626         203.103 
       0.662703         610.059         199.042 
       0.668861         603.993          195.07 
       0.675024         600.567         191.205 
       0.681124         590.619         187.488 
       0.687237         590.644         183.865 
       0.693381         581.115         180.323 
       0.699536         580.934         176.869 
       0.705665         574.068         173.521 
       0.711789         572.586         170.262 
       0.717957         564.777         167.064 
        0.72409         560.137         163.964 
       0.730186         559.515         160.963 
       0.736317         551.882          158.02 
       0.742472         545.549         155.141 
       0.748622         543.684         152.338 
        0.75476         537.815         149.612 
       0.760888         535.097         146.957 
       0.767043         532.653         144.357 
       0.773185         528.863         141.826 
       0.779291         522.549         139.371 
       0.785407         519.138          136.97 
       0.791564          515.98          134.61 
       0.797719           508.7         132.308 
       0.803834         510.163         130.074 
       0.809972         502.844         127.884 
       0.816124         499.119          125.74 
       0.822261         496.184         123.652 
       0.828378         493.859         121.617 
       0.834502          486.29         119.627 
       0.840667         486.061         117.669 
       0.846816         480.588         115.761 
       0.852925         480.158         113.907 
       0.859047         475.621         112.091 
       0.865192          473.02         110.308 
       0.871341         467.116         108.563 
       0.877463         466.025         106.864 
       0.883569         461.356         105.206 
       0.889708         456.938         103.574 
       0.895864         453.018         101.973 
       0.902008         452.148         100.409 
       0.908149         448.209         98.8797 
       0.914301         446.641         97.3796 
       0.920448         441.632          95.912 
       0.926574         439.652         94.4801 
       0.932687         438.184         93.0805 
       0.938823         432.764         91.7044 
       0.944975         431.097         90.3531 
       0.951105         428.097          89.034 
       0.957225         422.232         87.7437 
       0.963368         423.368         86.4746 
       0.969511          416.61         85.2308 
       0.975621         416.096         84.0183 
       0.981748         413.564         82.8264 
       0.987916         411.159         81.6502 
        0.99406         407.385         80.5014 
        1.00019         403.366         79.3771 
        1.00632         402.901         78.2754 
        1.01246         399.676         77.1931 
        1.01859         395.821         76.1331 
        1.02471         393.936         75.0944 
        1.03085         392.173         74.0716 
        1.03698          389.99         73.0702 
        1.04314         387.639          72.083 
        1.04929         385.568         71.1165 
        1.05541          380.39         70.1717 
        1.06154         379.697         69.2418 
        1.06769         376.047         68.3274 
        1.07382         373.964         67.4326 
        1.07993         372.565         66.5559 
        1.08607         370.186         65.6912 
        1.09222         367.054         64.8411 
        1.09836         365.423         64.0071 
        1.10449         362.674         63.1887 
        1.11063         360.644         62.3838 
        1.11677         356.712         61.5933 
         1.1229         356.233         60.8179 
        1.12903         353.163         60.0551 
        1.13518         351.105         59.3049 
        1.14131         349.846         58.5679 
        1.14745         345.682         57.8438 
        1.15359         343.409         57.1319 
        1.15973         342.164         56.4318 
        1.16584         340.431         55.7465 
        1.17197         337.937         55.0717 
        1.17811         334.524          54.406 
        1.18424         333.481         53.7533 
        1.19038         331.562         53.1094 
        1.19652         328.343         52.4764 
        1.20267         327.547         51.8537 
        1.20881         325.734         51.2413 
        1.21495          322.99         50.6398 
        1.22108         321.655          50.048 
         1.2272         317.174         49.4672 
        1.23334         316.536         48.8942 
        1.23949         314.739          48.329 
        1.24562         313.835         47.7743 
        1.25174         311.003         47.2292 
        1.25789         308.643          46.691 
        1.26402         307.737         46.1622 
        1.27014         306.299         45.6428 
        1.27628         303.397         45.1299 
        1.28244         301.572          44.624 
        1.28858         300.178         44.1264 
        1.29471         298.565         43.6376 
        1.30084         297.366         43.1567 
        1.30697         294.138         42.6823 
        1.31312         292.329         42.2144 
        1.31925         291.168         41.7549 
        1.32537         289.788         41.3028 
        1.33151         287.209         40.8557 
        1.33765         285.206         40.4156 
        1.34378         283.664         39.9828 
        1.34992         281.241         39.5561 
        1.35606         280.166         39.1347 
         1.3622         278.582         38.7202 
        1.36833         277.393         38.3127 
        1.37445         276.149         37.9112 
        1.38059         273.022         37.5143 
        1.38675         271.728         37.1222 
        1.39288         270.915         36.7372 
        1.39901         268.328         36.3578 
        1.40515         267.204          35.983 
         1.4113         265.216         35.6136 
        1.41742          262.89         35.2508 
        1.42355         263.043         34.8923 
         1.4297         260.773         34.5378 
        1.43585         258.522         34.1884 
        1.44198         257.372         33.8451 
        1.44809         256.215         33.5072 
        1.45423         254.581         33.1727 
        1.46036         253.247         32.8433 
        1.46649          251.84         32.5184 
        1.47263         249.727         32.1975 
        1.47877         248.468         31.8812 
        1.48491          246.55         31.5686 
        1.49104         244.808         31.2608 
        1.49718         243.998          30.957 
        1.50333         241.828         30.6567 
        1.50947         241.011          30.361 
         1.5156         239.407         30.0696 
        1.52172         237.902         29.7821 
        1.52787         236.297         29.4978 
          1.534         235.993         29.2175 
        1.54013         233.892         28.9412 
        1.54627         232.708         28.6679 
        1.55241         231.356         28.3981 
        1.55855         230.122         28.1322 
        1.56467         228.655         27.8705 
         1.5708         227.221         27.6113 
        1.57695         226.085          27.355 
        1.58308         224.828         27.1026 
        1.58922         223.157         26.8532 
        1.59535         221.536          26.607 
         1.6015          220.78         26.3636 
        1.60764         219.175         26.1233 
        1.61376         217.468         25.8867 
        1.61989         216.161         25.6528 
        1.62604         215.033         25.4213 
        1.63218         213.768         25.1928 
        1.63831         213.259         24.9676 
        1.64444         211.231         24.7451 
        1.65059         210.455         24.5248 
        1.65673         208.903         24.3074 
        1.66285         207.844         24.0932 
        1.66898         206.678         23.8816 
        1.67512         205.387          23.672 
        1.68127         204.407         23.4648 
         1.6874         202.951         23.2606 
        1.69353         202.099         23.0589 
        1.69967         200.561         22.8591 
        1.70581         199.768         22.6618 
        1.71193         198.329         22.4676 
        1.71806          196.98         22.2752 
        1.72421         196.096         22.0847 
        1.73035         194.645         21.8966 
        1.73649         193.315         21.7108 
        1.74262          192.62         21.5273 
        1.74876         191.619         21.3457 
        1.75489          190.74         21.1667 
        1.76101          189.48         20.9897 
        1.76715         188.206         20.8146 
        1.77329         186.682         20.6412 
        1.77943         185.775         20.4697 
        1.78557         185.013         20.3004 
        1.79171         184.282          20.133 
        1.79785          182.87         19.9675 
        1.80399         181.742         19.8039 
        1.81012         180.936         19.6423 
        1.81625         179.414         19.4826 
        1.82239         178.657         19.3244 
        1.82853         177.918         19.1681 
        1.83466         176.249         19.0136 
        1.84078         175.745          18.861 
        1.84692         174.764         18.7098 
        1.85306         173.449         18.5601 
         1.8592         172.876         18.4123 
        1.86533          171.15         18.2662 
        1.87147         170.438         18.1214 
        1.87761         169.671         17.9782 
        1.88375         168.206         17.8367 
        1.88988         167.709         17.6969 
        1.89601         167.277         17.5585 
        1.90215         166.088         17.4214 
        1.90829          164.64         17.2859 
        1.91442         164.013         17.1518 
        1.92056         162.866         17.0193 
         1.9267         162.225          16.888 
        1.93284         161.002         16.7581 
        1.93897         160.164         16.6297 
        1.94509         159.285          16.503 
        1.95123         158.435         16.3772 
        1.95737         157.855         16.2527 
        1.96349         156.668         16.1298 
        1.96964         155.786         16.0078 
        1.97578         154.841         15.8871 
        1.98192           154.1         15.7678 
        1.98805         153.194         15.6497 
        1.99419          151.99         15.5328 
        2.00033         151.517         15.4171 
        2.00647         150.536         15.3026 
         2.0126         149.655         15.1894 
        2.01874         148.845         15.0772 
        2.02488         148.128          14.966 
        2.03101         147.648         14.8562 
        2.03714         146.552         14.7475 
        2.04328         145.574         14.6399 
        2.04941         145.243         14.5334 
        2.05554         144.334          14.428 
        2.06167         143.332         14.3235 
        2.06781         142.519         14.2201 
        2.07396         141.721         14.1175 
        2.08009         141.122         14.0161 
        2.08622         140.108         13.9158 
        2.09237         139.157         13.8163 
        2.09851         138.728         13.7178 
        2.10464         137.941         13.6204 
        2.11077         137.174          13.524 
        2.11691         136.562         13.4284 
        2.12305         135.724         13.3337 
        2.12918         134.895         13.2401 
        2.13531         133.927         13.1474 
        2.14145         133.477         13.0554 
         2.1476         132.633         12.9642 
        2.15372         131.897         12.8743 
        2.15985         131.046         12.7851 
        2.16599         130.474         12.6965 
        2.17213         129.739         12.6089 
        2.17827         129.065         12.5221 
         2.1844         128.378         12.4362 
        2.19054         127.518         12.3511 
        2.19666         126.767         12.2669 
         2.2028         126.303         12.1834 
        2.20893         125.729         12.1007 
        2.21508         124.568         12.0186 
        2.22122         124.041         11.9373 
        2.22736         123.682         11.8568 
        2.23349         123.062         11.7772 
        2.23962         122.243         11.6982 
        2.24577         121.605         11.6199 
         2.2519         120.696         11.5424 
        2.25802         120.359         11.4657 
        2.26417         119.477         11.3896 
        2.27031         118.862          11.314 
        2.27644         118.372         11.2393 
        2.28257         117.837         11.1654 
        2.28872         117.055         11.0919 
        2.29486         116.481         11.0191 
        2.30099         115.689         10.9471 
        2.30712          115.27         10.8758 
        2.31326         114.539         10.8049 
         2.3194          114.02         10.7347 
        2.32553         113.295         10.6653 
        2.33166          113.11         10.5965 
         2.3378         112.188         10.5282 
        2.34394         111.365         10.4605 
        2.35007         110.905         10.3935 
        2.35619         110.261         10.3272 
        2.36233         109.931         10.2612 
        2.36848         109.075         10.1957 
        2.37462         108.841          10.131 
        2.38075         108.185         10.0668 
        2.38689         107.538         10.0032 
        2.39303         106.987         9.94006 
        2.39916         106.507         9.87758 
        2.40529         106.002         9.81564 
        2.41143          105.18         9.75419 
        2.41757         104.481         9.69323 
         2.4237         104.162          9.6329 
        2.42983         103.487          9.5731 
        2.43598         103.084         9.51364 
        2.44211         102.623         9.45479 
        2.44823         101.959         9.39656 
        2.45437         101.574         9.33867 
        2.46052         100.787         9.28121 
        2.46665         100.399         9.22434 
        2.47279         99.8957         9.16796 
        2.47892         99.4271         9.11202 
        2.48507         99.0224         9.05649 
         2.4912         98.2777         9.00153 
