#  k  (h/Mpc)          P(k)  (Mpc/h)^3     P_linear(k) (Mpc/h)^3
     0.00783031         1907.52         1928.18 
       0.013688         2219.99         2220.66 
       0.019231         2124.54          2122.7 
      0.0249154         1851.04         1861.39 
      0.0312784         1532.39         1532.17 
      0.0375637         1262.09         1256.97 
      0.0433917          1070.8         1071.68 
      0.0492413         948.696         946.675 
      0.0555754         852.981         857.651 
      0.0619321          794.72         790.076 
       0.067871         725.132         727.995 
      0.0738098         656.263          658.78 
      0.0800417         576.442         580.036 
      0.0862327         503.411         503.521 
      0.0921407         441.743         440.022 
      0.0982031         389.589         389.246 
       0.104506         356.488         352.287 
       0.110769         331.374         328.115 
       0.116806         312.525         311.557 
       0.122832         298.838         296.645 
       0.129052         279.305         279.273 
       0.135211         259.188         258.812 
       0.141259         238.853         236.594 
       0.147318         217.987         214.486 
       0.153489         197.183         194.437 
       0.159709         181.519         178.208 
       0.165845          171.02         166.319 
       0.171974         160.717         157.732 
       0.178125         154.343         151.056 
       0.184229          148.39         144.959 
        0.19034         139.993         138.368 
       0.196428         133.929         130.924 
       0.202534         127.081         122.787 
       0.208729         118.172          114.45 
       0.214876         110.032         106.763 
       0.220989         104.424         100.161 
       0.227147         98.1208         94.7187 
        0.23329         93.7192          90.353 
       0.239377         90.5142         86.7408 
       0.245482         86.0398         83.4454 
       0.251667         83.7455         80.1233 
       0.257832         80.2314         76.6573 
       0.263955         76.6746         73.0646 
       0.270079         73.0869         69.4478 
        0.27624         70.3346         65.9567 
       0.282372         67.2146         62.7774 
        0.28843         64.0501         59.9958 
       0.294538         61.4483         57.5457 
       0.300721         59.7934         55.3558 
        0.30691         57.1757         53.3493 
       0.313033         55.3173         51.4505 
       0.319153         52.7469         49.5732 
       0.325316         51.6873         47.6833 
        0.33145         49.5696         45.8188 
       0.337538         47.9858         44.0227 
       0.343633         46.0737         42.3192 
       0.349808         44.6265         40.7162 
       0.355968         43.2136         39.2492 
       0.362074         41.7501         37.9108 
       0.368217         40.4601         36.6577 
       0.374374         39.1449         35.4663 
       0.380519         38.1149         34.3186 
       0.386598         37.0351         33.2126 
       0.392688         36.1297         32.1299 
        0.39888         34.9481         31.0623 
       0.405048         33.9883          30.041 
       0.411186         33.0769         29.0736 
       0.417313         31.9739         28.1616 
       0.423458         31.1072         27.2988 
       0.429607         30.2304         26.4815 
       0.435692         29.2828         25.7115 
       0.441815         28.6804          24.968 
       0.447964          28.134         24.2466 
       0.454126         27.0353         23.5468 
       0.460267           26.52         22.8724 
       0.466387         25.6842         22.2234 
        0.47254         25.2185         21.5957 
       0.478662         24.7401         20.9974 
       0.484765         23.9449         20.4268 
       0.490885         23.3806         19.8787 
       0.497035         23.0693         19.3503 
       0.503198         22.4146         18.8415 
       0.509342          21.836         18.3524 
       0.515458         21.3414         17.8817 
       0.521598         20.9325         17.4244 
       0.527764         20.4335         16.9804 
       0.533884         20.0839         16.5548 
           0.54         19.6019         16.1444 
       0.546137         19.2549          15.747 
       0.552299         18.9048         15.3621 
       0.558452         18.3183         14.9916 
       0.564573         18.0382         14.6359 
       0.570708         17.6969         14.2911 
       0.576825         17.2476         13.9584 
       0.582926         16.9107         13.6369 
       0.589034         16.4671         13.3249 
       0.595184         16.2317         13.0207 
       0.601379          15.878         12.7239 
       0.607522         15.6127         12.4389 
       0.613639         15.4135         12.1639 
       0.619772         14.9937         11.8968 
       0.625918         14.8872         11.6373 
       0.632068         14.6376         11.3856 
       0.638161         14.2871         11.1437 
         0.6443         13.9948         10.9072 
       0.650464         13.7197         10.6767 
       0.656582         13.6165         10.4546 
       0.662703         13.3522         10.2386 
       0.668861         13.0931         10.0276 
       0.675024          12.839         9.82235 
       0.681124          12.615           9.625 
       0.687237         12.4105         9.43276 
       0.693381         12.2605         9.24496 
       0.699536          11.925         9.06202 
       0.705665         11.8301         8.88488 
       0.711789         11.5974         8.71269 
       0.717957           11.41         8.54391 
        0.72409         11.2239         8.38057 
       0.730186         11.0665         8.22251 
       0.736317         10.9383         8.06769 
       0.742472          10.755         7.91632 
       0.748622         10.6017         7.76901 
        0.75476         10.3947          7.6258 
       0.760888          10.244         7.48645 
       0.767043         10.1136         7.35008 
       0.773185         9.91784         7.21742 
       0.779291         9.84498         7.08882 
       0.785407         9.69886          6.9632 
       0.791564         9.54057         6.83987 
       0.797719         9.34106         6.71961 
       0.803834         9.30238         6.60302 
       0.809972         9.20098          6.4888 
       0.816124         9.00164         6.37706 
       0.822261         8.86687         6.26827 
       0.828378         8.76152         6.16236 
       0.834502         8.68995         6.05883 
       0.840667         8.53291         5.95703 
       0.846816         8.38133         5.85786 
       0.852925         8.30362          5.7616 
       0.859047         8.19893         5.66731 
       0.865192         8.12306         5.57483 
       0.871341          8.0368         5.48437 
       0.877463         7.89979         5.39633 
       0.883569         7.77851         5.31047 
       0.889708         7.65134         5.22604 
       0.895864         7.57486         5.14325 
       0.902008         7.50571         5.06243 
       0.908149         7.42422         4.98341 
       0.914301         7.32911         4.90595 
       0.920448         7.21407         4.83022 
       0.926574         7.12596         4.75637 
       0.932687         7.04685         4.68422 
       0.938823         6.95531         4.61332 
       0.944975         6.86757         4.54374 
       0.951105         6.79518         4.47585 
       0.957225         6.75819         4.40947 
       0.963368         6.67038         4.34422 
       0.969511         6.58901          4.2803 
       0.975621         6.50829         4.21802 
       0.981748         6.43309         4.15683 
       0.987916         6.37882         4.09647 
        0.99406         6.27134         4.03755 
        1.00019         6.18359         3.97991 
        1.00632         6.16199         3.92346 
        1.01246          6.0874         3.86802 
        1.01859         5.99563         3.81376 
        1.02471          5.9506         3.76061 
        1.03085         5.88149         3.70829 
        1.03698         5.80063         3.65709 
        1.04314          5.7595         3.60664 
        1.04929         5.68786         3.55727 
        1.05541         5.61915         3.50903 
        1.06154         5.57411         3.46156 
        1.06769         5.54647         3.41491 
        1.07382         5.45284         3.36928 
        1.07993         5.39663         3.32459 
        1.08607         5.36338         3.28053 
        1.09222         5.30453         3.23722 
        1.09836         5.24413         3.19476 
        1.10449         5.19657          3.1531 
        1.11063         5.13649         3.11215 
        1.11677         5.10522         3.07194 
         1.1229         5.06061         3.03251 
        1.12903         4.99426         2.99374 
        1.13518         4.93974         2.95562 
        1.14131         4.88966         2.91819 
        1.14745         4.83451         2.88143 
        1.15359         4.80541         2.84529 
        1.15973         4.75083         2.80977 
        1.16584         4.69496         2.77501 
        1.17197         4.65579          2.7408 
        1.17811         4.63349         2.70706 
        1.18424         4.58428         2.67399 
        1.19038         4.55993         2.64137 
        1.19652         4.50444         2.60932 
        1.20267         4.45781          2.5778 
        1.20881         4.43598         2.54681 
        1.21495         4.39102         2.51638 
        1.22108         4.34339         2.48645 
         1.2272         4.31412         2.45709 
        1.23334         4.26116         2.42813 
        1.23949         4.22111         2.39958 
        1.24562         4.19903         2.37156 
        1.25174           4.155         2.34404 
        1.25789         4.12586         2.31687 
        1.26402         4.09443         2.29018 
        1.27014         4.05687         2.26398 
        1.27628         4.01879         2.23811 
        1.28244         3.97201          2.2126 
        1.28858         3.96237         2.18753 
        1.29471          3.9116          2.1629 
        1.30084         3.87438         2.13867 
        1.30697         3.87286         2.11478 
        1.31312         3.80375         2.09122 
        1.31925         3.77955          2.0681 
        1.32537          3.7492         2.04535 
        1.33151         3.73552         2.02286 
        1.33765         3.68678         2.00073 
        1.34378         3.66565         1.97897 
        1.34992         3.64256         1.95752 
        1.35606         3.59543         1.93634 
         1.3622         3.58176         1.91551 
        1.36833         3.54843         1.89505 
        1.37445         3.52121         1.87489 
        1.38059         3.51004         1.85496 
        1.38675         3.48103         1.83527 
        1.39288         3.45352         1.81595 
        1.39901         3.41112         1.79692 
        1.40515         3.39103         1.77812 
         1.4113          3.3686         1.75959 
        1.41742         3.34299          1.7414 
        1.42355         3.31359         1.72344 
         1.4297         3.29084         1.70567 
        1.43585         3.27435         1.68816 
        1.44198         3.25521         1.67097 
        1.44809         3.22243         1.65405 
        1.45423         3.19604          1.6373 
        1.46036         3.16749         1.62081 
        1.46649         3.15047         1.60455 
        1.47263         3.12297          1.5885 
        1.47877         3.09939         1.57267 
        1.48491         3.07949         1.55704 
        1.49104         3.06018         1.54165 
        1.49718         3.03893         1.52646 
        1.50333         3.02079         1.51145 
        1.50947         2.99372         1.49667 
         1.5156         2.97391         1.48212 
        1.52172         2.95498         1.46776 
        1.52787         2.93584         1.45356 
          1.534         2.90948         1.43956 
        1.54013           2.896         1.42577 
        1.54627         2.87041         1.41213 
        1.55241         2.84897         1.39867 
        1.55855         2.83616          1.3854 
        1.56467         2.81788         1.37235 
         1.5708         2.79696         1.35942 
        1.57695         2.77378         1.34664 
        1.58308         2.75145         1.33406 
        1.58922         2.74427         1.32163 
        1.59535         2.72543         1.30936 
         1.6015         2.70214         1.29723 
        1.60764         2.68615         1.28526 
        1.61376          2.6715         1.27347 
        1.61989         2.65189         1.26182 
        1.62604         2.63283          1.2503 
        1.63218         2.62661         1.23892 
        1.63831         2.60044         1.22771 
        1.64444         2.58659         1.21664 
        1.65059         2.56442         1.20568 
        1.65673         2.55742         1.19486 
        1.66285         2.53361         1.18421 
        1.66898         2.52088         1.17368 
        1.67512         2.50127         1.16326 
        1.68127           2.487         1.15296 
         1.6874         2.47966         1.14281 
        1.69353         2.45052         1.13279 
        1.69967         2.44163         1.12286 
        1.70581         2.43114         1.11306 
        1.71193         2.41139         1.10341 
        1.71806         2.40143         1.09385 
        1.72421         2.38496         1.08439 
        1.73035         2.37279         1.07505 
        1.73649         2.35659         1.06583 
        1.74262         2.34078         1.05672 
        1.74876         2.33246         1.04771 
        1.75489         2.31368         1.03882 
        1.76101         2.29649         1.03005 
        1.76715         2.29005         1.02136 
        1.77329           2.278         1.01276 
        1.77943         2.25457         1.00425 
        1.78557         2.24576        0.995858 
        1.79171          2.2369        0.987559 
        1.79785         2.22009        0.979353 
        1.80399          2.2082        0.971242 
        1.81012         2.19589        0.963234 
        1.81625         2.18517        0.955319 
        1.82239         2.17027        0.947482 
        1.82853         2.15372        0.939737 
        1.83466         2.14799        0.932086 
        1.84078         2.13675        0.924528 
        1.84692         2.12675        0.917042 
        1.85306         2.10875         0.90963 
         1.8592           2.095        0.902311 
        1.86533         2.08526        0.895078 
        1.87147         2.07765        0.887915 
        1.87761         2.06294        0.880828 
        1.88375         2.05165        0.873826 
        1.88988         2.04193        0.866909 
        1.89601         2.02835        0.860062 
        1.90215         2.01458        0.853284 
        1.90829         2.00297        0.846583 
        1.91442         1.99799        0.839953 
        1.92056         1.98356          0.8334 
         1.9267         1.97305        0.826911 
        1.93284         1.96725        0.820487 
        1.93897         1.95572        0.814143 
        1.94509         1.94315         0.80788 
        1.95123         1.93151        0.801668 
        1.95737         1.91905        0.795516 
        1.96349         1.91422        0.789445 
        1.96964         1.90628        0.783419 
        1.97578         1.88942        0.777454 
        1.98192         1.88303        0.771564 
        1.98805         1.87352        0.765733 
        1.99419         1.86526        0.759963 
        2.00033         1.85799         0.75425 
        2.00647          1.8446        0.748596 
         2.0126         1.83882        0.743011 
        2.01874         1.82267        0.737474 
        2.02488         1.81817        0.731989 
        2.03101         1.80354        0.726569 
        2.03714         1.79697         0.72121 
        2.04328         1.78839        0.715899 
        2.04941         1.77543        0.710646 
        2.05554          1.7702        0.705449 
        2.06167         1.76233        0.700297 
        2.06781         1.75495        0.695196 
        2.07396         1.74652        0.690139 
        2.08009         1.73686        0.685141 
        2.08622         1.72777        0.680198 
        2.09237         1.71698        0.675294 
        2.09851         1.71048        0.670438 
        2.10464         1.70618        0.665637 
        2.11077          1.6935        0.660889 
        2.11691         1.68594        0.656177 
        2.12305         1.67966        0.651511 
        2.12918          1.6727        0.646902 
        2.13531         1.66267        0.642336 
        2.14145         1.65521        0.637805 
         2.1476         1.64411        0.633311 
        2.15372         1.63723        0.628884 
        2.15985         1.63076        0.624495 
        2.16599         1.62335        0.620134 
        2.17213          1.6111        0.615821 
        2.17827          1.6079        0.611549 
         2.1844         1.60081        0.607322 
        2.19054         1.59413        0.603133 
        2.19666         1.58507         0.59899 
         2.2028         1.57714        0.594882 
        2.20893         1.57119        0.590811 
        2.21508         1.56328        0.586773 
        2.22122         1.55384        0.582772 
        2.22736         1.54834        0.578816 
        2.23349         1.54254        0.574899 
        2.23962         1.53277        0.571015 
        2.24577         1.52945        0.567164 
         2.2519         1.52145        0.563354 
        2.25802         1.51547        0.559584 
        2.26417         1.50942        0.555839 
        2.27031         1.50142        0.552125 
        2.27644         1.49433        0.548455 
        2.28257         1.48537         0.54482 
        2.28872         1.48227         0.54121 
        2.29486         1.47234        0.537633 
        2.30099         1.46619        0.534097 
        2.30712         1.45915         0.53059 
        2.31326         1.45466         0.52711 
         2.3194         1.44925        0.523662 
        2.32553         1.44378        0.520251 
        2.33166         1.43528        0.516872 
         2.3378         1.42913        0.513519 
        2.34394          1.4216        0.510194 
        2.35007         1.41647        0.506903 
        2.35619         1.41206        0.503646 
        2.36233         1.40377        0.500409 
        2.36848         1.39817        0.497194 
        2.37462         1.39371        0.494015 
        2.38075         1.38649        0.490866 
        2.38689         1.38267        0.487742 
        2.39303         1.37405        0.484645 
        2.39916         1.36978        0.481579 
        2.40529         1.36365         0.47854 
        2.41143         1.35661        0.475525 
        2.41757         1.35234        0.472534 
         2.4237         1.34845        0.469574 
        2.42983         1.33916        0.466641 
        2.43598         1.33695        0.463724 
        2.44211          1.3297        0.460837 
        2.44823         1.32454        0.457982 
        2.45437         1.31926        0.455142 
        2.46052         1.31545        0.452325 
        2.46665         1.30849        0.449536 
        2.47279         1.30214        0.446771 
        2.47892         1.29728        0.444028 
        2.48507         1.29368        0.441306 
         2.4912         1.28419        0.438612 
