# k  (h/Mpc)    P(k)  (Mpc/h)^3    P_linear(k)  (Mpc/h)^3
     0.00783031         9175.88         9253.28 
       0.013688         11176.7         11438.7 
       0.019231           11325         11471.1 
      0.0249154         10469.6           10452 
      0.0312784         8861.26         8919.88 
      0.0375637         7463.96         7558.35 
      0.0433917         6606.41         6624.43 
      0.0492413         5934.67         5993.15 
      0.0555754         5516.22         5535.87 
      0.0619321         5012.67         5161.07 
       0.067871         4706.23         4782.86 
      0.0738098         4302.96         4341.74 
      0.0800417         3827.31         3838.08 
      0.0862327         3345.06         3358.34 
      0.0921407         2979.81         2972.79 
      0.0982031         2717.27         2676.51 
       0.104506            2470         2469.59 
       0.110769         2339.78         2335.38 
       0.116806         2266.71         2234.65 
       0.122832         2132.97         2128.78 
       0.129052         2005.87         1994.74 
       0.135211         1890.76          1837.6 
       0.141259         1717.35          1674.8 
       0.147318         1558.94         1522.74 
       0.153489         1452.31         1394.48 
       0.159709         1384.53         1298.21 
       0.165845         1280.67         1231.74 
       0.171974         1261.74         1183.27 
       0.178125         1220.33         1140.29 
       0.184229         1137.89         1093.35 
        0.19034          1105.9         1037.55 
       0.196428         1057.56         974.472 
       0.202534         976.584         909.062 
       0.208729         947.867         847.061 
       0.214876         901.973         794.714 
       0.220989         845.989         753.406 
       0.227147         828.242         721.285 
        0.23329         799.651         695.342 
       0.239377          788.57         671.705 
       0.245482         749.425         646.923 
       0.251667         719.007         619.268 
       0.257832         707.521         589.508 
       0.263955         666.941         559.454 
       0.270079         641.644          530.97 
        0.27624          613.57         505.463 
       0.282372         600.142          483.88 
        0.28843         594.739         465.918 
       0.294538         565.258         450.161 
       0.300721          548.95         435.342 
        0.30691         539.383         420.541 
       0.313033         515.543         405.394 
       0.319153         506.743         389.763 
       0.325316         496.131          374.02 
        0.33145         483.772         358.968 
       0.337538         466.004         345.157 
       0.343633         452.084         332.722 
       0.349808         440.636         321.458 
       0.355968             432         311.279 
       0.362074         418.471         301.798 
       0.368217          414.81          292.53 
       0.374374         406.266         283.281 
       0.380519          389.94         274.043 
       0.386598         384.863         265.029 
       0.392688         375.523          256.28 
        0.39888         365.973         247.851 
       0.405048         358.964          240.04 
       0.411186         356.897         232.818 
       0.417313         351.044         226.097 
       0.423458         341.201         219.719 
       0.429607         332.252         213.561 
       0.435692          326.82         207.608 
       0.441815         321.105          201.74 
       0.447964         313.113         195.965 
       0.454126         309.008         190.348 
       0.460267         304.461         184.981 
       0.466387         298.428         179.893 
        0.47254         294.498         175.032 
       0.478662         286.904         170.437 
       0.484765         283.345         166.066 
       0.490885          279.93         161.848 
       0.497035         275.291         157.731 
       0.503198         273.403         153.714 
       0.509342         266.368         149.822 
       0.515458         262.549         146.065 
       0.521598         257.263         142.417 
       0.527764         254.216         138.885 
       0.533884         253.138         135.516 
           0.54         248.178         132.288 
       0.546137         242.575         129.172 
       0.552299         241.196          126.15 
       0.558452         237.074         123.225 
       0.564573         235.403         120.398 
       0.570708         230.651         117.647 
       0.576825         227.118         114.986 
       0.582926         224.954         112.414 
       0.589034         221.679         109.918 
       0.595184         220.067         107.485 
       0.601379         216.055         105.112 
       0.607522         211.752         102.836 
       0.613639         210.534         100.641 
       0.619772         208.844         98.5086 
       0.625918         206.439         96.4348 
       0.632068         202.371         94.4189 
       0.638161         200.832         92.4762 
         0.6443         199.211         90.5723 
       0.650464         195.571         88.7142 
       0.656582         194.215          86.922 
       0.662703         192.642         85.1802 
       0.668861         188.849         83.4787 
       0.675024         188.548         81.8247 
       0.681124          185.89          80.234 
       0.687237         183.916         78.6835 
       0.693381         181.784         77.1673 
       0.699536         180.057         75.6884 
       0.705665         178.093         74.2543 
       0.711789         175.951         72.8585 
       0.717957         174.167          71.489 
        0.72409         172.302         70.1626 
       0.730186         172.664         68.8781 
       0.736317         169.804         67.6194 
       0.742472         167.427         66.3882 
       0.748622         165.006         65.1894 
        0.75476          165.66         64.0233 
       0.760888         163.552         62.8881 
       0.767043         160.873         61.7763 
       0.773185         159.503          60.694 
       0.779291         157.548         59.6442 
       0.785407         156.665         58.6178 
       0.791564         155.356         57.6094 
       0.797719         153.015         56.6255 
       0.803834         153.409         55.6711 
       0.809972         151.901         54.7355 
       0.816124         149.496         53.8196 
       0.822261         148.429         52.9274 
       0.828378         148.085         52.0584 
       0.834502         145.941         51.2083 
       0.840667         145.477         50.3721 
       0.846816         143.591         49.5571 
       0.852925         142.448         48.7655 
       0.859047         141.186         47.9898 
       0.865192         140.491         47.2286 
       0.871341         138.852         46.4836 
       0.877463         137.676         45.7583 
       0.883569         137.633         45.0505 
       0.889708         136.297         44.3542 
       0.895864         134.985          43.671 
       0.902008         133.589         43.0038 
       0.908149           132.1         42.3511 
       0.914301         131.905          41.711 
       0.920448         131.466         41.0849 
       0.926574         129.158          40.474 
       0.932687         129.098          39.877 
       0.938823         128.039         39.2899 
       0.944975         126.866         38.7135 
       0.951105         125.759         38.1507 
       0.957225         125.365         37.6003 
       0.963368          124.07         37.0589 
       0.969511         123.074         36.5283 
       0.975621         121.831          36.011 
       0.981748         121.087         35.5026 
       0.987916         120.457         35.0008 
        0.99406         119.819         34.5107 
        1.00019         118.707         34.0311 
        1.00632         117.886          33.561 
        1.01246         117.133         33.0993 
        1.01859          116.42         32.6471 
        1.02471         115.585         32.2039 
        1.03085         114.529         31.7676 
        1.03698         113.717         31.3403 
        1.04314          113.17         30.9191 
        1.04929         112.704         30.5068 
        1.05541         111.818         30.1037 
        1.06154         110.995          29.707 
        1.06769         110.224         29.3169 
        1.07382         109.491         28.9352 
        1.07993         108.862         28.5612 
        1.08607         108.091         28.1924 
        1.09222         107.543         27.8297 
        1.09836         106.595         27.4739 
        1.10449         105.955         27.1249 
        1.11063         105.277         26.7815 
        1.11677         104.618         26.4443 
         1.1229         103.767         26.1136 
        1.12903         103.292         25.7882 
        1.13518         102.624         25.4682 
        1.14131         102.002         25.1539 
        1.14745         101.482          24.845 
        1.15359         100.328         24.5414 
        1.15973         100.067         24.2427 
        1.16584         99.4349         23.9504 
        1.17197         98.9186         23.6625 
        1.17811          98.033         23.3785 
        1.18424         97.4742         23.1001 
        1.19038         97.1569         22.8254 
        1.19652         96.4984         22.5553 
        1.20267         95.8309         22.2896 
        1.20881         95.1984         22.0283 
        1.21495         94.7196         21.7716 
        1.22108         94.2832         21.5191 
         1.2272         93.4138         21.2712 
        1.23334         93.2316         21.0266 
        1.23949           92.63         20.7854 
        1.24562         91.8312         20.5487 
        1.25174         91.3759          20.316 
        1.25789         90.9571         20.0863 
        1.26402         90.4553         19.8605 
        1.27014         89.8886         19.6388 
        1.27628         89.1489         19.4198 
        1.28244         89.0314         19.2038 
        1.28858         88.2131         18.9914 
        1.29471         87.7608         18.7827 
        1.30084         87.0854         18.5774 
        1.30697         86.9383         18.3748 
        1.31312         86.2951         18.1751 
        1.31925          85.671         17.9789 
        1.32537         85.3329         17.7858 
        1.33151         85.1319         17.5949 
        1.33765         84.3548          17.407 
        1.34378         83.9771         17.2222 
        1.34992         83.7134         17.0399 
        1.35606         83.0624         16.8599 
         1.3622         82.8838         16.6829 
        1.36833         82.0552         16.5089 
        1.37445         81.6588         16.3374 
        1.38059         81.3691         16.1679 
        1.38675         80.6022         16.0004 
        1.39288         80.3541         15.8359 
        1.39901          79.715         15.6739 
        1.40515         79.4657         15.5137 
         1.4113         79.0557         15.3559 
        1.41742         78.5185         15.2009 
        1.42355         78.2676         15.0478 
         1.4297         77.7445         14.8963 
        1.43585         77.2698          14.747 
        1.44198         76.8519         14.6003 
        1.44809         76.2932         14.4559 
        1.45423         76.1686         14.3129 
        1.46036         75.5783         14.1721 
        1.46649         75.1265         14.0332 
        1.47263         74.8217         13.8961 
        1.47877         74.4335         13.7608 
        1.48491         74.0025         13.6272 
        1.49104         73.4007         13.4956 
        1.49718         73.2481         13.3657 
        1.50333         72.8459         13.2373 
        1.50947         72.5852         13.1108 
         1.5156         72.2911         12.9862 
        1.52172          71.664         12.8633 
        1.52787         71.2422         12.7417 
          1.534         70.9147         12.6218 
        1.54013         70.7605         12.5036 
        1.54627         70.0939         12.3867 
        1.55241         69.8758         12.2713 
        1.55855         69.3958         12.1575 
        1.56467         68.8142         12.0455 
         1.5708         68.6948         11.9346 
        1.57695         68.3319          11.825 
        1.58308         67.9733          11.717 
        1.58922         67.7211         11.6102 
        1.59535          67.483         11.5049 
         1.6015         67.1787         11.4007 
        1.60764         66.7335         11.2979 
        1.61376          66.371         11.1966 
        1.61989         65.8105         11.0965 
        1.62604         65.6623         10.9974 
        1.63218         65.4103         10.8996 
        1.63831         65.0477         10.8032 
        1.64444         64.8249         10.7079 
        1.65059         64.3603         10.6136 
        1.65673         63.9797         10.5205 
        1.66285         63.6256         10.4288 
        1.66898         63.2355         10.3382 
        1.67512         62.9558         10.2485 
        1.68127         62.8005         10.1597 
         1.6874         62.3775         10.0723 
        1.69353         62.0091         9.98586 
        1.69967         61.8075         9.90028 
        1.70581         61.4544         9.81574 
        1.71193         61.1307         9.73252 
        1.71806         60.8196          9.6501 
        1.72421         60.6171         9.56847 
        1.73035         60.3202         9.48788 
        1.73649         59.9145         9.40824 
        1.74262         59.4824         9.32959 
        1.74876         59.3859         9.25179 
        1.75489         58.9979         9.17504 
        1.76101         58.7083         9.09919 
        1.76715         58.5199          9.0241 
        1.77329         58.0632         8.94977 
        1.77943         58.0009         8.87625 
        1.78557         57.6743         8.80367 
        1.79171         57.3367          8.7319 
        1.79785         57.0443         8.66091 
        1.80399         56.7686         8.59073 
        1.81012         56.5068         8.52143 
        1.81625         56.2055         8.45293 
        1.82239         55.9492         8.38508 
        1.82853         55.5852         8.31801 
        1.83466         55.4019         8.25175 
        1.84078         55.0855         8.18628 
        1.84692         54.9348         8.12142 
        1.85306         54.5912         8.05719 
         1.8592         54.3545         7.99376 
        1.86533         54.0668         7.93105 
        1.87147         53.7824         7.86895 
        1.87761         53.5248         7.80749 
        1.88375         53.2593         7.74676 
        1.88988         52.9763         7.68674 
        1.89601         52.7586         7.62733 
        1.90215         52.4039         7.56851 
        1.90829          52.253         7.51034 
        1.91442         51.9223         7.45278 
        1.92056         51.7901         7.39587 
         1.9267         51.4976         7.33951 
        1.93284         51.2922          7.2837 
        1.93897          50.988         7.22858 
        1.94509         50.6701         7.17415 
        1.95123         50.4851         7.12015 
        1.95737         50.2913         7.06666 
        1.96349         50.0511         7.01387 
        1.96964         49.7243         6.96147 
        1.97578         49.4916         6.90958 
        1.98192         49.2526         6.85833 
        1.98805         48.9694         6.80759 
        1.99419         48.8118         6.75737 
        2.00033         48.6232         6.70764 
        2.00647          48.354         6.65842 
         2.0126         48.0963         6.60978 
        2.01874          48.004         6.56155 
        2.02488         47.6586         6.51377 
        2.03101         47.5025         6.46656 
        2.03714         47.2443         6.41985 
        2.04328         47.0138         6.37356 
        2.04941         46.6525         6.32777 
        2.05554         46.6099         6.28246 
        2.06167         46.4406         6.23753 
        2.06781         46.0952         6.19304 
        2.07396         45.8361         6.14893 
        2.08009         45.6516         6.10532 
        2.08622         45.4925         6.06218 
        2.09237         45.2252         6.01938 
        2.09851         45.0097         5.97699 
        2.10464         44.8166         5.93507 
        2.11077         44.6423         5.89361 
        2.11691          44.384         5.85246 
        2.12305         44.1406          5.8117 
        2.12918         43.9696         5.77143 
        2.13531          43.724         5.73154 
        2.14145          43.549         5.69194 
         2.1476         43.4222         5.65267 
        2.15372         43.2484         5.61396 
        2.15985         42.9189         5.57558 
        2.16599         42.7266         5.53746 
        2.17213         42.5535         5.49973 
        2.17827         42.3972         5.46236 
         2.1844         42.0849         5.42538 
        2.19054         42.0313         5.38873 
        2.19666         41.7395         5.35247 
         2.2028         41.4993         5.31651 
        2.20893         41.3587         5.28087 
        2.21508         41.1337         5.24551 
        2.22122         40.9732         5.21047 
        2.22736          40.701         5.17583 
        2.23349         40.6172          5.1415 
        2.23962         40.4045         5.10748 
        2.24577         40.1826         5.07373 
         2.2519         39.9857         5.04033 
        2.25802          39.842         5.00729 
        2.26417         39.6365         4.97446 
        2.27031         39.4359         4.94189 
        2.27644         39.3801         4.90971 
        2.28257         38.9821         4.87782 
        2.28872         39.0177         4.84616 
        2.29486          38.782         4.81478 
        2.30099         38.5238         4.78375 
        2.30712         38.4187         4.75297 
        2.31326         38.1817         4.72242 
         2.3194         38.0056         4.69216 
        2.32553         37.8796         4.66221 
        2.33166         37.6597         4.63254 
         2.3378         37.4584         4.60308 
        2.34394         37.3149         4.57388 
        2.35007         37.1674         4.54497 
        2.35619         37.0298         4.51635 
        2.36233         36.7279          4.4879 
        2.36848         36.7047         4.45965 
        2.37462         36.4102          4.4317 
        2.38075         36.3476         4.40401 
        2.38689         36.2217         4.37654 
        2.39303         36.0082         4.34931 
        2.39916         35.7749         4.32234 
        2.40529         35.6853         4.29561 
        2.41143          35.499         4.26908 
        2.41757         35.4145         4.24276 
         2.4237         35.2216         4.21671 
        2.42983         34.9949         4.19089 
        2.43598           34.88         4.16522 
        2.44211          34.698          4.1398 
        2.44823         34.5014         4.11466 
        2.45437         34.4033         4.08965 
        2.46052         34.1924         4.06483 
        2.46665         34.0875         4.04027 
        2.47279         33.8416         4.01591 
        2.47892         33.7838         3.99175 
        2.48507          33.673         3.96776 
         2.4912          33.414         3.94401 
