# k  (h/Mpc)    P(k)  (Mpc/h)^3    P_linear(k)  (Mpc/h)^3
     0.00783031         17094.7         17199.8 
       0.013688         19583.8         20125.6 
       0.019231         19196.9         19502.6 
      0.0249154         17395.4         17329.7 
      0.0312784         14366.1         14488.6 
      0.0375637         11897.2         12086.1 
      0.0433917         10421.1         10460.8 
      0.0492413         9249.98         9352.43 
      0.0555754         8498.68         8532.39 
      0.0619321         7595.87          7862.9 
       0.067871         7081.91          7217.7 
      0.0738098         6456.56         6500.85 
      0.0800417          5714.1         5710.05 
      0.0862327         4977.41         4971.63 
      0.0921407          4443.4         4382.29 
      0.0982031          4050.7         3926.83 
       0.104506          3654.1         3601.58 
       0.110769         3446.46         3382.41 
       0.116806         3316.97         3214.48 
       0.122832         3112.19         3043.54 
       0.129052         2903.77         2837.98 
       0.135211         2757.55         2606.08 
       0.141259         2500.82          2370.7 
       0.147318         2282.66         2152.37 
       0.153489         2128.95         1967.12 
       0.159709         2041.17         1825.21 
       0.165845         1880.94         1723.62 
       0.171974         1843.28         1646.68 
       0.178125         1783.38         1578.36 
       0.184229         1645.81         1506.99 
        0.19034         1608.28          1426.3 
       0.196428         1546.47         1338.12 
       0.202534         1435.69         1248.12 
       0.208729         1400.38         1162.85 
       0.214876         1328.27         1089.87 
       0.220989         1257.62         1030.72 
       0.227147            1224          983.04 
        0.23329          1177.1          943.39 
       0.239377         1168.69         907.412 
       0.245482         1109.73         871.054 
       0.251667         1067.26          832.15 
       0.257832         1046.72         791.619 
       0.263955         993.859         751.355 
       0.270079         960.872         713.148 
        0.27624         920.434         678.507 
       0.282372         905.919         648.425 
        0.28843         890.737         622.679 
       0.294538         847.758         599.654 
       0.300721         829.455         578.014 
        0.30691         809.553         556.892 
       0.313033         775.452         535.913 
       0.319153         765.296         514.854 
       0.325316         754.006         493.933 
        0.33145         735.147         473.981 
       0.337538         708.743         455.514 
       0.343633         691.103         438.572 
       0.349808         675.946          422.96 
       0.355968         662.879         408.619 
       0.362074         639.111         395.276 
       0.368217         636.443         382.358 
       0.374374         626.608         369.707 
       0.380519         602.081         357.322 
       0.386598         597.051         345.356 
       0.392688         581.875         333.811 
        0.39888         568.165         322.648 
       0.405048         555.939         312.172 
       0.411186          555.16         302.408 
       0.417313         549.103         293.226 
       0.423458         533.343         284.478 
       0.429607         517.661         276.089 
       0.435692         511.686         268.062 
       0.441815         501.987          260.21 
       0.447964         493.385         252.569 
       0.454126         487.605         245.179 
       0.460267          479.84         238.102 
       0.466387         470.136         231.358 
        0.47254         464.124         224.896 
       0.478662         455.507         218.759 
       0.484765         449.269         212.895 
       0.490885          445.43         207.239 
       0.497035         435.258         201.757 
       0.503198         434.858         196.445 
       0.509342         425.862         191.314 
       0.515458         417.403         186.374 
       0.521598         414.045         181.587 
       0.527764         405.864         176.959 
       0.533884         401.955         172.536 
           0.54         397.954         168.278 
       0.546137         390.357          164.16 
       0.552299         388.612          160.17 
       0.558452          382.41         156.322 
       0.564573         379.926         152.617 
       0.570708         374.367         149.017 
       0.576825         367.317         145.538 
       0.582926         366.153         142.178 
       0.589034         359.463         138.922 
       0.595184         356.909         135.751 
       0.601379          351.06         132.661 
       0.607522         344.287         129.695 
       0.613639         343.527         126.833 
       0.619772         342.124         124.051 
       0.625918         334.986         121.348 
       0.632068         333.192         118.724 
       0.638161         330.076         116.201 
         0.6443         325.225         113.733 
       0.650464         322.172         111.329 
       0.656582         318.929         109.011 
       0.662703         317.056         106.759 
       0.668861         311.232         104.559 
       0.675024         310.125          102.42 
       0.681124         304.558         100.362 
       0.687237         303.743         98.3583 
       0.693381         299.018         96.4002 
       0.699536         298.429         94.4925 
       0.705665         294.372          92.645 
       0.711789          292.13         90.8489 
       0.717957         289.303         89.0884 
        0.72409         285.523         87.3845 
       0.730186         286.664         85.7357 
       0.736317         281.693         84.1208 
       0.742472         279.289         82.5417 
       0.748622         277.226         81.0049 
        0.75476         275.328         79.5107 
       0.760888         272.465         78.0567 
       0.767043         269.512         76.6335 
       0.773185         267.474          75.249 
       0.779291         264.786         73.9068 
       0.785407          263.08         72.5956 
       0.791564         261.356         71.3081 
       0.797719         257.087         70.0527 
       0.803834         258.164         68.8356 
       0.809972         254.149         67.6433 
       0.816124         251.428         66.4767 
       0.822261         249.682          65.341 
       0.828378         248.527         64.2354 
       0.834502         245.072         63.1546 
       0.840667         245.209         62.0918 
       0.846816         240.745         61.0566 
       0.852925         241.126         60.0516 
       0.859047         238.507         59.0672 
       0.865192         237.525         58.1018 
       0.871341         234.696         57.1574 
       0.877463         233.224         56.2384 
       0.883569         231.991         55.3421 
       0.889708         229.971         54.4608 
       0.895864         227.076         53.5966 
       0.902008         225.828          52.753 
       0.908149         223.831         51.9282 
       0.914301         222.611         51.1197 
       0.920448         221.223         50.3294 
       0.926574         219.275         49.5585 
       0.932687         218.996         48.8056 
       0.938823         216.395         48.0657 
       0.944975         216.043         47.3394 
       0.951105          213.59         46.6309 
       0.957225         211.634         45.9381 
       0.963368         211.832         45.2571 
       0.969511         208.351           44.59 
       0.975621         206.338         43.9399 
       0.981748         206.259         43.3012 
       0.987916         205.079         42.6712 
        0.99406          203.14         42.0562 
        1.00019         201.823         41.4545 
        1.00632         200.915         40.8652 
        1.01246         199.381         40.2865 
        1.01859          197.22           39.72 
        1.02471         195.883         39.1651 
        1.03085         194.726         38.6189 
        1.03698         194.258         38.0844 
        1.04314         193.279         37.5577 
        1.04929         191.861         37.0422 
        1.05541          190.93         36.5385 
        1.06154         189.063         36.0429 
        1.06769         187.835         35.5558 
        1.07382          186.43         35.0794 
        1.07993         185.186         34.6128 
        1.08607         184.538         34.1528 
        1.09222         182.765         33.7007 
        1.09836         182.067         33.2573 
        1.10449          180.89         32.8225 
        1.11063         179.456          32.395 
        1.11677          178.21         31.9753 
         1.1229          177.82         31.5637 
        1.12903         175.756         31.1591 
        1.13518         174.952         30.7613 
        1.14131          174.25         30.3706 
        1.14745         172.471          29.987 
        1.15359         171.564           29.61 
        1.15973          170.91         29.2393 
        1.16584         169.749         28.8766 
        1.17197         169.039         28.5196 
        1.17811         167.422         28.1676 
        1.18424         166.524         27.8225 
        1.19038         165.864         27.4822 
        1.19652         163.981         27.1478 
        1.20267          163.25         26.8189 
        1.20881         162.212         26.4956 
        1.21495             162         26.1781 
        1.22108         160.626         25.8659 
         1.2272         159.554         25.5595 
        1.23334         158.529         25.2574 
        1.23949         157.816         24.9594 
        1.24562         156.723         24.6671 
        1.25174          156.19           24.38 
        1.25789         154.741         24.0965 
        1.26402         154.252         23.8181 
        1.27014         153.441         23.5447 
        1.27628         152.574         23.2748 
        1.28244         151.263         23.0086 
        1.28858         150.449          22.747 
        1.29471         149.346           22.49 
        1.30084         148.755         22.2372 
        1.30697         147.615         21.9879 
        1.31312         147.034         21.7421 
        1.31925         145.825         21.5008 
        1.32537         145.467         21.2635 
        1.33151         144.322         21.0288 
        1.33765         143.594         20.7979 
        1.34378         143.096         20.5709 
        1.34992         141.903         20.3471 
        1.35606         141.352         20.1262 
         1.3622         140.317          19.909 
        1.36833          139.51         19.6955 
        1.37445         139.154         19.4852 
        1.38059         137.857         19.2774 
        1.38675         137.144         19.0721 
        1.39288         136.338         18.8706 
        1.39901          135.33         18.6722 
        1.40515          134.86         18.4761 
         1.4113         134.106         18.2829 
        1.41742         133.313         18.0933 
        1.42355         132.657          17.906 
         1.4297         131.785         17.7208 
        1.43585         131.321         17.5382 
        1.44198          130.03          17.359 
        1.44809         129.743         17.1826 
        1.45423         129.049          17.008 
        1.46036         128.126         16.8361 
        1.46649         127.254         16.6665 
        1.47263         126.786         16.4992 
        1.47877         125.986         16.3342 
        1.48491          125.18         16.1712 
        1.49104         124.203         16.0108 
        1.49718         123.864         15.8524 
        1.50333         122.842         15.6959 
        1.50947         122.559         15.5419 
         1.5156         121.596         15.3901 
        1.52172         120.969         15.2404 
        1.52787         120.578         15.0924 
          1.534         119.827         14.9465 
        1.54013         118.937         14.8027 
        1.54627         118.378         14.6605 
        1.55241         117.906         14.5202 
        1.55855         117.204         14.3819 
        1.56467         116.599         14.2458 
         1.5708         115.613         14.1111 
        1.57695         115.369         13.9779 
        1.58308         114.404         13.8468 
        1.58922         113.891         13.7172 
        1.59535         113.476         13.5894 
         1.6015         112.628          13.463 
        1.60764         111.938         13.3382 
        1.61376         111.516         13.2154 
        1.61989         110.987         13.0941 
        1.62604         110.135          12.974 
        1.63218         109.694         12.8554 
        1.63831          108.97         12.7387 
        1.64444         108.227         12.6233 
        1.65059         107.887         12.5091 
        1.65673         107.406         12.3964 
        1.66285         107.003         12.2855 
        1.66898         106.097         12.1758 
        1.67512         105.248         12.0673 
        1.68127         105.151           11.96 
         1.6874         104.466         11.8543 
        1.69353         103.889         11.7498 
        1.69967         103.246         11.6464 
        1.70581         102.831         11.5443 
        1.71193         102.252         11.4438 
        1.71806         101.317         11.3443 
        1.72421         100.956         11.2458 
        1.73035         100.461         11.1485 
        1.73649         99.9749         11.0524 
        1.74262         99.3953         10.9575 
        1.74876         98.7234         10.8637 
        1.75489         98.6408         10.7712 
        1.76101         97.8635         10.6798 
        1.76715         97.1641         10.5893 
        1.77329         96.7188         10.4997 
        1.77943         96.1558         10.4111 
        1.78557         95.8514         10.3237 
        1.79171         95.1361         10.2373 
        1.79785         94.5611         10.1519 
        1.80399         94.1059         10.0674 
        1.81012          93.491         9.98405 
        1.81625         93.0412         9.90165 
        1.82239         92.7415         9.82006 
        1.82853         91.9036         9.73943 
        1.83466         91.3411         9.65978 
        1.84078         91.2558          9.5811 
        1.84692         90.8871         9.50318 
        1.85306         90.3062         9.42602 
         1.8592         89.8712         9.34984 
        1.86533          89.278         9.27455 
        1.87147         88.8262             9.2 
        1.87761         88.2028         9.12623 
        1.88375         87.7825         9.05336 
        1.88988          87.247         8.98137 
        1.89601         87.0599         8.91012 
        1.90215         86.6506         8.83958 
        1.90829         85.8869         8.76985 
        1.91442         85.3096         8.70085 
        1.92056         85.0127         8.63267 
         1.9267         84.5913         8.56514 
        1.93284          84.081         8.49829 
        1.93897           83.75         8.43229 
        1.94509          83.337         8.36712 
        1.95123         82.8568         8.30248 
        1.95737         82.4601         8.23848 
        1.96349         82.1229         8.17531 
        1.96964         81.6474         8.11262 
        1.97578         81.1705         8.05056 
        1.98192         80.7702         7.98928 
        1.98805         80.3615         7.92862 
        1.99419         80.0561         7.86859 
        2.00033         79.4403         7.80915 
        2.00647         79.0273         7.75034 
         2.0126         78.7342         7.69224 
        2.01874         78.2817         7.63464 
        2.02488         77.8267         7.57758 
        2.03101         77.4333         7.52121 
        2.03714           77.08         7.46547 
        2.04328         76.8749         7.41023 
        2.04941         76.3331         7.35559 
        2.05554         76.0298         7.30154 
        2.06167          75.507         7.24796 
        2.06781         75.2196         7.19491 
        2.07396         74.5364         7.14232 
        2.08009         74.3258         7.09034 
        2.08622         73.9335         7.03893 
        2.09237          73.554         6.98794 
        2.09851         73.0826         6.93744 
        2.10464         72.9459         6.88752 
        2.11077         72.4555         6.83816 
        2.11691         72.1067         6.78917 
        2.12305         71.6941         6.74065 
        2.12918         71.2836         6.69273 
        2.13531         71.0175         6.64527 
        2.14145         70.6784         6.59815 
         2.1476         70.3511         6.55144 
        2.15372         69.8933         6.50542 
        2.15985         69.5481         6.45979 
        2.16599         69.2336         6.41446 
        2.17213         68.7283         6.36963 
        2.17827         68.2912         6.32523 
         2.1844         68.1227         6.28129 
        2.19054         67.6726         6.23775 
        2.19666          67.346         6.19469 
         2.2028         67.1977           6.152 
        2.20893         66.8201         6.10969 
        2.21508         66.4437         6.06773 
        2.22122         66.0062         6.02614 
        2.22736         65.6461         5.98504 
        2.23349         65.3189         5.94432 
        2.23962         65.0462         5.90397 
        2.24577         64.8401         5.86395 
         2.2519           64.41         5.82436 
        2.25802         64.0503         5.78519 
        2.26417           63.72         5.74628 
        2.27031         63.3903         5.70769 
        2.27644         63.0608         5.66956 
        2.28257         62.7913         5.63179 
        2.28872         62.4325         5.59428 
        2.29486         62.2565         5.55713 
        2.30099         61.7462         5.52039 
        2.30712         61.6724         5.48396 
        2.31326         61.2082          5.4478 
         2.3194         60.9284         5.41199 
        2.32553          60.548         5.37656 
        2.33166         60.3318         5.34146 
         2.3378         60.0577         5.30662 
        2.34394         59.8521         5.27209 
        2.35007         59.3836         5.23791 
        2.35619         59.1499         5.20407 
        2.36233         58.8028         5.17046 
        2.36848         58.5673         5.13707 
        2.37462         58.2086         5.10404 
        2.38075         57.9395         5.07134 
        2.38689         57.5968          5.0389 
        2.39303         57.4442         5.00674 
        2.39916         57.0357          4.9749 
        2.40529         56.9136         4.94334 
        2.41143         56.5486         4.91203 
        2.41757         56.1883         4.88097 
         2.4237         56.0381         4.85024 
        2.42983         55.7207         4.81978 
        2.43598         55.4415          4.7895 
        2.44211         55.1835         4.75953 
        2.44823         54.8829         4.72988 
        2.45437         54.6116          4.7004 
        2.46052           54.39         4.67115 
        2.46665         53.9708          4.6422 
        2.47279         53.7549          4.6135 
        2.47892         53.5397         4.58503 
        2.48507         53.3341         4.55676 
         2.4912         53.0706          4.5288 
