# k  (h/Mpc)    Pcb(k)  (Mpc/h)^3    Pcb_linear(k)  (Mpc/h)^3
     0.00783031         3631.11         3657.18 
       0.013688         4224.84         4287.63 
       0.019231         4130.24         4158.52 
      0.0249154         3708.04         3697.07 
      0.0312784         3089.71         3092.04 
      0.0375637         2569.17         2579.87 
      0.0433917         2238.38         2233.26 
      0.0492413         1992.74         1996.85 
      0.0555754         1827.86         1821.91 
      0.0619321         1657.43         1679.06 
       0.067871         1536.12         1541.36 
      0.0738098         1388.43         1388.33 
      0.0800417          1225.4         1219.48 
      0.0862327         1064.52         1061.81 
      0.0921407         940.306          935.96 
      0.0982031         849.147         838.698 
       0.104506         770.204         769.242 
       0.110769         724.841         722.442 
       0.116806         695.307         686.582 
       0.122832         652.672         650.076 
       0.129052         611.891         606.176 
       0.135211         567.825         556.647 
       0.141259         514.691         506.374 
       0.147318         465.233         459.742 
       0.153489         428.924         420.177 
       0.159709         402.528         389.867 
       0.165845         373.746         368.167 
       0.171974         364.457         351.735 
       0.178125         348.951         337.143 
       0.184229         329.241         321.899 
        0.19034         315.848         304.664 
       0.196428         298.151         285.829 
       0.202534         274.579         266.605 
       0.208729         261.953         248.392 
       0.214876         248.276         232.804 
       0.220989         231.247          220.17 
       0.227147         224.955         209.985 
        0.23329         216.454         201.515 
       0.239377         210.087          193.83 
       0.245482         200.153         186.064 
       0.251667         190.552         177.755 
       0.257832         185.711         169.097 
       0.263955         174.254         160.496 
       0.270079         166.123         152.335 
        0.27624         158.087         144.935 
       0.282372         152.429          138.51 
        0.28843         149.864         133.011 
       0.294538         143.251         128.092 
       0.300721         137.233         123.469 
        0.30691         134.438         118.958 
       0.313033         128.634         114.477 
       0.319153         125.789         109.978 
       0.325316         120.315          105.51 
        0.33145         115.925         101.248 
       0.337538         111.851         97.3029 
       0.343633         108.369         93.6842 
       0.349808         104.683          90.349 
       0.355968         101.615         87.2857 
       0.362074         99.5066         84.4356 
       0.368217         96.7228         81.6761 
       0.374374         94.2618         78.9738 
       0.380519         90.2087         76.3283 
       0.386598         87.7519         73.7721 
       0.392688         84.9308         71.3061 
        0.39888         83.2907         68.9214 
       0.405048         81.1678         66.6841 
       0.411186         79.1556         64.5981 
       0.417313         76.9319         62.6367 
       0.423458         74.7811         60.7679 
       0.429607         73.3109          58.976 
       0.435692         72.0854         57.2613 
       0.441815         69.4405         55.5841 
       0.447964         67.2208          53.952 
       0.454126         65.9814         52.3734 
       0.460267         65.2839         50.8617 
       0.466387         63.4684         49.4211 
        0.47254         62.5561         48.0408 
       0.478662         60.3643         46.7297 
       0.484765         59.2143         45.4771 
       0.490885         57.5554          44.269 
       0.497035         56.8672          43.098 
       0.503198         55.5386         41.9632 
       0.509342         53.9998         40.8673 
       0.515458         53.2275         39.8119 
       0.521598         51.9079         38.7895 
       0.527764         51.1874         37.8008 
       0.533884         50.3533         36.8559 
           0.54         49.1439         35.9465 
       0.546137         47.7245         35.0667 
       0.552299         46.8763         34.2145 
       0.558452         45.8964         33.3925 
       0.564573         45.5545          32.601 
       0.570708         44.2434          31.832 
       0.576825         43.7313         31.0889 
       0.582926         43.0431         30.3712 
       0.589034         42.1576         29.6756 
       0.595184         41.5834         28.9982 
       0.601379         40.4816         28.3381 
       0.607522          39.778         27.7045 
       0.613639           39.29         27.0932 
       0.619772         38.5063         26.4991 
       0.625918          37.865         25.9216 
       0.632068          37.472          25.361 
       0.638161         36.6886         24.8221 
         0.6443         36.2249          24.295 
       0.650464         35.3203         23.7813 
       0.656582         35.1179         23.2863 
       0.662703         34.6291         22.8053 
       0.668861         33.7511         22.3352 
       0.675024         33.4255         21.8782 
       0.681124         33.1271         21.4388 
       0.687237         32.4429         21.0107 
       0.693381         31.8995         20.5924 
       0.699536         31.6581         20.1849 
       0.705665         31.0779         19.7903 
       0.711789         30.5697         19.4066 
       0.717957         30.0011         19.0305 
        0.72409         29.6896         18.6666 
       0.730186         29.5311         18.3144 
       0.736317         28.9345         17.9694 
       0.742472         28.5875         17.6321 
       0.748622         28.1318         17.3038 
        0.75476         27.5102         16.9846 
       0.760888         27.4611          16.674 
       0.767043         26.9403           16.37 
       0.773185         26.6361         16.0743 
       0.779291         26.3017         15.7875 
       0.785407         25.9245         15.5074 
       0.791564         25.8201         15.2324 
       0.797719          25.234         14.9642 
       0.803834         25.1134         14.7043 
       0.809972         24.6623         14.4496 
       0.816124         24.4007         14.2004 
       0.822261         24.1134         13.9578 
       0.828378         23.9069         13.7216 
       0.834502          23.635         13.4907 
       0.840667         23.3835         13.2637 
       0.846816          22.908         13.0426 
       0.852925         22.8258         12.8279 
       0.859047         22.6082         12.6176 
       0.865192         22.2598         12.4114 
       0.871341         21.9902         12.2096 
       0.877463         21.7405         12.0133 
       0.883569         21.6204         11.8219 
       0.889708         21.2973         11.6336 
       0.895864           21.03          11.449 
       0.902008          20.809         11.2688 
       0.908149         20.5525         11.0926 
       0.914301         20.4203         10.9199 
       0.920448         20.1578         10.7511 
       0.926574         19.9616         10.5864 
       0.932687         19.7208         10.4256 
       0.938823         19.4543         10.2675 
       0.944975         19.3248         10.1124 
       0.951105         19.1424         9.96103 
       0.957225         18.9959         9.81305 
       0.963368         18.7118         9.66758 
       0.969511         18.5463         9.52506 
       0.975621         18.3962          9.3862 
       0.981748         18.1578         9.24976 
       0.987916         18.0489         9.11519 
        0.99406         17.8007          8.9838 
        1.00019         17.6924         8.85528 
        1.00632         17.5506          8.7294 
        1.01246         17.3578         8.60578 
        1.01859         17.1748         8.48477 
        1.02471         17.0135         8.36624 
        1.03085         16.9256         8.24957 
        1.03698          16.783         8.13537 
        1.04314          16.574         8.02286 
        1.04929         16.3776         7.91275 
        1.05541         16.3044         7.80515 
        1.06154         16.1714         7.69929 
        1.06769         15.9789         7.59524 
        1.07382          15.818         7.49347 
        1.07993         15.6885         7.39379 
        1.08607         15.5882         7.29553 
        1.09222         15.4234         7.19895 
        1.09836         15.2906         7.10425 
        1.10449          15.191         7.01136 
        1.11063         15.0848         6.92004 
        1.11677         15.0018         6.83039 
         1.1229         14.8369         6.74248 
        1.12903         14.6999         6.65605 
        1.13518         14.5841         6.57106 
        1.14131          14.487         6.48762 
        1.14745         14.2904         6.40567 
        1.15359         14.1637         6.32513 
        1.15973         14.0792         6.24594 
        1.16584         13.9516         6.16847 
        1.17197         13.8132         6.09221 
        1.17811         13.7391           6.017 
        1.18424         13.6269         5.94329 
        1.19038         13.5687          5.8706 
        1.19652         13.4078         5.79916 
        1.20267         13.3511         5.72891 
        1.20881         13.1866         5.65984 
        1.21495         13.1164         5.59202 
        1.22108          13.052         5.52533 
         1.2272         12.9342         5.45988 
        1.23334         12.8619         5.39535 
        1.23949         12.7466          5.3317 
        1.24562         12.6187         5.26926 
        1.25174         12.5781         5.20792 
        1.25789          12.472         5.14737 
        1.26402         12.3915         5.08789 
        1.27014         12.3304         5.02949 
        1.27628         12.1844         4.97184 
        1.28244         12.1695         4.91498 
        1.28858         12.0316         4.85909 
        1.29471         11.9063         4.80419 
        1.30084         11.8291         4.75019 
        1.30697          11.792         4.69694 
        1.31312         11.6932         4.64443 
        1.31925          11.628         4.59289 
        1.32537         11.5222         4.54219 
        1.33151         11.4505         4.49207 
        1.33765         11.3942         4.44274 
        1.34378         11.3396         4.39425 
        1.34992          11.237         4.34645 
        1.35606         11.1252         4.29925 
         1.3622         11.0552         4.25285 
        1.36833         11.0308         4.20724 
        1.37445         10.9512         4.16233 
        1.38059         10.8707         4.11793 
        1.38675         10.8109         4.07408 
        1.39288         10.7118         4.03104 
        1.39901         10.6459         3.98865 
        1.40515         10.5838         3.94677 
         1.4113         10.5112         3.90551 
        1.41742          10.468           3.865 
        1.42355         10.3695         3.82498 
         1.4297         10.3142         3.78542 
        1.43585           10.26         3.74643 
        1.44198         10.2246         3.70814 
        1.44809         10.1374         3.67045 
        1.45423         10.0689         3.63315 
        1.46036         10.0022         3.59644 
        1.46649         9.94412         3.56022 
        1.47263         9.89634         3.52447 
        1.47877         9.82346         3.48923 
        1.48491         9.78278         3.45441 
        1.49104         9.71187         3.42014 
        1.49718         9.66772         3.38631 
        1.50333           9.613         3.35289 
        1.50947          9.5562         3.31998 
         1.5156         9.51025         3.28756 
        1.52172          9.4313         3.25558 
        1.52787         9.41244         3.22396 
          1.534         9.34133          3.1928 
        1.54013         9.29646         3.16208 
        1.54627         9.22473         3.13171 
        1.55241         9.15385         3.10174 
        1.55855          9.1317          3.0722 
        1.56467         9.09687         3.04313 
         1.5708         9.03459         3.01435 
        1.57695         8.97858          2.9859 
        1.58308         8.91951         2.95788 
        1.58922         8.88431          2.9302 
        1.59535         8.84121         2.90289 
         1.6015         8.74712         2.87589 
        1.60764          8.7174         2.84925 
        1.61376         8.68791         2.82301 
        1.61989         8.62206         2.79709 
        1.62604         8.60279         2.77143 
        1.63218         8.55682         2.74611 
        1.63831         8.49139         2.72117 
        1.64444         8.43389         2.69653 
        1.65059         8.38915         2.67213 
        1.65673         8.37216         2.64806 
        1.66285         8.30844         2.62436 
        1.66898         8.29206         2.60094 
        1.67512         8.25303         2.57776 
        1.68127         8.17132         2.55484 
         1.6874          8.1622         2.53225 
        1.69353         8.07961         2.50994 
        1.69967         8.06268         2.48786 
        1.70581         8.02019         2.46604 
        1.71193         7.98024         2.44457 
        1.71806         7.93949         2.42331 
        1.72421         7.89531         2.40226 
        1.73035         7.86912         2.38149 
        1.73649         7.83839         2.36096 
        1.74262         7.75612          2.3407 
        1.74876         7.75553         2.32065 
        1.75489         7.71837         2.30089 
        1.76101         7.64844         2.28136 
        1.76715         7.64958         2.26203 
        1.77329         7.59421          2.2429 
        1.77943         7.54106         2.22398 
        1.78557          7.5444         2.20531 
        1.79171         7.48799         2.18685 
        1.79785         7.46298          2.1686 
        1.80399         7.41155         2.15056 
        1.81012         7.37917         2.13274 
        1.81625         7.33689         2.11514 
        1.82239         7.30818         2.09771 
        1.82853         7.25762         2.08049 
        1.83466         7.21616         2.06348 
        1.84078         7.19578         2.04667 
        1.84692         7.17786         2.03002 
        1.85306         7.14094         2.01354 
         1.8592          7.1138         1.99727 
        1.86533         7.06979         1.98118 
        1.87147         7.04142         1.96526 
        1.87761         7.01427          1.9495 
        1.88375         6.98111         1.93394 
        1.88988         6.94071         1.91856 
        1.89601         6.91468         1.90334 
        1.90215           6.878         1.88827 
        1.90829         6.84883         1.87337 
        1.91442         6.81675         1.85864 
        1.92056         6.81062         1.84407 
         1.9267         6.76635         1.82964 
        1.93284         6.74184         1.81537 
        1.93897          6.6945         1.80127 
        1.94509         6.65677         1.78735 
        1.95123          6.6491         1.77354 
        1.95737         6.62534         1.75986 
        1.96349         6.57163         1.74637 
        1.96964         6.54341         1.73298 
        1.97578         6.52965         1.71972 
        1.98192         6.50362         1.70663 
        1.98805         6.46911         1.69367 
        1.99419          6.4475         1.68085 
        2.00033         6.41464         1.66815 
        2.00647         6.39246         1.65559 
         2.0126         6.36704         1.64318 
        2.01874          6.3255         1.63088 
        2.02488         6.31166         1.61869 
        2.03101         6.28853         1.60665 
        2.03714         6.24551         1.59474 
        2.04328         6.21659         1.58294 
        2.04941         6.19507         1.57127 
        2.05554         6.17539         1.55972 
        2.06167         6.16091         1.54828 
        2.06781         6.12325         1.53694 
        2.07396         6.09917         1.52571 
        2.08009         6.05626          1.5146 
        2.08622         6.06328         1.50362 
        2.09237         6.03336         1.49273 
        2.09851         5.99462         1.48194 
        2.10464         5.98177         1.47128 
        2.11077         5.93837         1.46074 
        2.11691         5.93296         1.45027 
        2.12305         5.90554         1.43991 
        2.12918          5.8716         1.42967 
        2.13531         5.85992         1.41953 
        2.14145         5.83161         1.40947 
         2.1476         5.81524         1.39949 
        2.15372         5.78681         1.38966 
        2.15985         5.76331         1.37991 
        2.16599         5.74775         1.37023 
        2.17213         5.74188         1.36065 
        2.17827         5.70174         1.35117 
         2.1844         5.68955         1.34178 
        2.19054         5.66729         1.33248 
        2.19666         5.63838         1.32328 
         2.2028         5.61431         1.31416 
        2.20893         5.59809         1.30512 
        2.21508         5.57147         1.29616 
        2.22122         5.54059         1.28728 
        2.22736         5.51999          1.2785 
        2.23349         5.50017          1.2698 
        2.23962         5.48786         1.26118 
        2.24577         5.47058         1.25263 
         2.2519         5.46255         1.24417 
        2.25802         5.40273         1.23581 
        2.26417         5.40081         1.22749 
        2.27031         5.38136         1.21925 
        2.27644         5.36889         1.21111 
        2.28257         5.33061         1.20304 
        2.28872         5.31733         1.19503 
        2.29486         5.30046         1.18709 
        2.30099         5.29061         1.17924 
        2.30712         5.25408         1.17146 
        2.31326         5.24216         1.16373 
         2.3194         5.21792         1.15608 
        2.32553         5.20221         1.14852 
        2.33166         5.17963         1.14102 
         2.3378         5.16585         1.13358 
        2.34394          5.1441          1.1262 
        2.35007         5.12635          1.1189 
        2.35619          5.1124         1.11167 
        2.36233         5.08418         1.10449 
        2.36848         5.07092         1.09736 
        2.37462         5.05453          1.0903 
        2.38075         5.03646         1.08332 
        2.38689         5.02667         1.07639 
        2.39303         4.99434         1.06952 
        2.39916         4.98658         1.06272 
        2.40529         4.96453         1.05597 
        2.41143         4.95336         1.04929 
        2.41757         4.92724         1.04265 
         2.4237         4.91769         1.03609 
        2.42983         4.89696         1.02958 
        2.43598         4.88493         1.02311 
        2.44211         4.86095         1.01671 
        2.44823         4.84085         1.01038 
        2.45437         4.82742         1.00408 
        2.46052         4.81936        0.997831 
        2.46665         4.79879        0.991646 
        2.47279         4.77838        0.985516 
        2.47892         4.75879        0.979433 
        2.48507         4.74594        0.973397 
         2.4912         4.72963        0.967422 
