# k  (h/Mpc)    Pcb(k)  (Mpc/h)^3    Pcb_linear(k)  (Mpc/h)^3
     0.00783031         1794.74          1806.3 
       0.013688         2229.83         2256.71 
       0.019231         2311.22          2323.8 
      0.0249154         2196.48         2194.77 
      0.0312784         1948.45         1952.07 
      0.0375637         1699.18         1706.32 
      0.0433917         1517.41         1515.77 
      0.0492413         1366.68          1370.2 
      0.0555754         1256.99         1254.66 
      0.0619321         1150.88         1163.59 
       0.067871         1080.38         1084.38 
      0.0738098         999.348         1001.15 
      0.0800417         908.757         907.739 
      0.0862327         812.742         813.921 
      0.0921407         730.033         730.828 
      0.0982031         661.189         658.255 
       0.104506         597.321         599.278 
       0.110769         555.124         556.021 
       0.116806         528.366         524.743 
       0.122832         498.314         498.662 
       0.129052         474.027         472.425 
       0.135211         448.361         444.267 
       0.141259         416.004         414.086 
       0.147318         382.414         382.824 
       0.153489         354.439         352.349 
       0.159709         330.018         325.279 
       0.165845         304.046         303.355 
       0.171974         292.044         286.158 
       0.178125          278.31          272.58 
       0.184229         264.192         261.209 
        0.19034         255.749         250.405 
       0.196428         244.526         239.162 
       0.202534         229.284         227.029 
       0.208729         219.591         214.124 
       0.214876         208.659         201.427 
       0.220989         193.859         189.665 
       0.227147         186.981         179.245 
        0.23329         178.725         170.461 
       0.239377         172.276         163.179 
       0.245482         164.723         156.891 
       0.251667         157.794         151.057 
       0.257832         154.333         145.342 
       0.263955         146.494         139.527 
       0.270079         140.589         133.537 
        0.27624         133.828         127.479 
       0.282372          128.66         121.647 
        0.28843         125.669         116.283 
       0.294538         120.039         111.409 
       0.300721          114.71         107.035 
        0.30691         112.209         103.142 
       0.313033         107.892         99.6228 
       0.319153          105.82         96.2908 
       0.325316         101.132         92.9994 
        0.33145         97.7398         89.7357 
       0.337538         94.6663         86.5066 
       0.343633          91.765          83.337 
       0.349808         88.5336         80.2518 
       0.355968         85.6398         77.3609 
       0.362074         83.8106         74.7068 
       0.368217         81.2963         72.2461 
       0.374374         79.5148         69.9607 
       0.380519         76.1837          67.812 
       0.386598         74.0511         65.7751 
       0.392688         71.8659          63.789 
        0.39888         70.4267         61.8088 
       0.405048         68.6535          59.881 
       0.411186          66.799         58.0173 
       0.417313         64.8865         56.2299 
       0.423458         62.9927         54.5264 
       0.429607         61.8646         52.9135 
       0.435692          60.736         51.4066 
       0.441815         58.4679         49.9692 
       0.447964         56.7195         48.5897 
       0.454126         55.7188         47.2576 
       0.460267         55.1202          45.972 
       0.466387         53.5394         44.7265 
        0.47254         52.7126         43.5086 
       0.478662         51.0138         42.3358 
       0.484765         49.9538         41.2097 
       0.490885         48.5311         40.1251 
       0.497035          47.769         39.0803 
       0.503198         46.6741         38.0784 
       0.509342         45.4278         37.1206 
       0.515458         44.8427         36.2023 
       0.521598         43.7715         35.3107 
       0.527764         43.1683         34.4432 
       0.533884         42.1891         33.6085 
           0.54         41.3287         32.7995 
       0.546137         40.0883         32.0125 
       0.552299         39.4236         31.2477 
       0.558452         38.6047         30.5104 
       0.564573         38.2323         29.8029 
       0.570708         37.2012         29.1185 
       0.576825         36.6995         28.4588 
       0.582926         36.0615         27.8218 
       0.589034         35.3538         27.2035 
       0.595184         34.8875         26.5998 
       0.601379         33.9441         26.0098 
       0.607522         33.4239         25.4419 
       0.613639         32.8717         24.8928 
       0.619772          32.317         24.3584 
       0.625918         31.6687         23.8388 
       0.632068         31.3954         23.3347 
       0.638161         30.7433         22.8503 
         0.6443         30.2624         22.3768 
       0.650464         29.5141         21.9154 
       0.656582         29.3298         21.4705 
       0.662703         28.9792         21.0376 
       0.668861         28.2057          20.614 
       0.675024         27.8642         20.2016 
       0.681124         27.6872         19.8046 
       0.687237         27.1199         19.4175 
       0.693381         26.5559         19.0391 
       0.699536         26.4298         18.6704 
       0.705665         25.9311         18.3132 
       0.711789         25.4648         17.9658 
       0.717957         24.9588         17.6251 
        0.72409         24.7386         17.2953 
       0.730186         24.6078         16.9758 
       0.736317         24.0994         16.6628 
       0.742472         23.7978         16.3564 
       0.748622         23.4169         16.0581 
        0.75476           22.84         15.7679 
       0.760888         22.7602         15.4854 
       0.767043          22.374         15.2087 
       0.773185          22.134         14.9394 
       0.779291         21.9241         14.6783 
       0.785407         21.5396          14.423 
       0.791564         21.3861         14.1723 
       0.797719         20.9289         13.9277 
       0.803834         20.8277         13.6904 
       0.809972         20.4337         13.4579 
       0.816124         20.2097         13.2303 
       0.822261         19.9892         13.0085 
       0.828378         19.7634         12.7926 
       0.834502         19.5626         12.5814 
       0.840667          19.353         12.3736 
       0.846816         18.9319         12.1711 
       0.852925         18.8647         11.9745 
       0.859047         18.6356         11.7818 
       0.865192         18.3735         11.5927 
       0.871341         18.1343         11.4077 
       0.877463         17.9413         11.2276 
       0.883569         17.8321         11.0519 
       0.889708         17.5378          10.879 
       0.895864         17.3228         10.7095 
       0.902008         17.1181         10.5439 
       0.908149          16.901         10.3819 
       0.914301          16.813         10.2231 
       0.920448         16.5611         10.0678 
       0.926574         16.4487         9.91625 
       0.932687         16.2156         9.76817 
       0.938823         16.0118          9.6226 
       0.944975         15.8878         9.47968 
       0.951105          15.702         9.34019 
       0.957225         15.6093         9.20375 
       0.963368         15.3722         9.06959 
       0.969511         15.2178         8.93811 
       0.975621         15.0737         8.80995 
       0.981748         14.8761         8.68399 
       0.987916         14.7695         8.55971 
        0.99406         14.6215         8.43833 
        1.00019         14.5015         8.31956 
        1.00632          14.373         8.20319 
        1.01246         14.2241         8.08889 
        1.01859         14.0559         7.97695 
        1.02471         13.8948         7.86728 
        1.03085         13.8446          7.7593 
        1.03698          13.708         7.65358 
        1.04314         13.5423         7.54939 
        1.04929          13.369         7.44738 
        1.05541         13.3081         7.34768 
        1.06154         13.1903         7.24956 
        1.06769         13.0966         7.15309 
        1.07382         12.8881          7.0587 
        1.07993         12.7816         6.96624 
        1.08607         12.7235         6.87505 
        1.09222         12.5596         6.78541 
        1.09836         12.5143         6.69748 
        1.10449         12.3237         6.61122 
        1.11063         12.2839         6.52638 
        1.11677         12.1965         6.44307 
         1.1229         12.0788         6.36137 
        1.12903         11.9857         6.28101 
        1.13518         11.8168         6.20198 
        1.14131         11.7514         6.12436 
        1.14745         11.5921         6.04811 
        1.15359         11.5085         5.97316 
        1.15973         11.4101         5.89944 
        1.16584         11.3247         5.82731 
        1.17197         11.2244         5.75628 
        1.17811         11.1303         5.68622 
        1.18424         11.0557         5.61754 
        1.19038         10.9888         5.54979 
        1.19652         10.8934         5.48319 
        1.20267           10.81         5.41769 
        1.20881         10.6899         5.35327 
        1.21495         10.6111            5.29 
        1.22108         10.5592         5.22776 
         1.2272         10.4595         5.16668 
        1.23334         10.4198         5.10644 
        1.23949         10.3057         5.04701 
        1.24562         10.2253          4.9887 
        1.25174         10.1665         4.93139 
        1.25789         10.0366         4.87482 
        1.26402         10.0087         4.81923 
        1.27014         9.95163         4.76465 
        1.27628         9.82087         4.71075 
        1.28244         9.80828         4.65759 
        1.28858         9.72641         4.60531 
        1.29471         9.59499         4.55396 
        1.30084         9.53085         4.50343 
        1.30697         9.52135          4.4536 
        1.31312         9.41506         4.40445 
        1.31925          9.3594          4.3562 
        1.32537         9.29846         4.30872 
        1.33151         9.22511         4.26178 
        1.33765         9.15163         4.21557 
        1.34378         9.13819         4.17013 
        1.34992         9.04114         4.12534 
        1.35606         8.97178          4.0811 
         1.3622         8.90256          4.0376 
        1.36833         8.85608         3.99484 
        1.37445         8.79395         3.95271 
        1.38059         8.73715         3.91107 
        1.38675         8.67428         3.86993 
        1.39288         8.60033         3.82954 
        1.39901         8.54408         3.78976 
        1.40515         8.49246         3.75044 
         1.4113         8.42464         3.71171 
        1.41742         8.39093         3.67366 
        1.42355         8.31247         3.63608 
         1.4297         8.27732         3.59892 
        1.43585         8.23007         3.56229 
        1.44198         8.17248         3.52631 
        1.44809          8.1251         3.49089 
        1.45423         8.05711         3.45583 
        1.46036         8.01816         3.42132 
        1.46649         7.96193         3.38726 
        1.47263         7.92331         3.35364 
        1.47877         7.86752          3.3205 
        1.48491         7.83126         3.28774 
        1.49104         7.76145          3.2555 
        1.49718          7.7371         3.22367 
        1.50333         7.68106         3.19221 
        1.50947          7.6146         3.16124 
         1.5156         7.59936         3.13072 
        1.52172         7.55019         3.10061 
        1.52787         7.50473         3.07083 
          1.534         7.45668         3.04148 
        1.54013         7.42186         3.01254 
        1.54627         7.36976         2.98393 
        1.55241         7.30883         2.95569 
        1.55855         7.29869         2.92785 
        1.56467          7.2449         2.90044 
         1.5708         7.20518         2.87331 
        1.57695         7.14493         2.84649 
        1.58308         7.09877         2.82007 
        1.58922         7.07649         2.79397 
        1.59535         7.03473         2.76821 
         1.6015         6.97634         2.74273 
        1.60764         6.95307         2.71759 
        1.61376         6.92362         2.69284 
        1.61989         6.85679         2.66837 
        1.62604         6.83565         2.64416 
        1.63218         6.80263         2.62025 
        1.63831         6.76735          2.5967 
        1.64444         6.71028         2.57343 
        1.65059          6.6814         2.55039 
        1.65673          6.6566         2.52766 
        1.66285            6.62         2.50527 
        1.66898         6.57954         2.48314 
        1.67512         6.53782         2.46124 
        1.68127         6.49571         2.43958 
         1.6874          6.4755         2.41823 
        1.69353         6.42672         2.39715 
        1.69967         6.40489         2.37627 
        1.70581         6.35579         2.35565 
        1.71193         6.34012         2.33535 
        1.71806         6.30464         2.31524 
        1.72421           6.263         2.29533 
        1.73035         6.23449         2.27568 
        1.73649         6.20234         2.25626 
        1.74262         6.16079         2.23709 
        1.74876         6.15419         2.21812 
        1.75489         6.11093         2.19942 
        1.76101         6.06583         2.18093 
        1.76715         6.05726         2.16263 
        1.77329         6.02662         2.14452 
        1.77943         5.97503         2.12661 
        1.78557         5.97028         2.10893 
        1.79171         5.93847         2.09145 
        1.79785         5.90724         2.07416 
        1.80399         5.85247         2.05707 
        1.81012         5.84286          2.0402 
        1.81625         5.80753         2.02352 
        1.82239         5.78452           2.007 
        1.82853         5.74987         1.99068 
        1.83466         5.70886         1.97456 
        1.84078         5.69012         1.95863 
        1.84692         5.66641         1.94285 
        1.85306         5.63892         1.92722 
         1.8592         5.62347         1.91179 
        1.86533         5.59642         1.89654 
        1.87147         5.56303         1.88143 
        1.87761         5.54847         1.86649 
        1.88375          5.5111         1.85172 
        1.88988         5.48365         1.83713 
        1.89601         5.46215         1.82269 
        1.90215         5.42136          1.8084 
        1.90829         5.41636         1.79426 
        1.91442          5.3773         1.78027 
        1.92056         5.37209         1.76645 
         1.9267         5.32956         1.75275 
        1.93284         5.32679          1.7392 
        1.93897         5.28418         1.72581 
        1.94509         5.25085         1.71259 
        1.95123         5.24025         1.69948 
        1.95737         5.21994          1.6865 
        1.96349         5.17973         1.67368 
        1.96964         5.16181         1.66096 
        1.97578         5.14482         1.64837 
        1.98192         5.11536         1.63593 
        1.98805         5.09946         1.62362 
        1.99419         5.08121         1.61143 
        2.00033         5.04088         1.59937 
        2.00647         5.03484         1.58743 
         2.0126         5.01072         1.57563 
        2.01874         4.99336         1.56394 
        2.02488         4.96817         1.55235 
        2.03101         4.93354          1.5409 
        2.03714         4.91793         1.52958 
        2.04328         4.90173         1.51836 
        2.04941          4.8744         1.50726 
        2.05554         4.86431         1.49627 
        2.06167         4.83753         1.48539 
        2.06781         4.81723         1.47461 
        2.07396          4.7925         1.46392 
        2.08009         4.78091         1.45335 
        2.08622         4.76206         1.44291 
        2.09237         4.75138         1.43254 
        2.09851         4.71209         1.42228 
        2.10464         4.69848         1.41213 
        2.11077         4.68728         1.40209 
        2.11691         4.66853         1.39213 
        2.12305         4.64025         1.38226 
        2.12918         4.62807         1.37251 
        2.13531         4.60309         1.36286 
        2.14145         4.59064         1.35328 
         2.1476         4.56613         1.34378 
        2.15372         4.54827         1.33441 
        2.15985         4.53676         1.32513 
        2.16599         4.51823         1.31591 
        2.17213         4.50591         1.30678 
        2.17827         4.47216         1.29775 
         2.1844         4.45491          1.2888 
        2.19054         4.44483         1.27994 
        2.19666         4.42813         1.27118 
         2.2028         4.39545         1.26248 
        2.20893         4.39627         1.25387 
        2.21508         4.37896         1.24533 
        2.22122          4.3429         1.23686 
        2.22736         4.33663         1.22849 
        2.23349         4.31878          1.2202 
        2.23962         4.30923         1.21198 
        2.24577         4.27746         1.20383 
         2.2519         4.27378         1.19576 
        2.25802         4.24478         1.18778 
        2.26417         4.23395         1.17986 
        2.27031          4.2163         1.17199 
        2.27644         4.20111         1.16423 
        2.28257         4.18716         1.15653 
        2.28872         4.17317         1.14889 
        2.29486         4.15138         1.14131 
        2.30099         4.13704         1.13383 
        2.30712         4.12313          1.1264 
        2.31326         4.10801         1.11903 
         2.3194         4.09114         1.11173 
        2.32553         4.07528         1.10451 
        2.33166         4.06716         1.09735 
         2.3378         4.04948         1.09025 
        2.34394         4.03015          1.0832 
        2.35007         4.01101         1.07623 
        2.35619         4.00589         1.06933 
        2.36233         3.98301         1.06248 
        2.36848         3.97646         1.05567 
        2.37462         3.96112         1.04893 
        2.38075         3.95113         1.04226 
        2.38689         3.93413         1.03564 
        2.39303         3.91703         1.02908 
        2.39916         3.90376         1.02258 
        2.40529         3.88608         1.01614 
        2.41143         3.87903         1.00975 
        2.41757         3.86842         1.00342 
         2.4237         3.84752        0.997144 
        2.42983         3.84247        0.990926 
        2.43598         3.82948        0.984745 
        2.44211         3.80665        0.978627 
        2.44823         3.79172        0.972575 
        2.45437         3.77857        0.966557 
        2.46052         3.76919        0.960584 
        2.46665         3.75813        0.954673 
        2.47279         3.73349        0.948813 
        2.47892         3.72766        0.942999 
        2.48507         3.71919        0.937227 
         2.4912          3.7051        0.931515 
