# k  (h/Mpc)    P(k)  (Mpc/h)^3    P_linear(k)  (Mpc/h)^3
     0.00783031         6512.49         6557.88 
       0.013688         8022.62         8181.96 
       0.019231         8330.58         8420.12 
      0.0249154         7956.74         7949.85 
      0.0312784         7022.79         7069.12 
      0.0375637         6105.01         6178.26 
      0.0433917         5470.28         5487.81 
      0.0492413         4912.61         4960.47 
      0.0555754         4526.64         4541.93 
      0.0619321         4103.03         4212.08 
       0.067871         3869.45         3925.21 
      0.0738098         3590.26         3623.86 
      0.0800417         3267.49         3285.68 
      0.0862327         2920.13         2946.04 
      0.0921407         2630.46         2645.25 
      0.0982031         2394.92         2382.54 
       0.104506         2155.77         2169.05 
       0.110769         2007.67         2012.47 
       0.116806         1922.79         1899.25 
       0.122832         1806.24         1804.84 
       0.129052         1716.89         1709.87 
       0.135211         1638.86         1607.95 
       0.141259         1515.92         1498.71 
       0.147318         1391.23         1385.56 
       0.153489         1298.96         1275.25 
       0.159709         1227.02         1177.28 
       0.165845         1123.04         1097.92 
       0.171974         1092.95         1035.68 
       0.178125         1048.57         986.534 
       0.184229         981.119         945.378 
        0.19034         957.768         906.276 
       0.196428         922.611         865.584 
       0.202534         860.437         821.668 
       0.208729         836.901         774.963 
       0.214876         798.669         729.007 
       0.220989         744.216          686.44 
       0.227147           725.1         648.724 
        0.23329         696.764         616.933 
       0.239377         681.947         590.576 
       0.245482         648.371         567.819 
       0.251667         623.007         546.703 
       0.257832         615.338         526.021 
       0.263955          581.58         504.975 
       0.270079         560.805         483.295 
        0.27624         536.002         461.369 
       0.282372         522.364         440.264 
        0.28843         517.189         420.849 
       0.294538         491.089         403.209 
       0.300721         474.381         387.377 
        0.30691         466.711         373.287 
       0.313033         446.861         360.552 
       0.319153         439.113         348.493 
       0.325316         428.522         336.581 
        0.33145         417.937         324.769 
       0.337538          403.13         313.082 
       0.343633         390.609          301.61 
       0.349808         380.058         290.445 
       0.355968          371.93         279.982 
       0.362074         361.635         270.376 
       0.368217         357.077         261.471 
       0.374374         349.239         253.199 
       0.380519         335.129         245.422 
       0.386598         330.155         238.051 
       0.392688         322.268         230.862 
        0.39888         314.429         223.696 
       0.405048         308.532         216.719 
       0.411186         305.718         209.974 
       0.417313         299.785         203.505 
       0.423458         291.596         197.339 
       0.429607         284.831         191.502 
       0.435692         279.703         186.048 
       0.441815         274.419         180.846 
       0.447964         267.084         175.854 
       0.454126         263.057         171.032 
       0.460267         259.723          166.38 
       0.466387          254.67         161.872 
        0.47254         251.416         157.464 
       0.478662         244.088          153.22 
       0.484765          241.16         149.144 
       0.490885          237.74         145.219 
       0.497035         234.662         141.437 
       0.503198         231.774         137.812 
       0.509342         225.607         134.345 
       0.515458         222.973         131.021 
       0.521598          217.94         127.795 
       0.527764         215.536         124.655 
       0.533884          214.83         121.634 
           0.54         209.808         118.706 
       0.546137         205.155         115.858 
       0.552299         203.537          113.09 
       0.558452         199.988         110.422 
       0.564573         198.697         107.861 
       0.570708         194.208         105.384 
       0.576825         191.565         102.996 
       0.582926         189.518         100.691 
       0.589034         186.874         98.4535 
       0.595184         185.346         96.2684 
       0.601379         181.394         94.1333 
       0.607522         178.331          92.078 
       0.613639         176.962         90.0907 
       0.619772         175.014         88.1566 
       0.625918          173.54         86.2762 
       0.632068         169.725         84.4515 
       0.638161         167.876         82.6985 
         0.6443          167.06          80.985 
       0.650464         163.913         79.3151 
       0.656582          163.04         77.7047 
       0.662703         161.332         76.1381 
       0.668861         158.107          74.605 
       0.675024         158.113         73.1124 
       0.681124         155.603         71.6755 
       0.687237         153.373         70.2746 
       0.693381         152.321         68.9052 
       0.699536         150.427         67.5706 
       0.705665         148.525         66.2779 
       0.711789         146.751         65.0206 
       0.717957         145.202         63.7878 
        0.72409         144.069         62.5939 
       0.730186         143.652         61.4379 
       0.736317         141.166         60.3049 
       0.742472          139.35         59.1962 
       0.748622          137.27         58.1166 
        0.75476         137.503         57.0663 
       0.760888         136.186         56.0437 
       0.767043         133.829         55.0424 
       0.773185         132.404         54.0679 
       0.779291          130.89         53.1226 
       0.785407         129.724         52.1989 
       0.791564         129.072         51.2914 
       0.797719         127.414         50.4062 
       0.803834         126.969         49.5475 
       0.809972         126.106         48.7059 
       0.816124          124.37         47.8821 
       0.822261         123.066         47.0796 
       0.828378         122.846         46.2981 
       0.834502         120.869         45.5337 
       0.840667         120.344         44.7817 
       0.846816         119.245         44.0489 
       0.852925         117.949         43.3373 
       0.859047         117.186         42.6399 
       0.865192         116.055         41.9557 
       0.871341         114.798         41.2862 
       0.877463          114.03         40.6343 
       0.883569         113.818         39.9983 
       0.889708         112.806         39.3728 
       0.895864         111.728          38.759 
       0.902008           110.7         38.1598 
       0.908149         109.278         37.5736 
       0.914301         109.292         36.9988 
       0.920448         108.706         36.4367 
       0.926574         106.715         35.8883 
       0.932687         106.586         35.3524 
       0.938823         105.706         34.8255 
       0.944975         104.519         34.3082 
       0.951105         103.708         33.8034 
       0.957225         103.622         33.3096 
       0.963368         102.391         32.8241 
       0.969511         101.585         32.3482 
       0.975621         100.764         31.8844 
       0.981748         99.9121         31.4285 
       0.987916         99.3073         30.9787 
        0.99406         98.8926         30.5395 
        1.00019         97.7366         30.1096 
        1.00632         97.1605         29.6885 
        1.01246          96.513         29.2748 
        1.01859         96.0649         28.8697 
        1.02471         95.1812         28.4728 
        1.03085         94.3574          28.082 
        1.03698         93.8032         27.6993 
        1.04314         93.1266         27.3223 
        1.04929         92.7404         26.9531 
        1.05541         92.0633         26.5922 
        1.06154         91.5028         26.2371 
        1.06769         90.6422          25.888 
        1.07382         89.9078         25.5464 
        1.07993         89.6252         25.2117 
        1.08607          88.862         24.8817 
        1.09222          88.604         24.5573 
        1.09836         87.6516         24.2391 
        1.10449         87.2124         23.9269 
        1.11063         86.5709         23.6199 
        1.11677         86.0873         23.3183 
         1.1229         85.3772         23.0226 
        1.12903         85.1213         22.7318 
        1.13518         84.7186         22.4458 
        1.14131         84.0037         22.1649 
        1.14745          83.403         21.8889 
        1.15359         82.4799         21.6177 
        1.15973         82.4023         21.3509 
        1.16584         81.8332         21.0898 
        1.17197         81.2078         20.8328 
        1.17811          80.709         20.5792 
        1.18424         79.9725         20.3306 
        1.19038         79.9429         20.0854 
        1.19652         79.4017         19.8444 
        1.20267         78.7776         19.6073 
        1.20881         78.3074         19.3742 
        1.21495         77.9144         19.1452 
        1.22108         77.5589           18.92 
         1.2272         76.8043         18.6989 
        1.23334         76.5619         18.4809 
        1.23949         76.0638         18.2658 
        1.24562         75.4762         18.0548 
        1.25174         75.0278         17.8474 
        1.25789         75.0305         17.6426 
        1.26402         74.3326         17.4414 
        1.27014         74.0048         17.2439 
        1.27628           73.32         17.0488 
        1.28244         73.1348         16.8564 
        1.28858         72.6678         16.6672 
        1.29471          72.262         16.4814 
        1.30084         71.6117         16.2985 
        1.30697         71.6562         16.1182 
        1.31312         71.0114         15.9403 
        1.31925         70.5424         15.7657 
        1.32537         70.1802         15.5938 
        1.33151         69.9349         15.4239 
        1.33765         69.4352         15.2567 
        1.34378         69.1688         15.0923 
        1.34992         68.7714         14.9301 
        1.35606         68.2839         14.7701 
         1.3622         68.0077         14.6126 
        1.36833         67.5023         14.4578 
        1.37445         66.9655         14.3054 
        1.38059         66.8791         14.1547 
        1.38675         66.1635         14.0058 
        1.39288         66.1896         13.8596 
        1.39901         65.5494         13.7156 
        1.40515          65.342         13.5734 
         1.4113         65.1256         13.4332 
        1.41742          64.696         13.2955 
        1.42355         64.3034         13.1595 
         1.4297         63.9562          13.025 
        1.43585         63.5241         12.8924 
        1.44198         63.1878         12.7622 
        1.44809         62.8184          12.634 
        1.45423          62.539         12.5071 
        1.46036         62.1492         12.3822 
        1.46649         62.0005         12.2589 
        1.47263          61.615         12.1373 
        1.47877         61.3716         12.0173 
        1.48491         61.0302         11.8988 
        1.49104         60.5042         11.7821 
        1.49718         60.3031         11.6669 
        1.50333         60.0155          11.553 
        1.50947         59.7232         11.4409 
         1.5156         59.4699         11.3305 
        1.52172         59.0367         11.2215 
        1.52787         58.6871         11.1137 
          1.534         58.4828         11.0075 
        1.54013         58.2911         10.9028 
        1.54627          57.731         10.7992 
        1.55241         57.4594          10.697 
        1.55855         57.3334         10.5963 
        1.56467          56.844         10.4971 
         1.5708         56.7466         10.3989 
        1.57695          56.394         10.3018 
        1.58308         56.0427         10.2062 
        1.58922         55.7872         10.1117 
        1.59535         55.6174         10.0185 
         1.6015         55.5313         9.92631 
        1.60764         55.1125         9.83533 
        1.61376         54.7612         9.74573 
        1.61989         54.3837         9.65719 
        1.62604         54.1968         9.56954 
        1.63218         53.9225         9.48304 
        1.63831         53.7617         9.39781 
        1.64444         53.4514         9.31359 
        1.65059         53.2189         9.23021 
        1.65673         52.8199         9.14794 
        1.66285         52.7069          9.0669 
        1.66898         52.2015         8.98682 
        1.67512         52.1217         8.90755 
        1.68127         51.8544         8.82916 
         1.6874         51.5437         8.75189 
        1.69353         51.4007         8.67559 
        1.69967         51.1815         8.60003 
        1.70581         50.8153         8.52539 
        1.71193          50.586         8.45192 
        1.71806         50.3456         8.37916 
        1.72421         50.1439         8.30711 
        1.73035         49.8976         8.23599 
        1.73649         49.5574         8.16571 
        1.74262          49.225         8.09631 
        1.74876         49.1532         8.02767 
        1.75489         48.8126         7.95997 
        1.76101         48.5997         7.89307 
        1.76715          48.584         7.82685 
        1.77329         48.0534          7.7613 
        1.77943         48.0587         7.69647 
        1.78557         47.8181         7.63249 
        1.79171         47.5447         7.56921 
        1.79785         47.2997         7.50665 
        1.80399         47.0563          7.4448 
        1.81012         46.8831         7.38373 
        1.81625         46.5497         7.32338 
        1.82239         46.3589         7.26361 
        1.82853         46.2166         7.20453 
        1.83466          45.937         7.14617 
        1.84078         45.7312         7.08852 
        1.84692         45.4788         7.03141 
        1.85306         45.2552         6.97485 
         1.8592         45.1372         6.91901 
        1.86533         44.8769         6.86381 
        1.87147         44.6509         6.80915 
        1.87761         44.3811         6.75506 
        1.88375          44.268         6.70162 
        1.88988         44.0843         6.64882 
        1.89601         43.8003         6.59656 
        1.90215         43.6147         6.54481 
        1.90829         43.4116         6.49365 
        1.91442         43.1721         6.44303 
        1.92056         42.9973         6.39299 
         1.9267         42.8818         6.34344 
        1.93284         42.6006         6.29438 
        1.93897         42.4904         6.24593 
        1.94509         42.1432         6.19809 
        1.95123         42.0027         6.15064 
        1.95737         41.7335         6.10365 
        1.96349         41.6534         6.05726 
        1.96964         41.4291         6.01123 
        1.97578         41.2424         5.96565 
        1.98192         41.0282         5.92064 
        1.98805         40.8262         5.87608 
        1.99419         40.6864         5.83199 
        2.00033         40.5118         5.78832 
        2.00647          40.371         5.74511 
         2.0126         40.1133         5.70241 
        2.01874         39.9023         5.66008 
        2.02488         39.7141         5.61815 
        2.03101         39.5551         5.57671 
        2.03714         39.3709         5.53573 
        2.04328          39.229         5.49512 
        2.04941         39.0056         5.45495 
        2.05554          38.885         5.41521 
        2.06167         38.6986         5.37581 
        2.06781         38.4791         5.33679 
        2.07396         38.3311         5.29811 
        2.08009         38.1842         5.25987 
        2.08622         37.9786         5.22206 
        2.09237         37.8208         5.18455 
        2.09851         37.6235         5.14739 
        2.10464         37.4328         5.11066 
        2.11077         37.3203         5.07434 
        2.11691         37.0636         5.03828 
        2.12305         36.9032         5.00258 
        2.12918         36.7818          4.9673 
        2.13531         36.6332         4.93237 
        2.14145         36.4659         4.89768 
         2.1476         36.2576         4.86329 
        2.15372         36.1822         4.82941 
        2.15985         35.9191         4.79581 
        2.16599         35.7565         4.76243 
        2.17213         35.6233         4.72941 
        2.17827         35.4477          4.6967 
         2.1844         35.2952         4.66434 
        2.19054         35.1318         4.63227 
        2.19666         34.9383         4.60055 
         2.2028         34.8214         4.56909 
        2.20893         34.6711         4.53791 
        2.21508         34.5454         4.50699 
        2.22122         34.3446         4.47635 
        2.22736         34.1389         4.44605 
        2.23349         34.0289         4.41605 
        2.23962         33.9056          4.3863 
        2.24577         33.7648          4.3568 
         2.2519          33.565         4.32761 
        2.25802         33.4482         4.29874 
        2.26417         33.2599         4.27005 
        2.27031         33.1748         4.24159 
        2.27644          33.078         4.21348 
        2.28257         32.8084         4.18562 
        2.28872         32.7694         4.15796 
        2.29486         32.5638         4.13056 
        2.30099         32.3798         4.10345 
        2.30712         32.2932         4.07658 
        2.31326         32.1297         4.04991 
         2.3194         31.9805         4.02348 
        2.32553         31.8593         3.99734 
        2.33166         31.7141         3.97144 
         2.3378         31.6023         3.94574 
        2.34394         31.4266         3.92025 
        2.35007         31.3331         3.89502 
        2.35619         31.2064         3.87005 
        2.36233         31.0084         3.84524 
        2.36848         30.8901         3.82059 
        2.37462         30.7951         3.79621 
        2.38075         30.6242         3.77206 
        2.38689         30.4817         3.74811 
        2.39303         30.4424         3.72437 
        2.39916         30.1813         3.70085 
        2.40529         30.0409         3.67754 
        2.41143         29.9757         3.65442 
        2.41757         29.8464         3.63148 
         2.4237         29.7119         3.60879 
        2.42983         29.5891         3.58628 
        2.43598         29.4611         3.56391 
        2.44211         29.3433         3.54177 
        2.44823         29.1572         3.51987 
        2.45437         29.1304         3.49809 
        2.46052          28.935         3.47647 
        2.46665         28.8005         3.45508 
        2.47279          28.619         3.43387 
        2.47892         28.5727         3.41283 
        2.48507          28.445         3.39194 
         2.4912         28.3617         3.37127 
