# k  (h/Mpc)    P(k)  (Mpc/h)^3    P_linear(k)  (Mpc/h)^3
     0.00783031         11531.7         11730.8 
       0.013688           12595         12533.7 
       0.019231         11239.5         11209.9 
      0.0249154         9028.38         9147.52 
      0.0312784          6920.4         6931.33 
      0.0375637         5336.13         5286.99 
      0.0433917         4295.44         4302.05 
      0.0492413         3743.48         3723.54 
      0.0555754         3337.32         3379.46 
      0.0619321         3186.82         3146.79 
       0.067871         2883.54         2910.68 
      0.0738098         2589.31         2607.43 
      0.0800417         2213.47            2234 
      0.0862327          1876.5         1864.68 
      0.0921407         1607.76         1566.64 
      0.0982031         1373.81         1343.95 
       0.104506         1260.89         1201.19 
       0.110769         1175.24         1126.78 
       0.116806         1123.64         1088.25 
       0.122832         1086.91         1052.84 
       0.129052         1011.51         997.735 
       0.135211          937.53         917.821 
       0.141259         861.051         822.593 
       0.147318         775.021         725.747 
       0.153489         686.546         640.262 
       0.159709         630.683         576.028 
       0.165845          594.46         534.942 
       0.171974         562.715         510.975 
       0.178125         543.867         495.989 
       0.184229         525.098         481.863 
        0.19034         492.549          462.52 
       0.196428         475.649         436.006 
       0.202534         451.596         403.908 
       0.208729         417.696         369.882 
       0.214876         388.086         339.018 
       0.220989         366.923         314.056 
       0.227147         347.582         295.524 
        0.23329         332.178         282.634 
       0.239377         324.326         273.252 
       0.245482         303.062         264.851 
       0.251667         299.649         255.422 
       0.257832         287.905         244.129 
       0.263955         275.285         231.245 
       0.270079         261.145         217.659 
        0.27624         254.222         204.518 
       0.282372         243.726          192.98 
        0.28843         233.458         183.526 
       0.294538         222.037         175.895 
       0.300721         218.853         169.586 
        0.30691         208.707         164.001 
       0.313033         203.529         158.543 
       0.319153         195.037         152.773 
       0.325316         190.014         146.543 
        0.33145         182.325         140.119 
       0.337538         178.482         133.824 
       0.343633         171.454         127.936 
       0.349808         165.248         122.578 
       0.355968          162.08         117.917 
       0.362074         157.878          113.86 
       0.368217          153.05         110.173 
       0.374374         147.209         106.677 
       0.380519         144.796         103.217 
       0.386598         140.792         99.7679 
       0.392688         138.049         96.2812 
        0.39888         134.297         92.7753 
       0.405048         130.345         89.4208 
       0.411186         127.297          86.284 
       0.417313         124.223         83.3928 
       0.423458         121.225         80.7364 
       0.429607         118.429         78.2693 
       0.435692         114.383          75.965 
       0.441815         113.146         73.7352 
       0.447964         110.741         71.5431 
       0.454126         106.056         69.3774 
       0.460267         104.571         67.2657 
       0.466387         102.926         65.2241 
        0.47254         100.297         63.2519 
       0.478662         99.6015          61.387 
       0.484765         96.0463         59.6347 
       0.490885         94.4155         57.9728 
       0.497035         93.0014         56.3819 
       0.503198         90.3773         54.8533 
       0.509342         88.8223         53.3824 
       0.515458         87.2883         51.9608 
       0.521598         85.5114         50.5689 
       0.527764         84.4088         49.2104 
       0.533884         83.0727         47.9075 
           0.54         81.2226          46.656 
       0.546137         80.3619          45.451 
       0.552299         78.8255         44.2898 
       0.558452         77.2612         43.1766 
       0.564573         75.9052         42.1117 
       0.570708         74.4307         41.0824 
       0.576825          73.512         40.0895 
       0.582926         71.7807         39.1283 
       0.589034         70.7261         38.1928 
       0.595184         69.6908          37.279 
       0.601379         68.4252         36.3882 
       0.607522         67.0832         35.5348 
       0.613639         66.5535         34.7146 
       0.619772         65.1922         33.9201 
       0.625918         64.2116           33.15 
       0.632068         63.4136         32.4037 
       0.638161         62.6828         31.6868 
         0.6443         61.8032          30.986 
       0.650464         61.0958         30.3036 
       0.656582         59.9169         29.6464 
       0.662703         58.9422         29.0083 
       0.668861         58.0164         28.3852 
       0.675024         57.3672         27.7799 
       0.681124         56.6924         27.1983 
       0.687237         55.5178         26.6323 
       0.693381         54.8073         26.0799 
       0.699536         54.2443         25.5424 
       0.705665          54.056         25.0224 
       0.711789         52.8528         24.5175 
       0.717957         52.4155         24.0232 
        0.72409         51.4553         23.5454 
       0.730186         50.6838         23.0834 
       0.736317         50.4648         22.6312 
       0.742472         49.8626         22.1895 
       0.748622          49.136           21.76 
        0.75476         48.6351         21.3427 
       0.760888         47.9258         20.9371 
       0.767043         47.4638         20.5403 
       0.773185           46.87         20.1546 
       0.779291         46.2823         19.7811 
       0.785407         45.8714         19.4165 
       0.791564         45.5246         19.0588 
       0.797719         44.5476         18.7103 
       0.803834         44.3297         18.3727 
       0.809972         43.5778         18.0423 
       0.816124          43.255         17.7193 
       0.822261         42.8856          17.405 
       0.828378         42.5964         17.0994 
       0.834502         42.0377         16.8008 
       0.840667         41.5389         16.5075 
       0.846816         40.9445         16.2219 
       0.852925          40.626          15.945 
       0.859047         40.0491         15.6739 
       0.865192         39.7993         15.4082 
       0.871341         39.4699         15.1485 
       0.877463         38.7939         14.8959 
       0.883569         38.5708         14.6497 
       0.889708         38.2016         14.4078 
       0.895864         37.8788         14.1708 
       0.902008         37.5071         13.9396 
       0.908149          37.176         13.7136 
       0.914301         36.8118         13.4923 
       0.920448         36.5391         13.2761 
       0.926574         36.0478         13.0654 
       0.932687         35.9179         12.8597 
       0.938823         35.4027         12.6576 
       0.944975         35.0719         12.4595 
       0.951105         34.7513         12.2663 
       0.957225         34.3622         12.0775 
       0.963368         34.2495         11.8921 
       0.969511         33.9355         11.7105 
       0.975621         33.7585         11.5338 
       0.981748          33.289         11.3602 
       0.987916         32.9545          11.189 
        0.99406         32.7902         11.0221 
        1.00019         32.4727         10.8589 
        1.00632         32.2073         10.6991 
        1.01246         32.0163         10.5423 
        1.01859         31.5869         10.3889 
        1.02471         31.4285         10.2388 
        1.03085         31.1817         10.0911 
        1.03698         30.8511         9.94658 
        1.04314         30.6432          9.8043 
        1.04929         30.3676         9.66514 
        1.05541         30.0523         9.52923 
        1.06154         30.0289         9.39559 
        1.06769         29.6758         9.26431 
        1.07382         29.5364         9.13595 
        1.07993          29.326         9.01031 
        1.08607         29.0888         8.88652 
        1.09222          28.858         8.76491 
        1.09836          28.571         8.64572 
        1.10449         28.4504         8.52888 
        1.11063         28.0902         8.41406 
        1.11677         27.9326          8.3014 
         1.1229         27.7193         8.19098 
        1.12903         27.3866         8.08248 
        1.13518         27.4698         7.97584 
        1.14131         27.2194         7.87118 
        1.14745         26.8899         7.76845 
        1.15359         26.7926         7.66752 
        1.15973          26.475         7.56835 
        1.16584         26.3565         7.47137 
        1.17197         26.1648         7.37594 
        1.17811          26.042         7.28189 
        1.18424          25.805         7.18974 
        1.19038         25.6147         7.09892 
        1.19652         25.5764          7.0097 
        1.20267         25.3149         6.92201 
        1.20881         25.1674         6.83584 
        1.21495         24.9512         6.75126 
        1.22108         24.8624         6.66813 
         1.2272         24.5645         6.58659 
        1.23334         24.4548         6.50622 
        1.23949         24.4185           6.427 
        1.24562         24.1006         6.34932 
        1.25174          24.045         6.27303 
        1.25789         23.9043         6.19776 
        1.26402         23.6477         6.12386 
        1.27014         23.5087         6.05134 
        1.27628         23.3301         5.97978 
        1.28244         23.2724         5.90923 
        1.28858          23.113         5.83991 
        1.29471         23.0073         5.77185 
        1.30084          22.855         5.70494 
        1.30697         22.7179         5.63898 
        1.31312         22.5593         5.57397 
        1.31925         22.3952         5.51018 
        1.32537         22.2602         5.44744 
        1.33151         22.1286         5.38546 
        1.33765         22.0145         5.32447 
        1.34378         21.8741         5.26454 
        1.34992         21.7227         5.20549 
        1.35606         21.6097         5.14721 
         1.3622         21.5309         5.08993 
        1.36833         21.3372         5.03365 
        1.37445         21.2507         4.97824 
        1.38059         21.0972          4.9235 
        1.38675         20.9006         4.86945 
        1.39288         20.8798         4.81642 
        1.39901         20.7521          4.7642 
        1.40515          20.606         4.71264 
         1.4113         20.4746         4.66186 
        1.41742         20.4017         4.61201 
        1.42355         20.2826          4.5628 
         1.4297         20.1785         4.51416 
        1.43585          20.109         4.46624 
        1.44198         19.8921          4.4192 
        1.44809         19.8386         4.37292 
        1.45423         19.7175         4.32713 
        1.46036         19.6654         4.28208 
        1.46649          19.513         4.23765 
        1.47263          19.395         4.19381 
        1.47877         19.3321         4.15061 
        1.48491         19.3144         4.10795 
        1.49104         19.0912         4.06598 
        1.49718          18.964         4.02456 
        1.50333         18.9681         3.98365 
        1.50947         18.8175         3.94339 
         1.5156         18.7374         3.90374 
        1.52172         18.6707         3.86463 
        1.52787         18.5332         3.82598 
          1.534          18.451          3.7879 
        1.54013         18.3205         3.75038 
        1.54627         18.2726         3.71329 
        1.55241         18.0919          3.6767 
        1.55855         18.0569         3.64065 
        1.56467         17.9064         3.60518 
         1.5708         17.9237         3.57008 
        1.57695          17.777          3.5354 
        1.58308         17.6583         3.50125 
        1.58922         17.6074         3.46753 
        1.59535         17.5245         3.43426 
         1.6015         17.3998         3.40138 
        1.60764         17.3228         3.36895 
        1.61376         17.2045         3.33703 
        1.61989         17.1509         3.30549 
        1.62604         17.0965         3.27428 
        1.63218         17.0214          3.2435 
        1.63831         16.8982         3.21318 
        1.64444         16.8302         3.18324 
        1.65059         16.7538          3.1536 
        1.65673         16.6531         3.12437 
        1.66285         16.6266         3.09559 
        1.66898         16.5172         3.06717 
        1.67512         16.4467         3.03904 
        1.68127         16.3484         3.01124 
         1.6874         16.2544         2.98385 
        1.69353         16.2108         2.95681 
        1.69967         16.1199         2.93004 
        1.70581          16.044         2.90362 
        1.71193         16.0014         2.87761 
        1.71806         15.8751         2.85187 
        1.72421          15.814          2.8264 
        1.73035         15.7217         2.80126 
        1.73649         15.6938         2.77643 
        1.74262         15.6162         2.75192 
        1.74876         15.5592         2.72768 
        1.75489         15.4681         2.70379 
        1.76101         15.4082         2.68019 
        1.76715         15.3278         2.65684 
        1.77329         15.3015         2.63374 
        1.77943         15.2257          2.6109 
        1.78557         15.1131         2.58836 
        1.79171         15.0328         2.56608 
        1.79785         14.9756         2.54406 
        1.80399         14.9572          2.5223 
        1.81012         14.8624         2.50083 
        1.81625         14.8236         2.47961 
        1.82239         14.7201         2.45861 
        1.82853         14.6678         2.43785 
        1.83466         14.6168         2.41736 
        1.84078         14.4983         2.39712 
        1.84692         14.4732         2.37708 
        1.85306         14.4213         2.35725 
         1.8592         14.3362         2.33767 
        1.86533         14.2839         2.31832 
        1.87147          14.245         2.29917 
        1.87761         14.1774         2.28022 
        1.88375         14.1153         2.26151 
        1.88988           14.05         2.24303 
        1.89601         14.0073         2.22474 
        1.90215         13.9399         2.20665 
        1.90829         13.8653         2.18876 
        1.91442         13.8161         2.17106 
        1.92056         13.7637         2.15358 
         1.9267         13.6987         2.13627 
        1.93284         13.6136         2.11914 
        1.93897         13.5959         2.10223 
        1.94509         13.5244         2.08553 
        1.95123         13.4873         2.06898 
        1.95737         13.4123         2.05259 
        1.96349         13.3715         2.03643 
        1.96964         13.3183         2.02038 
        1.97578          13.228         2.00451 
        1.98192         13.1766         1.98883 
        1.98805          13.151         1.97332 
        1.99419         13.0917         1.95798 
        2.00033         13.0064         1.94279 
        2.00647         12.9679         1.92776 
         2.0126         12.9165         1.91292 
        2.01874         12.8673         1.89821 
        2.02488          12.828         1.88364 
        2.03101         12.7783         1.86924 
        2.03714         12.7246         1.85502 
        2.04328         12.6596         1.84092 
        2.04941         12.6125         1.82698 
        2.05554          12.564         1.81319 
        2.06167         12.5131         1.79953 
        2.06781         12.4656         1.78601 
        2.07396         12.4343          1.7726 
        2.08009         12.3836         1.75935 
        2.08622         12.2882         1.74626 
        2.09237         12.2846         1.73327 
        2.09851          12.227         1.72041 
        2.10464         12.1452          1.7077 
        2.11077         12.1322         1.69513 
        2.11691         12.0849         1.68266 
        2.12305          12.052         1.67032 
        2.12918         11.9858         1.65813 
        2.13531         11.9601         1.64606 
        2.14145         11.9042         1.63408 
         2.1476         11.8553          1.6222 
        2.15372         11.7926          1.6105 
        2.15985         11.7532         1.59891 
        2.16599         11.7134         1.58739 
        2.17213          11.658           1.576 
        2.17827          11.609         1.56473 
         2.1844         11.5471         1.55357 
        2.19054         11.5478         1.54252 
        2.19666         11.5052         1.53159 
         2.2028         11.4413         1.52076 
        2.20893            11.4         1.51002 
        2.21508         11.3599         1.49938 
        2.22122         11.2662         1.48883 
        2.22736         11.2662         1.47841 
        2.23349         11.2389         1.46809 
        2.23962         11.1987         1.45786 
        2.24577         11.1368         1.44772 
         2.2519         11.0991         1.43769 
        2.25802          11.052         1.42777 
        2.26417         11.0229         1.41792 
        2.27031         10.9599         1.40815 
        2.27644         10.9447          1.3985 
        2.28257         10.8908         1.38894 
        2.28872         10.8434         1.37945 
        2.29486          10.819         1.37005 
        2.30099         10.7719         1.36075 
        2.30712         10.7341         1.35154 
        2.31326         10.6954          1.3424 
         2.3194         10.6612         1.33335 
        2.32553         10.6218         1.32439 
        2.33166         10.5708         1.31552 
         2.3378         10.5448         1.30672 
        2.34394          10.499           1.298 
        2.35007         10.4679         1.28937 
        2.35619         10.4263         1.28082 
        2.36233          10.379         1.27234 
        2.36848         10.3578         1.26391 
        2.37462         10.3087         1.25557 
        2.38075         10.2657         1.24732 
        2.38689          10.237         1.23914 
        2.39303         10.1951         1.23103 
        2.39916         10.1691           1.223 
        2.40529         10.1492         1.21504 
        2.41143            10.1         1.20715 
        2.41757         10.0528         1.19932 
         2.4237         10.0236         1.19158 
        2.42983         9.97939          1.1839 
        2.43598         9.95658         1.17627 
        2.44211         9.91637         1.16872 
        2.44823         9.88869         1.16126 
        2.45437         9.84667         1.15384 
        2.46052         9.80662         1.14647 
        2.46665         9.78808         1.13919 
        2.47279         9.74671         1.13197 
        2.47892          9.7092          1.1248 
        2.48507         9.66638          1.1177 
         2.4912          9.6438         1.11066 
