# k  (h/Mpc)    P(k)  (Mpc/h)^3    P_linear(k)  (Mpc/h)^3
     0.00783031         3727.62         3778.51 
       0.013688         4448.14         4443.39 
       0.019231         4333.52         4329.68 
      0.0249154         3837.52         3871.89 
      0.0312784         3253.48         3259.49 
      0.0375637         2742.59         2732.47 
      0.0433917         2360.75         2369.73 
      0.0492413         2119.24         2118.12 
      0.0555754         1911.27         1929.93 
      0.0619321         1789.03         1777.73 
       0.067871         1622.88         1634.14 
      0.0738098         1466.44         1476.48 
      0.0800417         1288.86         1302.44 
      0.0862327         1135.37         1138.32 
      0.0921407         1009.96         1005.29 
      0.0982031         900.582         900.447 
       0.104506         836.686         823.905 
       0.110769         781.258         771.624 
       0.116806         735.557         732.216 
       0.122832         700.685         693.627 
       0.129052         648.825         648.436 
       0.135211         599.982         597.642 
       0.141259         554.673          545.55 
       0.147318         509.306         496.353 
       0.153489         463.976         453.656 
       0.159709         432.872          420.12 
       0.165845         412.485         395.622 
       0.171974         389.238         377.071 
       0.178125         373.513         361.107 
       0.184229         358.132         345.101 
        0.19034         334.385         327.395 
       0.196428         320.649         308.054 
       0.202534         304.841         288.055 
       0.208729         284.335         268.725 
       0.214876         265.992         251.793 
       0.220989         255.141         237.764 
       0.227147         240.899         226.304 
        0.23329         231.227         216.826 
       0.239377          224.41         208.436 
       0.245482         211.501           200.2 
       0.251667         206.544         191.555 
       0.257832         198.001         182.575 
       0.263955         189.103         173.564 
       0.270079         180.629         164.881 
        0.27624         175.342         156.858 
       0.282372         168.131         149.781 
        0.28843         161.129         143.677 
       0.294538         154.596         138.231 
       0.300721         151.587          133.19 
        0.30691         144.725         128.354 
       0.313033         140.341         123.622 
       0.319153         133.744         118.884 
       0.325316         130.922         114.165 
        0.33145         125.647         109.615 
       0.337538         122.651         105.355 
       0.343633         118.097         101.407 
       0.349808         114.408          97.746 
       0.355968          111.56         94.3886 
       0.362074         108.054         91.2825 
       0.368217         104.842         88.3084 
       0.374374         101.654         85.4162 
       0.380519          99.172         82.5976 
       0.386598         96.3493         79.8736 
       0.392688         94.3405         77.2307 
        0.39888         91.5654         74.6604 
       0.405048         89.2254         72.2348 
       0.411186         87.0959         69.9614 
       0.417313         84.5246         67.8255 
       0.423458         82.4404         65.7954 
       0.429607         80.3037         63.8552 
       0.435692         77.6116         62.0083 
       0.441815         76.6641         60.2079 
       0.447964         75.2875         58.4545 
       0.454126         71.9661         56.7564 
       0.460267         70.9565         55.1268 
       0.466387         69.2458         53.5686 
        0.47254         67.9952         52.0704 
       0.478662         66.9586         50.6475 
       0.484765         64.9378         49.2895 
       0.490885         63.5955         47.9815 
       0.497035         62.7618          46.715 
       0.503198         60.9838         45.4902 
       0.509342          59.484          44.309 
       0.515458         58.4146         43.1707 
       0.521598         57.5007         42.0662 
       0.527764          56.408         40.9962 
       0.533884         55.4621         39.9733 
           0.54         54.2303         38.9885 
       0.546137         53.5334         38.0354 
       0.552299         52.6946         37.1122 
       0.558452         51.1708         36.2221 
       0.564573         50.2813         35.3657 
       0.570708         49.5765         34.5346 
       0.576825         48.5833         33.7316 
       0.582926         47.5604         32.9555 
       0.589034         46.4787         32.2028 
       0.595184         45.8972          31.469 
       0.601379         45.1514          30.754 
       0.607522         44.1171         30.0677 
       0.613639         43.8691         29.4057 
       0.619772         42.7734         28.7623 
       0.625918         42.4637          28.137 
       0.632068         41.8305           27.53 
       0.638161         41.0845         26.9463 
         0.6443         40.3525         26.3754 
       0.650464         39.7112         25.8191 
       0.656582         39.3707         25.2829 
       0.662703         38.5651         24.7619 
       0.668861         37.9774         24.2528 
       0.675024         37.3922         23.7577 
       0.681124          36.747         23.2815 
       0.687237         36.1035         22.8176 
       0.693381         35.8308         22.3643 
       0.699536         35.0176         21.9226 
       0.705665         35.0808         21.4949 
       0.711789         34.1697         21.0791 
       0.717957         33.7687         20.6715 
        0.72409         33.3167          20.277 
       0.730186         32.7933         19.8953 
       0.736317          32.539         19.5213 
       0.742472         31.9663         19.1557 
       0.748622         31.6864         18.7998 
        0.75476          31.209         18.4538 
       0.760888         30.7111         18.1171 
       0.767043         30.3629         17.7875 
       0.773185         29.8998         17.4668 
       0.779291          29.756         17.1559 
       0.785407         29.4399         16.8522 
       0.791564          28.921          16.554 
       0.797719         28.3091         16.2632 
       0.803834         28.2718         15.9812 
       0.809972         27.9329          15.705 
       0.816124         27.3816         15.4347 
       0.822261         27.1589         15.1716 
       0.828378         26.9553         14.9154 
       0.834502         26.6418         14.6649 
       0.840667         26.3234         14.4187 
       0.846816         25.8855         14.1788 
       0.852925         25.6573         13.9459 
       0.859047         25.3548         13.7177 
       0.865192          25.106          13.494 
       0.871341         24.9712         13.2751 
       0.877463         24.4821         13.0621 
       0.883569          24.238         12.8543 
       0.889708         23.9706           12.65 
       0.895864         23.7498         12.4497 
       0.902008         23.5594         12.2541 
       0.908149         23.3081         12.0629 
       0.914301          23.226         11.8754 
       0.920448         22.7873         11.6922 
       0.926574         22.6031         11.5134 
       0.932687         22.3593         11.3389 
       0.938823         22.0574         11.1673 
       0.944975         21.9018         10.9989 
       0.951105         21.6926         10.8346 
       0.957225         21.4417         10.6739 
       0.963368         21.3497          10.516 
       0.969511         21.1326         10.3613 
       0.975621         20.9598         10.2105 
       0.981748         20.6488         10.0624 
       0.987916         20.5426         9.91625 
        0.99406         20.3136         9.77359 
        1.00019         20.0665         9.63404 
        1.00632         19.9583         9.49735 
        1.01246          19.828         9.36312 
        1.01859         19.5063         9.23171 
        1.02471         19.4665         9.10299 
        1.03085         19.2816         8.97629 
        1.03698         18.9686         8.85228 
        1.04314         18.8608         8.73009 
        1.04929         18.6658          8.6105 
        1.05541         18.4715         8.49363 
        1.06154         18.3852         8.37866 
        1.06769         18.2683         8.26564 
        1.07382         18.0591         8.15509 
        1.07993         17.9607         8.04681 
        1.08607         17.7317         7.94007 
        1.09222           17.65         7.83515 
        1.09836         17.4329         7.73227 
        1.10449         17.3272         7.63136 
        1.11063         17.1181         7.53214 
        1.11677         17.0666         7.43473 
         1.1229         16.9698         7.33921 
        1.12903         16.7443          7.2453 
        1.13518         16.5805         7.15295 
        1.14131         16.5397         7.06228 
        1.14745         16.3902         6.97323 
        1.15359         16.3037          6.8857 
        1.15973         16.1239         6.79965 
        1.16584         15.9259         6.71546 
        1.17197         15.9243         6.63258 
        1.17811         15.7304         6.55085 
        1.18424         15.6067         6.47074 
        1.19038         15.5515         6.39174 
        1.19652         15.4253         6.31409 
        1.20267         15.2968         6.23774 
        1.20881         15.2009         6.16267 
        1.21495          15.104         6.08895 
        1.22108         14.9612         6.01646 
         1.2272         14.8247         5.94532 
        1.23334         14.7505         5.87517 
        1.23949         14.6056         5.80599 
        1.24562         14.5536         5.73811 
        1.25174         14.4628         5.67143 
        1.25789         14.3375         5.60561 
        1.26402         14.2871         5.54095 
        1.27014         14.1305         5.47747 
        1.27628         13.9927         5.41479 
        1.28244          13.943         5.35298 
        1.28858         13.9007         5.29221 
        1.29471         13.7636         5.23252 
        1.30084         13.6476         5.17381 
        1.30697         13.5718         5.11592 
        1.31312         13.4344         5.05882 
        1.31925         13.3491         5.00278 
        1.32537         13.3117         4.94764 
        1.33151         13.1983         4.89314 
        1.33765         13.1296          4.8395 
        1.34378         13.0495         4.78676 
        1.34992         12.9015         4.73478 
        1.35606         12.8843         4.68346 
         1.3622         12.8003         4.63299 
        1.36833           12.68         4.58339 
        1.37445         12.6484         4.53454 
        1.38059         12.5494         4.48626 
        1.38675         12.4121         4.43856 
        1.39288         12.3944         4.39175 
        1.39901         12.2895         4.34564 
        1.40515         12.2365         4.30008 
         1.4113          12.144          4.2552 
        1.41742         12.0546         4.21113 
        1.42355         11.9971         4.16761 
         1.4297         11.9501         4.12457 
        1.43585         11.8953         4.08215 
        1.44198         11.7927          4.0405 
        1.44809         11.7273         3.99951 
        1.45423         11.6551         3.95893 
        1.46036         11.5894         3.91899 
        1.46649         11.5385         3.87959 
        1.47263         11.4342          3.8407 
        1.47877         11.3769         3.80236 
        1.48491         11.3359         3.76448 
        1.49104         11.2781          3.7272 
        1.49718         11.1912         3.69039 
        1.50333         11.1435         3.65403 
        1.50947         11.0751         3.61822 
         1.5156         10.9904         3.58295 
        1.52172         10.9489         3.54815 
        1.52787         10.8869         3.51375 
          1.534         10.8069         3.47984 
        1.54013         10.7338         3.44642 
        1.54627         10.6752         3.41337 
        1.55241         10.6314         3.38075 
        1.55855         10.5706         3.34861 
        1.56467         10.5078         3.31697 
         1.5708         10.4994         3.28565 
        1.57695         10.4015         3.25469 
        1.58308         10.3558          3.2242 
        1.58922         10.3067         3.19408 
        1.59535         10.2507         3.16436 
         1.6015         10.1757         3.13497 
        1.60764         10.1262         3.10597 
        1.61376         10.0954         3.07742 
        1.61989         10.0117          3.0492 
        1.62604         9.99888         3.02128 
        1.63218         9.93323         2.99372 
        1.63831         9.89288         2.96657 
        1.64444         9.80812         2.93974 
        1.65059         9.75791         2.91319 
        1.65673         9.74797         2.88699 
        1.66285         9.64713         2.86119 
        1.66898         9.63361         2.83569 
        1.67512         9.58506         2.81046 
        1.68127         9.53175         2.78551 
         1.6874         9.48016         2.76092 
        1.69353         9.41736         2.73664 
        1.69967         9.38575         2.71259 
        1.70581         9.34724         2.68885 
        1.71193         9.28097         2.66548 
        1.71806         9.25384         2.64233 
        1.72421         9.19333         2.61942 
        1.73035          9.1577          2.5968 
        1.73649         9.11983         2.57445 
        1.74262         9.08405         2.55239 
        1.74876         9.04527         2.53057 
        1.75489         8.99321         2.50905 
        1.76101         8.92527         2.48778 
        1.76715         8.92352         2.46673 
        1.77329         8.84332          2.4459 
        1.77943         8.80629         2.42531 
        1.78557         8.79016         2.40498 
        1.79171         8.75455         2.38488 
        1.79785         8.68011           2.365 
        1.80399          8.6522         2.34536 
        1.81012          8.6266         2.32596 
        1.81625         8.57217          2.3068 
        1.82239         8.53581         2.28782 
        1.82853          8.4801         2.26906 
        1.83466          8.4452         2.25053 
        1.84078          8.3979         2.23223 
        1.84692         8.38538          2.2141 
        1.85306         8.33447         2.19615 
         1.8592         8.29503         2.17843 
        1.86533         8.27178         2.16092 
        1.87147         8.23105         2.14357 
        1.87761         8.20323         2.12641 
        1.88375         8.13253         2.10946 
        1.88988         8.13656         2.09271 
        1.89601         8.08999         2.07613 
        1.90215         8.04388         2.05972 
        1.90829         8.00918          2.0435 
        1.91442         7.97535         2.02744 
        1.92056          7.9482         2.01158 
         1.9267         7.91157         1.99587 
        1.93284         7.86438         1.98031 
        1.93897         7.82751         1.96496 
        1.94509          7.7999         1.94979 
        1.95123         7.77574         1.93475 
        1.95737         7.74115         1.91986 
        1.96349         7.70948         1.90516 
        1.96964         7.66213         1.89057 
        1.97578         7.63464         1.87613 
        1.98192         7.59974         1.86187 
        1.98805         7.58109         1.84776 
        1.99419         7.53891         1.83379 
        2.00033         7.51863         1.81996 
        2.00647          7.4842         1.80627 
         2.0126         7.44425         1.79275 
        2.01874         7.41838         1.77935 
        2.02488         7.37396         1.76607 
        2.03101         7.36197         1.75295 
        2.03714         7.32055         1.73998 
        2.04328         7.30051         1.72712 
        2.04941         7.24983          1.7144 
        2.05554           7.244         1.70183 
        2.06167         7.19717         1.68936 
        2.06781         7.18687         1.67701 
        2.07396         7.16147         1.66477 
        2.08009         7.12959         1.65267 
        2.08622         7.07501         1.64071 
        2.09237         7.07482         1.62884 
        2.09851         7.04775         1.61708 
        2.10464         7.00744         1.60547 
        2.11077         6.96846         1.59398 
        2.11691         6.94418         1.58257 
        2.12305         6.92338         1.57128 
        2.12918          6.9022         1.56013 
        2.13531         6.87269         1.54908 
        2.14145         6.84614         1.53811 
         2.1476         6.82192         1.52724 
        2.15372         6.79509         1.51652 
        2.15985         6.77266          1.5059 
        2.16599         6.74458         1.49535 
        2.17213         6.71954         1.48491 
        2.17827         6.69785         1.47458 
         2.1844         6.66826         1.46435 
        2.19054         6.62547         1.45422 
        2.19666         6.61808         1.44419 
         2.2028         6.59005         1.43425 
        2.20893         6.57424          1.4244 
        2.21508         6.53528         1.41463 
        2.22122         6.50697         1.40495 
        2.22736         6.49167         1.39538 
        2.23349         6.45684          1.3859 
        2.23962         6.44939         1.37651 
        2.24577         6.41395         1.36719 
         2.2519         6.39925         1.35797 
        2.25802         6.36729         1.34886 
        2.26417         6.34747          1.3398 
        2.27031         6.31463         1.33081 
        2.27644         6.29672         1.32193 
        2.28257         6.27403         1.31314 
        2.28872         6.25235         1.30441 
        2.29486         6.23203         1.29576 
        2.30099         6.22059          1.2872 
        2.30712         6.19037         1.27872 
        2.31326         6.15748          1.2703 
         2.3194         6.13707         1.26196 
        2.32553         6.12324         1.25371 
        2.33166         6.09561         1.24554 
         2.3378         6.07343         1.23743 
        2.34394         6.05459         1.22939 
        2.35007         6.02716         1.22143 
        2.35619         6.00273         1.21355 
        2.36233         5.98225         1.20572 
        2.36848         5.97098         1.19794 
        2.37462         5.94921         1.19025 
        2.38075         5.92344         1.18264 
        2.38689         5.90346         1.17508 
        2.39303         5.87827         1.16759 
        2.39916         5.86397         1.16018 
        2.40529         5.84536         1.15283 
        2.41143         5.81848         1.14554 
        2.41757         5.81489         1.13831 
         2.4237         5.78675         1.13115 
        2.42983         5.76289         1.12405 
        2.43598         5.75439           1.117 
        2.44211         5.72376         1.11002 
        2.44823         5.70883         1.10312 
        2.45437         5.69401         1.09625 
        2.46052         5.66231         1.08944 
        2.46665          5.6476          1.0827 
        2.47279         5.62158         1.07601 
        2.47892         5.60229         1.06938 
        2.48507         5.58542          1.0628 
         2.4912         5.56555         1.05628 
