# k  (h/Mpc)    Pcb(k)  (Mpc/h)^3    Pcb_linear(k)  (Mpc/h)^3
     0.00783031         145.734         146.828 
       0.013688           183.1         184.431 
       0.019231         189.993         190.498 
      0.0249154         180.212         180.385 
      0.0312784         160.967          161.02 
      0.0375637         141.433         141.484 
      0.0433917         126.632         126.445 
      0.0492413          115.01         114.989 
      0.0555754         105.932         105.776 
      0.0619321         97.9528         98.2272 
       0.067871         91.3239         91.3848 
      0.0738098         84.0611         84.0879 
      0.0800417         76.0512         75.9846 
      0.0862327         68.0655         68.0503 
      0.0921407         61.2332          61.232 
      0.0982031         55.5443         55.4507 
       0.104506         50.8053         50.8613 
       0.110769         47.4533         47.5028 
       0.116806          45.023         44.9785 
       0.122832         42.6501         42.7137 
       0.129052         40.2944         40.2945 
       0.135211         37.7118           37.67 
       0.141259         34.9224         34.9332 
       0.147318         32.1587         32.2209 
       0.153489          29.704         29.7032 
       0.159709         27.5983         27.5674 
       0.165845         25.8211         25.8928 
       0.171974         24.6245         24.5836 
       0.178125         23.5258         23.5035 
       0.184229         22.4934         22.5202 
        0.19034         21.5539         21.5138 
       0.196428          20.458         20.4394 
       0.202534         19.2517         19.3033 
       0.208729         18.1652         18.1495 
       0.214876         17.1388         17.0745 
       0.220989         16.1085         16.1282 
       0.227147         15.3884         15.3201 
        0.23329         14.7174         14.6465 
       0.239377         14.1453         14.0734 
       0.245482         13.6104         13.5473 
       0.251667         13.0502         13.0244 
       0.257832         12.5595         12.4907 
       0.263955          11.986         11.9459 
       0.270079         11.4413            11.4 
        0.27624         10.8863         10.8716 
       0.282372          10.409          10.385 
        0.28843         10.0212         9.95383 
       0.294538         9.62696         9.56855 
       0.300721         9.25016         9.22069 
        0.30691         8.96391         8.90037 
       0.313033         8.65018         8.59752 
       0.319153         8.39605         8.29885 
       0.325316         8.03324         7.99882 
        0.33145         7.74013         7.70249 
       0.337538         7.46651         7.41638 
       0.343633          7.2076         7.14362 
       0.349808         6.94027         6.88619 
       0.355968         6.69741         6.64939 
       0.362074         6.49797         6.43317 
       0.368217          6.2908         6.23035 
       0.374374          6.1226         6.03723 
       0.380519         5.90938         5.85111 
       0.386598         5.72054         5.67089 
       0.392688         5.53751         5.49403 
        0.39888         5.37529         5.31894 
       0.405048         5.21064         5.15073 
       0.411186          5.0467         4.99126 
       0.417313         4.90052         4.84076 
       0.423458         4.74369         4.69829 
       0.429607         4.62721         4.56357 
       0.435692         4.50463         4.43662 
       0.441815         4.37045          4.3137 
       0.447964         4.23758         4.19422 
       0.454126         4.13777           4.078 
       0.460267         4.03819         3.96538 
       0.466387         3.92229         3.85669 
        0.47254         3.82233         3.75143 
       0.478662         3.71688         3.65102 
       0.484765         3.62331         3.55513 
       0.490885         3.52421          3.4631 
       0.497035         3.42552         3.37447 
       0.503198          3.3504         3.28905 
       0.509342          3.2582         3.20674 
       0.515458         3.18802         3.12734 
       0.521598         3.11118         3.05005 
       0.527764         3.04557         2.97485 
       0.533884         2.95604         2.90258 
           0.54         2.89146         2.83274 
       0.546137         2.81619         2.76509 
       0.552299         2.75594         2.69961 
       0.558452         2.69348         2.63659 
       0.564573          2.6345         2.57601 
       0.570708         2.57516         2.51723 
       0.576825         2.51836         2.46041 
       0.582926         2.45829         2.40545 
       0.589034         2.41387         2.35206 
       0.595184         2.36418         2.29991 
       0.601379         2.30647         2.24897 
       0.607522         2.25561         2.19998 
       0.613639         2.20184         2.15268 
       0.619772         2.16437          2.1067 
       0.625918         2.11857         2.06204 
       0.632068         2.07565         2.01871 
       0.638161         2.03251         1.97703 
         0.6443         1.99033         1.93625 
       0.650464         1.95106         1.89645 
       0.656582         1.91749         1.85804 
       0.662703         1.87821         1.82066 
       0.668861         1.83321          1.7841 
       0.675024         1.80112         1.74852 
       0.681124         1.77953         1.71429 
       0.687237         1.73762         1.68093 
       0.693381         1.69783         1.64832 
       0.699536         1.67505         1.61654 
       0.705665         1.64295         1.58574 
       0.711789         1.60667         1.55577 
       0.717957         1.57891         1.52638 
        0.72409         1.55005         1.49791 
       0.730186         1.52765         1.47033 
       0.736317         1.49511          1.4433 
       0.742472         1.47212         1.41686 
       0.748622         1.44696          1.3911 
        0.75476         1.41747         1.36605 
       0.760888         1.39755         1.34166 
       0.767043         1.36188         1.31777 
       0.773185         1.34393         1.29452 
       0.779291         1.32708         1.27197 
       0.785407         1.30165         1.24993 
       0.791564         1.27955         1.22827 
       0.797719         1.25726         1.20714 
       0.803834         1.23609         1.18665 
       0.809972         1.21636         1.16656 
       0.816124         1.19624         1.14689 
       0.822261         1.17824         1.12773 
       0.828378         1.15711         1.10908 
       0.834502         1.13896         1.09083 
       0.840667         1.12297         1.07287 
       0.846816         1.10465         1.05537 
       0.852925         1.08462         1.03838 
       0.859047         1.06851         1.02173 
       0.865192         1.05274         1.00539 
       0.871341         1.03781        0.989397 
       0.877463          1.0186        0.973829 
       0.883569         1.00404        0.958638 
       0.889708        0.990888        0.943695 
       0.895864        0.976031        0.929035 
       0.902008        0.959084        0.914718 
       0.908149        0.946914        0.900713 
       0.914301        0.934987         0.88698 
       0.920448        0.920839        0.873548 
       0.926574        0.909213        0.860443 
       0.932687        0.895287        0.847636 
       0.938823        0.879288        0.835045 
       0.944975        0.869231        0.822682 
       0.951105        0.853567        0.810614 
       0.957225        0.841705        0.798811 
       0.963368        0.832136        0.787203 
       0.969511        0.821687        0.775826 
       0.975621        0.808411        0.764736 
       0.981748        0.794504        0.753836 
       0.987916        0.784918         0.74308 
        0.99406        0.776063        0.732575 
        1.00019        0.764888        0.722296 
        1.00632         0.75717        0.712223 
        1.01246        0.746071        0.702328 
        1.01859        0.736161        0.692638 
        1.02471        0.724214        0.683144 
        1.03085        0.714212        0.673795 
        1.03698         0.70664        0.664642 
        1.04314        0.697364        0.655621 
        1.04929        0.689989        0.646789 
        1.05541          0.6781        0.638156 
        1.06154        0.671134        0.629659 
        1.06769        0.663038        0.621306 
        1.07382        0.654276        0.613132 
        1.07993        0.646656        0.605124 
        1.08607        0.637969        0.597227 
        1.09222        0.629335        0.589464 
        1.09836          0.6223        0.581848 
        1.10449        0.613629        0.574377 
        1.11063        0.605853        0.567029 
        1.11677        0.600048        0.559813 
         1.1229        0.590443        0.552735 
        1.12903        0.585028        0.545774 
        1.13518         0.57727        0.538927 
        1.14131        0.571144        0.532203 
        1.14745        0.566033        0.525597 
        1.15359        0.557669        0.519103 
        1.15973        0.552069        0.512715 
        1.16584        0.544519        0.506465 
        1.17197        0.537667         0.50031 
        1.17811        0.531191        0.494238 
        1.18424        0.525325        0.488286 
        1.19038        0.518511        0.482414 
        1.19652        0.514792        0.476641 
        1.20267        0.508804        0.470963 
        1.20881        0.500598        0.465378 
        1.21495        0.496152        0.459894 
        1.22108        0.491052        0.454498 
         1.2272        0.484375        0.449202 
        1.23334         0.47948        0.443979 
        1.23949        0.475416        0.438827 
        1.24562        0.469763         0.43377 
        1.25174        0.464552        0.428801 
        1.25789        0.458055        0.423896 
        1.26402        0.454405        0.419075 
        1.27014        0.448052        0.414342 
        1.27628        0.444503        0.409668 
        1.28244        0.439738        0.405057 
        1.28858        0.434163        0.400523 
        1.29471        0.429798        0.396069 
        1.30084        0.425195        0.391687 
        1.30697        0.421882        0.387365 
        1.31312        0.417284        0.383102 
        1.31925        0.412566        0.378917 
        1.32537        0.408461        0.374798 
        1.33151        0.404055        0.370727 
        1.33765        0.399537        0.366718 
        1.34378        0.394769        0.362777 
        1.34992        0.392571        0.358891 
        1.35606         0.38761        0.355053 
         1.3622        0.383936        0.351279 
        1.36833        0.380798        0.347569 
        1.37445        0.377154        0.343914 
        1.38059        0.372906        0.340301 
        1.38675        0.368635        0.336731 
        1.39288        0.364352        0.333226 
        1.39901        0.362201        0.329774 
        1.40515        0.358052        0.326362 
         1.4113        0.355471           0.323 
        1.41742        0.351794        0.319699 
        1.42355        0.346805        0.316437 
         1.4297        0.345326        0.313211 
        1.43585        0.340971        0.310032 
        1.44198        0.338214        0.306908 
        1.44809        0.334447        0.303834 
        1.45423        0.331693        0.300791 
        1.46036        0.328377        0.297795 
        1.46649        0.325433        0.294838 
        1.47263        0.321315        0.291919 
        1.47877        0.320312        0.289042 
        1.48491        0.315553        0.286198 
        1.49104        0.314441        0.283399 
        1.49718        0.310627        0.280635 
        1.50333          0.3082        0.277903 
        1.50947        0.305579        0.275214 
         1.5156        0.302261        0.272564 
        1.52172        0.299993        0.269949 
        1.52787        0.296256        0.267363 
          1.534         0.29451        0.264814 
        1.54013         0.29173        0.262302 
        1.54627        0.289354        0.259817 
        1.55241        0.286498        0.257364 
        1.55855        0.284075        0.254946 
        1.56467        0.281783        0.252566 
         1.5708        0.278965         0.25021 
        1.57695        0.276564         0.24788 
        1.58308        0.273248        0.245585 
        1.58922        0.271966        0.243318 
        1.59535        0.269102         0.24108 
         1.6015        0.267232        0.238868 
        1.60764        0.264576        0.236684 
        1.61376        0.262468        0.234534 
        1.61989        0.259964        0.232408 
        1.62604         0.25796        0.230304 
        1.63218        0.256155        0.228228 
        1.63831        0.253609        0.226182 
        1.64444        0.251701         0.22416 
        1.65059        0.249032        0.222158 
        1.65673        0.247302        0.220183 
        1.66285        0.245643        0.218238 
        1.66898        0.243105        0.216315 
        1.67512        0.241126        0.214412 
        1.68127        0.239012         0.21253 
         1.6874        0.237425        0.210674 
        1.69353         0.23534        0.208842 
        1.69967        0.233013        0.207028 
        1.70581        0.231844        0.205235 
        1.71193        0.230189        0.203471 
        1.71806        0.227885        0.201724 
        1.72421        0.225966        0.199993 
        1.73035        0.224177        0.198285 
        1.73649        0.222706        0.196598 
        1.74262        0.220543        0.194931 
        1.74876         0.21935        0.193282 
        1.75489        0.217415        0.191656 
        1.76101        0.215641         0.19005 
        1.76715        0.214113        0.188459 
        1.77329        0.212137        0.186885 
        1.77943        0.210414        0.185328 
        1.78557        0.209477        0.183791 
        1.79171        0.207759        0.182271 
        1.79785        0.205711        0.180768 
        1.80399        0.203827        0.179282 
        1.81012        0.202892        0.177815 
        1.81625        0.201406        0.176365 
        1.82239        0.200205        0.174929 
        1.82853        0.198184         0.17351 
        1.83466        0.196646        0.172108 
        1.84078        0.195331        0.170723 
        1.84692        0.193811        0.169351 
        1.85306        0.192481        0.167992 
         1.8592         0.19112         0.16665 
        1.86533         0.18983        0.165324 
        1.87147        0.188227        0.164011 
        1.87761         0.18676        0.162711 
        1.88375        0.185323        0.161427 
        1.88988        0.184077        0.160158 
        1.89601        0.182362        0.158902 
        1.90215         0.18122        0.157659 
        1.90829        0.179732        0.156429 
        1.91442        0.178935        0.155213 
        1.92056        0.177741         0.15401 
         1.9267        0.176255        0.152819 
        1.93284        0.174727         0.15164 
        1.93897        0.173684        0.150476 
        1.94509        0.172438        0.149326 
        1.95123        0.171165        0.148185 
        1.95737        0.170188        0.147056 
        1.96349        0.168942        0.145941 
        1.96964        0.167563        0.144835 
        1.97578        0.166493        0.143739 
        1.98192        0.165578        0.142657 
        1.98805        0.164423        0.141586 
        1.99419        0.163473        0.140526 
        2.00033        0.161979        0.139476 
        2.00647        0.160935        0.138437 
         2.0126        0.160067        0.137411 
        2.01874        0.158935        0.136394 
        2.02488        0.157839        0.135385 
        2.03101        0.156592        0.134389 
        2.03714        0.156176        0.133404 
        2.04328        0.154317        0.132428 
        2.04941        0.153778        0.131462 
        2.05554        0.152807        0.130506 
        2.06167        0.151675        0.129559 
        2.06781        0.150299        0.128621 
        2.07396        0.149543        0.127691 
        2.08009        0.148685        0.126772 
        2.08622        0.147864        0.125862 
        2.09237        0.146682         0.12496 
        2.09851        0.145636        0.124067 
        2.10464        0.144783        0.123184 
        2.11077        0.143774         0.12231 
        2.11691        0.143092        0.121443 
        2.12305         0.14169        0.120585 
        2.12918        0.140912        0.119736 
        2.13531        0.140152        0.118896 
        2.14145         0.13924        0.118062 
         2.1476        0.138477        0.117235 
        2.15372        0.137556         0.11642 
        2.15985        0.136653        0.115612 
        2.16599         0.13554        0.114809 
        2.17213        0.135084        0.114015 
        2.17827         0.13413        0.113228 
         2.1844        0.133245         0.11245 
        2.19054        0.132551        0.111678 
        2.19666        0.131759        0.110915 
         2.2028        0.130532        0.110159 
        2.20893        0.130094        0.109409 
        2.21508        0.129179        0.108665 
        2.22122        0.128425        0.107928 
        2.22736        0.127602        0.107199 
        2.23349        0.126811        0.106477 
        2.23962        0.126137        0.105761 
        2.24577         0.12546        0.105052 
         2.2519        0.124534         0.10435 
        2.25802        0.123852        0.103655 
        2.26417        0.123273        0.102965 
        2.27031        0.122294         0.10228 
        2.27644        0.121969        0.101604 
        2.28257        0.120943        0.100933 
        2.28872        0.120242        0.100268 
        2.29486         0.11963       0.0996086 
        2.30099        0.118787       0.0989565 
        2.30712        0.118232       0.0983099 
        2.31326        0.117304        0.097668 
         2.3194         0.11679       0.0970323 
        2.32553        0.116256       0.0964032 
        2.33166        0.115366         0.09578 
         2.3378         0.11474       0.0951615 
        2.34394        0.114164       0.0945482 
        2.35007        0.113491       0.0939411 
        2.35619        0.113107       0.0933402 
        2.36233        0.112107        0.092743 
        2.36848        0.111595       0.0921499 
        2.37462        0.111114       0.0915632 
        2.38075        0.110385       0.0909821 
        2.38689        0.109842       0.0904057 
        2.39303        0.109296       0.0898343 
        2.39916         0.10848       0.0892684 
        2.40529        0.107894       0.0887074 
        2.41143        0.107111       0.0881509 
        2.41757        0.106691       0.0875988 
         2.4237        0.106113       0.0870525 
        2.42983        0.105669       0.0865109 
        2.43598        0.104877       0.0859725 
        2.44211        0.104153       0.0854395 
        2.44823         0.10386       0.0849123 
        2.45437        0.103288        0.084388 
        2.46052        0.102696       0.0838677 
        2.46665        0.102113       0.0833527 
        2.47279          0.1016       0.0828423 
        2.47892        0.101331       0.0823357 
        2.48507        0.100444       0.0818329 
         2.4912         0.10007       0.0813352 
