# k  (h/Mpc)    Pcb(k)  (Mpc/h)^3    Pcb_linear(k)  (Mpc/h)^3
     0.00783031         5977.09         6050.17 
       0.013688         6739.43         6710.92 
       0.019231         6274.69         6257.29 
      0.0249154          5326.7         5376.48 
      0.0312784         4339.99         4344.64 
      0.0375637         3534.84         3514.57 
      0.0433917         2959.97         2968.27 
      0.0492413         2610.07         2604.23 
      0.0555754          2321.8         2345.26 
      0.0619321         2166.99         2147.03 
       0.067871         1951.67         1964.81 
      0.0738098         1753.81         1764.26 
      0.0800417         1526.23         1540.51 
      0.0862327         1328.42         1327.62 
      0.0921407         1167.03         1154.39 
      0.0982031         1024.36         1018.31 
       0.104506          944.07         920.626 
       0.110769         875.521         856.873 
       0.116806         823.477         812.242 
       0.122832         785.144         770.702 
       0.129052          726.56         721.773 
       0.135211         672.407         664.862 
       0.141259         620.821         604.383 
       0.147318          566.72         545.572 
       0.153489         511.573         493.423 
       0.159709         473.866         452.038 
       0.165845         448.184         422.106 
       0.171974         421.368          400.42 
       0.178125         404.048         383.095 
       0.184229         387.331         366.688 
        0.19034         361.533         348.667 
       0.196428         347.822         328.466 
       0.202534         330.892         306.808 
       0.208729         307.851         285.119 
       0.214876         287.213         265.558 
       0.220989         273.687         249.059 
       0.227147         258.145         235.592 
        0.23329         246.768         224.757 
       0.239377         239.442         215.628 
       0.245482         224.546         207.087 
       0.251667         220.002         198.331 
       0.257832         211.146         189.192 
       0.263955         201.738         179.823 
       0.270079         192.196         170.547 
        0.27624          186.68         161.749 
       0.282372         178.912          153.85 
        0.28843         171.091         146.999 
       0.294538         163.466          140.96 
       0.300721         160.349         135.515 
        0.30691         152.824         130.454 
       0.313033         148.335          125.61 
       0.319153         141.497         120.798 
       0.325316         138.303         115.974 
        0.33145         132.601         111.256 
       0.337538         129.554         106.763 
       0.343633          124.54         102.542 
       0.349808         120.406          98.599 
       0.355968         117.551         94.9953 
       0.362074         113.865         91.6986 
       0.368217         110.296          88.593 
       0.374374         106.752         85.6198 
       0.380519         104.322         82.7469 
       0.386598         101.315         79.9767 
       0.392688          99.206         77.2758 
        0.39888         96.3091          74.628 
       0.405048         93.6404         72.1096 
       0.411186         91.3464         69.7359 
       0.417313         88.8116         67.5043 
       0.423458         86.5775         65.3918 
       0.429607         84.3451         63.3875 
       0.435692         81.3978         61.4947 
       0.441815         80.4412         59.6622 
       0.447964         78.8919         57.8834 
       0.454126         75.2797         56.1608 
       0.460267         74.3055         54.5039 
       0.466387         72.7181         52.9145 
        0.47254         71.1673          51.382 
       0.478662         70.2275         49.9247 
       0.484765          67.949         48.5355 
       0.490885         66.5959         47.2013 
       0.497035         65.7032         45.9147 
       0.503198         63.7295         44.6749 
       0.509342         62.2552         43.4825 
       0.515458          61.141         42.3354 
       0.521598         60.1101         41.2224 
       0.527764         59.0376         40.1437 
       0.533884         58.0765         39.1112 
           0.54         56.6831         38.1167 
       0.546137         56.0121         37.1547 
       0.552299         55.0784          36.224 
       0.558452         53.5714         35.3285 
       0.564573         52.5819         34.4684 
       0.570708         51.7786          33.635 
       0.576825         50.8961          32.831 
       0.582926         49.7208         32.0547 
       0.589034         48.6938         31.3021 
       0.595184         48.0211         30.5688 
       0.601379          47.209         29.8542 
       0.607522         46.0866         29.1684 
       0.613639         45.8341         28.5072 
       0.619772         44.7584         27.8652 
       0.625918         44.2576          27.242 
       0.632068         43.6568         26.6378 
       0.638161         42.9493         26.0574 
         0.6443         42.2369         25.4902 
       0.650464         41.5862         24.9377 
       0.656582         41.0849         24.4055 
       0.662703         40.2243         23.8885 
       0.668861         39.6445         23.3836 
       0.675024         39.0871         22.8929 
       0.681124         38.4301         22.4214 
       0.687237         37.7033         21.9623 
       0.693381         37.3804          21.514 
       0.699536         36.6233         21.0776 
       0.705665         36.7017         20.6552 
       0.711789         35.7027         20.2448 
       0.717957         35.2773         19.8428 
        0.72409         34.7947         19.4539 
       0.730186         34.2278         19.0778 
       0.736317         34.0121         18.7096 
       0.742472         33.4431         18.3498 
       0.748622         33.0802         17.9998 
        0.75476         32.6388         17.6597 
       0.760888           32.09          17.329 
       0.767043         31.6961         17.0055 
       0.773185         31.2569          16.691 
       0.779291         31.0728         16.3862 
       0.785407          30.758         16.0886 
       0.791564         30.2687         15.7966 
       0.797719         29.6276         15.5119 
       0.803834         29.5465         15.2361 
       0.809972         29.0865         14.9661 
       0.816124         28.6632          14.702 
       0.822261         28.3812          14.445 
       0.828378         28.2132         14.1949 
       0.834502         27.8377         13.9506 
       0.840667         27.5089         13.7104 
       0.846816         27.0502         13.4766 
       0.852925         26.8248         13.2497 
       0.859047         26.4716         13.0275 
       0.865192         26.2042         12.8097 
       0.871341         26.0872         12.5968 
       0.877463          25.563         12.3896 
       0.883569         25.3183         12.1877 
       0.889708         25.0827         11.9892 
       0.895864         24.8081         11.7946 
       0.902008         24.5852         11.6047 
       0.908149         24.3284         11.4192 
       0.914301         24.2302         11.2374 
       0.920448         23.8716         11.0597 
       0.926574         23.5995         10.8865 
       0.932687         23.3725         10.7174 
       0.938823         23.0348         10.5512 
       0.944975         22.9077         10.3882 
       0.951105         22.6557         10.2292 
       0.957225         22.3752         10.0739 
       0.963368         22.3621          9.9212 
       0.969511          22.076          9.7717 
       0.975621         21.9064         9.62608 
       0.981748         21.5681         9.48306 
       0.987916         21.4311         9.34206 
        0.99406         21.2405         9.20445 
        1.00019         20.9875         9.06989 
        1.00632         20.8388         8.93814 
        1.01246         20.7465         8.80882 
        1.01859         20.3823         8.68227 
        1.02471         20.3397         8.55837 
        1.03085         20.1548         8.43646 
        1.03698         19.8309         8.31718 
        1.04314         19.7092          8.1997 
        1.04929           19.52         8.08477 
        1.05541         19.3192          7.9725 
        1.06154         19.2385         7.86209 
        1.06769         19.0869         7.75361 
        1.07382          18.903         7.64752 
        1.07993           18.78         7.54366 
        1.08607         18.5425          7.4413 
        1.09222         18.4593         7.34074 
        1.09836         18.2576         7.24214 
        1.10449         18.1185         7.14547 
        1.11063         17.8831         7.05045 
        1.11677         17.8263         6.95719 
         1.1229         17.7114         6.86577 
        1.12903         17.4922         6.77591 
        1.13518         17.3849         6.68759 
        1.14131         17.3026         6.60088 
        1.14745         17.1034         6.51576 
        1.15359         17.0576         6.43212 
        1.15973         16.8403         6.34992 
        1.16584         16.6664         6.26951 
        1.17197          16.659         6.19038 
        1.17811         16.4387         6.11238 
        1.18424          16.316         6.03594 
        1.19038          16.258         5.96058 
        1.19652         16.1527         5.88654 
        1.20267         16.0195         5.81376 
        1.20881         15.8699         5.74222 
        1.21495         15.7781           5.672 
        1.22108         15.6479         5.60296 
         1.2272         15.4995         5.53523 
        1.23334         15.4464         5.46847 
        1.23949         15.3092         5.40264 
        1.24562         15.2084         5.33809 
        1.25174         15.1247         5.27468 
        1.25789           14.98         5.21211 
        1.26402         14.9159         5.15067 
        1.27014         14.7391         5.09036 
        1.27628         14.6561         5.03084 
        1.28244         14.5892         4.97216 
        1.28858         14.5145         4.91449 
        1.29471         14.3994         4.85786 
        1.30084         14.2932         4.80218 
        1.30697         14.1967         4.74728 
        1.31312         14.0535         4.69316 
        1.31925         13.9711         4.64006 
        1.32537         13.9186         4.58783 
        1.33151         13.8099         4.53621 
        1.33765         13.7447         4.48541 
        1.34378          13.644          4.4355 
        1.34992         13.4982          4.3863 
        1.35606         13.4694         4.33774 
         1.3622          13.386            4.29 
        1.36833         13.2603         4.24309 
        1.37445         13.2478          4.1969 
        1.38059         13.1185         4.15126 
        1.38675         12.9606         4.10618 
        1.39288         12.9524         4.06195 
        1.39901         12.8534         4.01839 
        1.40515         12.8019         3.97537 
         1.4113         12.7034         3.93299 
        1.41742         12.5923         3.89139 
        1.42355          12.562         3.85031 
         1.4297         12.5035          3.8097 
        1.43585          12.433         3.76969 
        1.44198         12.3353         3.73041 
        1.44809         12.2436         3.69176 
        1.45423         12.1881         3.65351 
        1.46036         12.1302         3.61588 
        1.46649         12.0596         3.57876 
        1.47263         11.9559         3.54213 
        1.47877         11.9051         3.50602 
        1.48491         11.8738         3.47037 
        1.49104         11.8051         3.43528 
        1.49718         11.6953         3.40065 
        1.50333         11.6579         3.36645 
        1.50947         11.5849         3.33278 
         1.5156         11.5038         3.29962 
        1.52172         11.4429         3.26691 
        1.52787         11.4034         3.23458 
          1.534         11.3084         3.20273 
        1.54013         11.2243         3.17133 
        1.54627         11.1705          3.1403 
        1.55241         11.1113         3.10968 
        1.55855         11.0415          3.0795 
        1.56467         10.9895         3.04981 
         1.5708         10.9761         3.02043 
        1.57695         10.8679         2.99138 
        1.58308         10.8463         2.96279 
        1.58922         10.7829         2.93454 
        1.59535         10.7042         2.90668 
         1.6015         10.6467         2.87913 
        1.60764         10.6132         2.85196 
        1.61376         10.5245          2.8252 
        1.61989         10.4651         2.79877 
        1.62604         10.4523         2.77262 
        1.63218         10.3859         2.74682 
        1.63831         10.3464          2.7214 
        1.64444         10.2493         2.69629 
        1.65059         10.2045         2.67144 
        1.65673         10.1709         2.64693 
        1.66285         10.0995          2.6228 
        1.66898         10.0857         2.59895 
        1.67512         10.0261         2.57536 
        1.68127         9.98124         2.55203 
         1.6874         9.90675         2.52905 
        1.69353         9.84163         2.50636 
        1.69967         9.81052          2.4839 
        1.70581         9.77261         2.46172 
        1.71193          9.7153         2.43989 
        1.71806         9.66134         2.41828 
        1.72421         9.61703         2.39689 
        1.73035         9.55482         2.37578 
        1.73649         9.53218         2.35493 
        1.74262         9.51004         2.33434 
        1.74876         9.45056         2.31399 
        1.75489         9.40202         2.29392 
        1.76101         9.33479         2.27409 
        1.76715         9.31764         2.25447 
        1.77329         9.24963         2.23506 
        1.77943         9.20704         2.21587 
        1.78557         9.18851         2.19692 
        1.79171         9.14534          2.1782 
        1.79785         9.06478         2.15969 
        1.80399          9.0432          2.1414 
        1.81012         9.02976         2.12334 
        1.81625          8.9678          2.1055 
        1.82239         8.92843         2.08784 
        1.82853         8.86375         2.07038 
        1.83466          8.8115         2.05315 
        1.84078          8.7796         2.03612 
        1.84692         8.76384         2.01926 
        1.85306         8.70387         2.00257 
         1.8592         8.67359          1.9861 
        1.86533         8.65028         1.96981 
        1.87147         8.59919         1.95369 
        1.87761          8.5729         1.93775 
        1.88375         8.50312           1.922 
        1.88988         8.47978         1.90644 
        1.89601         8.45136         1.89104 
        1.90215         8.40545          1.8758 
        1.90829         8.36941         1.86074 
        1.91442         8.33793         1.84584 
        1.92056         8.29605         1.83112 
         1.9267         8.26007         1.81654 
        1.93284         8.21615         1.80211 
        1.93897         8.18544         1.78786 
        1.94509         8.14174          1.7738 
        1.95123         8.12323         1.75985 
        1.95737         8.09397         1.74604 
        1.96349         8.05411         1.73242 
        1.96964          8.0032          1.7189 
        1.97578         7.97151         1.70551 
        1.98192         7.94037          1.6923 
        1.98805         7.92307         1.67923 
        1.99419         7.86779         1.66629 
        2.00033         7.83512         1.65348 
        2.00647         7.80477         1.64081 
         2.0126           7.786         1.62829 
        2.01874         7.72904         1.61588 
        2.02488         7.69515         1.60359 
        2.03101         7.68632         1.59146 
        2.03714         7.65616         1.57945 
        2.04328         7.61157         1.56756 
        2.04941         7.56545          1.5558 
        2.05554         7.56252         1.54417 
        2.06167         7.51523         1.53264 
        2.06781         7.50315         1.52123 
        2.07396         7.48147         1.50991 
        2.08009         7.44553         1.49873 
        2.08622         7.37423         1.48768 
        2.09237         7.38221         1.47671 
        2.09851         7.34312         1.46585 
        2.10464         7.31055         1.45512 
        2.11077         7.26657         1.44451 
        2.11691         7.24817         1.43398 
        2.12305         7.23589         1.42356 
        2.12918         7.18589         1.41326 
        2.13531         7.16983         1.40306 
        2.14145         7.13407         1.39294 
         2.1476         7.13008         1.38291 
        2.15372         7.08419         1.37303 
        2.15985         7.04552         1.36323 
        2.16599         7.04057          1.3535 
        2.17213         6.99856         1.34388 
        2.17827         6.98275         1.33435 
         2.1844         6.95075         1.32492 
        2.19054         6.92231         1.31558 
        2.19666         6.90661         1.30634 
         2.2028         6.87643         1.29718 
        2.20893         6.84878          1.2881 
        2.21508         6.80657          1.2791 
        2.22122         6.78473         1.27019 
        2.22736         6.76814         1.26137 
        2.23349         6.72954         1.25265 
        2.23962         6.71017           1.244 
        2.24577         6.68616         1.23542 
         2.2519          6.6703         1.22694 
        2.25802         6.63726         1.21854 
        2.26417         6.62121         1.21021 
        2.27031         6.57081         1.20194 
        2.27644         6.56271         1.19377 
        2.28257          6.5366         1.18568 
        2.28872         6.52031         1.17765 
        2.29486         6.49117          1.1697 
        2.30099         6.48582         1.16183 
        2.30712         6.44155         1.15404 
        2.31326         6.42159          1.1463 
         2.3194         6.39822         1.13863 
        2.32553          6.3703         1.13105 
        2.33166         6.34142         1.12354 
         2.3378         6.32376         1.11609 
        2.34394         6.31002         1.10871 
        2.35007         6.27355          1.1014 
        2.35619         6.24268         1.09416 
        2.36233         6.22946         1.08698 
        2.36848          6.2217         1.07984 
        2.37462         6.19686         1.07278 
        2.38075         6.15689         1.06579 
        2.38689         6.14001         1.05886 
        2.39303         6.11713         1.05199 
        2.39916         6.11392         1.04518 
        2.40529         6.08014         1.03844 
        2.41143         6.06449         1.03175 
        2.41757         6.04099         1.02512 
         2.4237         6.02493         1.01856 
        2.42983         5.98644         1.01205 
        2.43598         5.99138         1.00559 
        2.44211         5.96008        0.999189 
        2.44823         5.93202         0.99286 
        2.45437         5.92664        0.986568 
        2.46052         5.88834        0.980326 
        2.46665         5.86517        0.974148 
        2.47279         5.84384        0.968026 
        2.47892         5.83584        0.961951 
        2.48507         5.80474        0.955923 
         2.4912         5.79433        0.949958 
