# k  (h/Mpc)    P(k)  (Mpc/h)^3    P_linear(k)  (Mpc/h)^3
     0.00783031         3906.44         3963.76 
       0.013688          4395.2         4391.19 
       0.019231         4097.07         4092.25 
      0.0249154         3487.09         3515.19 
      0.0312784         2838.28         2840.03 
      0.0375637         2308.64         2297.16 
      0.0433917          1936.5         1939.95 
      0.0492413         1705.65         1701.94 
      0.0555754         1520.78         1532.63 
      0.0619321         1414.18         1403.05 
       0.067871          1277.4         1283.94 
      0.0738098         1147.47         1152.87 
      0.0800417         999.142         1006.64 
      0.0862327         868.033         867.518 
      0.0921407          760.35         754.318 
      0.0982031         667.794         665.388 
       0.104506         613.167         601.557 
       0.110769         568.956         559.896 
       0.116806         535.322         530.731 
       0.122832         510.402         503.585 
       0.129052         473.367         471.613 
       0.135211         437.405         434.425 
       0.141259         402.437         394.907 
       0.147318         366.552         356.479 
       0.153489         330.858         322.403 
       0.159709         305.429         295.362 
       0.165845         288.353         275.804 
       0.171974         270.929         261.633 
       0.178125          259.96         250.313 
       0.184229         249.254         239.593 
        0.19034          233.31         227.818 
       0.196428         223.476         214.618 
       0.202534         212.047         200.467 
       0.208729         196.883         186.295 
       0.214876         183.291         173.514 
       0.220989          174.29         162.733 
       0.227147         164.033         153.934 
        0.23329         156.733         146.854 
       0.239377           151.7          140.89 
       0.245482         143.017         135.309 
       0.251667         139.543         129.587 
       0.257832         133.693         123.616 
       0.263955         127.557         117.494 
       0.270079         121.423         111.433 
        0.27624         117.346         105.685 
       0.282372         112.315         100.524 
        0.28843         107.116         96.0474 
       0.294538         102.534         92.1012 
       0.300721         100.147         88.5438 
        0.30691         95.5585         85.2369 
       0.313033         92.4882         82.0723 
       0.319153         88.0535         78.9278 
       0.325316         86.2157         75.7759 
        0.33145         82.5405          72.693 
       0.337538         80.2765         69.7573 
       0.343633         77.0746         66.9995 
       0.349808         74.5856         64.4233 
       0.355968         72.4948         62.0686 
       0.362074         70.0735         59.9146 
       0.368217         67.8251         57.8854 
       0.374374         65.6906         55.9428 
       0.380519         64.0084         54.0656 
       0.386598         62.1293         52.2557 
       0.392688          60.709         50.4909 
        0.39888         58.7885         48.7608 
       0.405048          57.162         47.1154 
       0.411186         55.6864         45.5644 
       0.417313         53.9432         44.1063 
       0.423458         52.4901          42.726 
       0.429607         51.0789         41.4165 
       0.435692         49.3174         40.1797 
       0.441815         48.5392         38.9824 
       0.447964         47.6082         37.8201 
       0.454126         45.5156         36.6946 
       0.460267         44.8137          35.612 
       0.466387         43.5765         34.5735 
        0.47254         42.7464         33.5722 
       0.478662         42.0483           32.62 
       0.484765         40.6657         31.7124 
       0.490885         39.7636         30.8406 
       0.497035         39.2312         29.9999 
       0.503198          38.072         29.1898 
       0.509342         37.0819         28.4108 
       0.515458         36.3243         27.6613 
       0.521598         35.6793         26.9341 
       0.527764         34.9273         26.2292 
       0.533884         34.3392         25.5546 
           0.54         33.4853         24.9048 
       0.546137         33.0087         24.2763 
       0.552299         32.4442         23.6682 
       0.558452         31.4498          23.083 
       0.564573         30.8994         22.5211 
       0.570708         30.3961         21.9766 
       0.576825         29.7265         21.4512 
       0.582926         29.0601          20.944 
       0.589034         28.3621         20.4523 
       0.595184         27.9845         19.9731 
       0.601379         27.4315         19.5062 
       0.607522         26.8435         19.0581 
       0.613639         26.6051         18.6262 
       0.619772         25.9231         18.2067 
       0.625918         25.7196         17.7995 
       0.632068         25.3135         17.4047 
       0.638161         24.7944         17.0255 
         0.6443         24.3118         16.6548 
       0.650464         23.8746         16.2939 
       0.656582         23.6822         15.9461 
       0.662703         23.1949         15.6084 
       0.668861         22.7704         15.2785 
       0.675024         22.3789         14.9579 
       0.681124         21.9793         14.6498 
       0.687237         21.5819         14.3498 
       0.693381          21.398         14.0569 
       0.699536         20.8512         13.7718 
       0.705665         20.8232         13.4958 
       0.711789         20.2982         13.2276 
       0.717957         20.0118         12.9649 
        0.72409         19.7311         12.7109 
       0.730186         19.4222         12.4651 
       0.736317         19.2223         12.2245 
       0.742472         18.8691         11.9894 
       0.748622         18.6835         11.7608 
        0.75476         18.3639         11.5386 
       0.760888         18.0527         11.3225 
       0.767043         17.8182         11.1111 
       0.773185         17.5265         10.9056 
       0.779291          17.423         10.7065 
       0.785407         17.2322          10.512 
       0.791564         16.9163         10.3212 
       0.797719         16.5063         10.1352 
       0.803834         16.4845         9.95504 
       0.809972         16.3013         9.77859 
       0.816124         15.9584         9.60603 
       0.822261         15.7741         9.43812 
       0.828378         15.6415         9.27472 
       0.834502         15.4721         9.11507 
       0.840667         15.2444         8.95814 
       0.846816         14.9622         8.80536 
       0.852925         14.8161          8.6571 
       0.859047         14.6458         8.51195 
       0.865192         14.4887         8.36965 
       0.871341         14.3758         8.23051 
       0.877463         14.1148         8.09517 
       0.883569         13.9418         7.96321 
       0.889708         13.7339         7.83352 
       0.895864         13.5928         7.70639 
       0.902008         13.4917         7.58234 
       0.908149         13.3375          7.4611 
       0.914301         13.2716         7.34231 
       0.920448         13.0218         7.22622 
       0.926574         12.8876         7.11305 
       0.932687         12.7315         7.00254 
       0.938823         12.5677         6.89398 
       0.944975         12.4391         6.78748 
       0.951105         12.3059         6.68361 
       0.957225         12.1778          6.5821 
       0.963368          12.101         6.48234 
       0.969511         11.9623         6.38466 
       0.975621         11.8555         6.28952 
       0.981748         11.6703         6.19607 
       0.987916         11.6027         6.10394 
        0.99406         11.4459         6.01403 
        1.00019         11.2924         5.92611 
        1.00632         11.2334         5.84003 
        1.01246         11.1467         5.75554 
        1.01859         10.9463         5.67285 
        1.02471           10.91         5.59189 
        1.03085         10.7953         5.51224 
        1.03698         10.6139          5.4343 
        1.04314         10.5535         5.35754 
        1.04929         10.4262         5.28245 
        1.05541         10.3068          5.2091 
        1.06154         10.2458         5.13696 
        1.06769         10.1882         5.06607 
        1.07382         10.0502         4.99676 
        1.07993         9.96367          4.9289 
        1.08607         9.85924         4.86202 
        1.09222         9.79398         4.79631 
        1.09836         9.66798         4.73189 
        1.10449         9.59762         4.66873 
        1.11063         9.47684         4.60664 
        1.11677         9.43985         4.54571 
         1.1229          9.3771         4.48598 
        1.12903         9.24943         4.42726 
        1.13518         9.13851         4.36955 
        1.14131         9.10886          4.3129 
        1.14745         9.01869         4.25729 
        1.15359         8.95774         4.20264 
        1.15973         8.85464         4.14893 
        1.16584         8.73774         4.09639 
        1.17197         8.70447         4.04469 
        1.17811         8.62973         3.99372 
        1.18424         8.55382         3.94378 
        1.19038         8.51258         3.89454 
        1.19652         8.42302         3.84617 
        1.20267         8.34807         3.79861 
        1.20881          8.3025         3.75187 
        1.21495         8.24226         3.70599 
        1.22108         8.14031         3.66088 
         1.2272         8.07517         3.61662 
        1.23334         8.01793           3.573 
        1.23949         7.93494         3.52999 
        1.24562         7.89979         3.48781 
        1.25174         7.84058         3.44639 
        1.25789          7.7671          3.4055 
        1.26402         7.73711         3.36536 
        1.27014         7.65714         3.32596 
        1.27628         7.57198         3.28707 
        1.28244         7.51715         3.24872 
        1.28858         7.50622         3.21104 
        1.29471         7.42114         3.17404 
        1.30084         7.34852         3.13766 
        1.30697         7.31979         3.10179 
        1.31312         7.22544         3.06643 
        1.31925         7.16799         3.03173 
        1.32537         7.14046         2.99761 
        1.33151          7.0948         2.96388 
        1.33765         7.03596         2.93069 
        1.34378         6.98332         2.89808 
        1.34992         6.91531         2.86593 
        1.35606         6.89095         2.83421 
         1.3622         6.84956         2.80301 
        1.36833         6.76685         2.77236 
        1.37445         6.74041         2.74218 
        1.38059         6.69699         2.71236 
        1.38675         6.62443         2.68291 
        1.39288         6.61299         2.65401 
        1.39901         6.54077         2.62555 
        1.40515         6.51249         2.59744 
         1.4113         6.45994         2.56975 
        1.41742         6.40978         2.54257 
        1.42355         6.36093         2.51573 
         1.4297         6.34221         2.48919 
        1.43585         6.30026         2.46305 
        1.44198         6.26274         2.43739 
        1.44809         6.21096         2.41213 
        1.45423         6.16758         2.38714 
        1.46036         6.11939         2.36255 
        1.46649         6.09679          2.3383 
        1.47263         6.03557         2.31436 
        1.47877         5.99882         2.29078 
        1.48491         5.97364         2.26748 
        1.49104         5.93367         2.24455 
        1.49718         5.89301         2.22193 
        1.50333         5.85816         2.19958 
        1.50947         5.80895         2.17758 
         1.5156         5.78176         2.15591 
        1.52172         5.75763         2.13454 
        1.52787         5.71079         2.11342 
          1.534         5.66721         2.09261 
        1.54013         5.63289         2.07209 
        1.54627         5.59073         2.05182 
        1.55241         5.56338         2.03181 
        1.55855         5.53579         2.01209 
        1.56467         5.49463         1.99269 
         1.5708         5.48243          1.9735 
        1.57695         5.43542         1.95452 
        1.58308         5.39085         1.93583 
        1.58922         5.37677         1.91738 
        1.59535         5.34619         1.89917 
         1.6015         5.29599         1.88118 
        1.60764         5.26353         1.86342 
        1.61376         5.24747         1.84594 
        1.61989         5.20848         1.82867 
        1.62604         5.19025         1.81158 
        1.63218          5.1652         1.79472 
        1.63831         5.12388         1.77812 
        1.64444         5.09363         1.76171 
        1.65059         5.05016         1.74547 
        1.65673          5.0518         1.72946 
        1.66285         4.99755         1.71369 
        1.66898         4.97521         1.69811 
        1.67512         4.95458         1.68269 
        1.68127         4.92318         1.66746 
         1.6874         4.89729         1.65244 
        1.69353         4.85314         1.63761 
        1.69967         4.84523         1.62294 
        1.70581         4.82483         1.60844 
        1.71193          4.7823         1.59418 
        1.71806         4.76257         1.58006 
        1.72421         4.73795         1.56609 
        1.73035         4.71295         1.55229 
        1.73649         4.68887         1.53867 
        1.74262         4.65938         1.52522 
        1.74876         4.64607         1.51192 
        1.75489         4.61407         1.49881 
        1.76101          4.5841         1.48585 
        1.76715         4.56836         1.47303 
        1.77329           4.532         1.46035 
        1.77943         4.50809         1.44781 
        1.78557         4.49961         1.43543 
        1.79171         4.47361          1.4232 
        1.79785         4.44022         1.41111 
        1.80399         4.42374         1.39915 
        1.81012         4.40339         1.38736 
        1.81625         4.37754          1.3757 
        1.82239         4.35674         1.36416 
        1.82853         4.32889         1.35275 
        1.83466          4.3077         1.34149 
        1.84078         4.29083         1.33037 
        1.84692         4.27481         1.31935 
        1.85306          4.2468         1.30845 
         1.8592         4.22282         1.29768 
        1.86533         4.20613         1.28704 
        1.87147         4.18384         1.27651 
        1.87761         4.16598         1.26609 
        1.88375         4.13137          1.2558 
        1.88988         4.12984         1.24563 
        1.89601         4.10441         1.23558 
        1.90215          4.0811         1.22562 
        1.90829          4.0587         1.21578 
        1.91442         4.03912         1.20604 
        1.92056          4.0288         1.19642 
         1.9267         4.00251         1.18689 
        1.93284         3.98003         1.17747 
        1.93897         3.96021         1.16816 
        1.94509         3.95035         1.15897 
        1.95123         3.93108         1.14986 
        1.95737         3.90654         1.14083 
        1.96349         3.89454         1.13193 
        1.96964         3.86991          1.1231 
        1.97578         3.84945         1.11435 
        1.98192         3.83922         1.10572 
        1.98805         3.82184         1.09718 
        1.99419         3.79641         1.08872 
        2.00033         3.78934         1.08035 
        2.00647          3.7655         1.07208 
         2.0126         3.75228          1.0639 
        2.01874         3.73572         1.05579 
        2.02488         3.71475         1.04776 
        2.03101          3.7006         1.03983 
        2.03714         3.67328         1.03199 
        2.04328         3.66516         1.02422 
        2.04941         3.63996         1.01653 
        2.05554         3.63557         1.00893 
        2.06167         3.60811          1.0014 
        2.06781         3.60235        0.993944 
        2.07396         3.59039        0.986551 
        2.08009         3.57235        0.979246 
        2.08622         3.54811        0.972023 
        2.09237         3.53458        0.964859 
        2.09851          3.5274        0.957765 
        2.10464         3.50728        0.950753 
        2.11077         3.48439         0.94382 
        2.11691         3.47053         0.93694 
        2.12305         3.46083        0.930129 
        2.12918         3.44912        0.923401 
        2.13531         3.43432        0.916739 
        2.14145         3.41604        0.910126 
         2.1476         3.40467        0.903572 
        2.15372         3.38789        0.897114 
        2.15985         3.38187        0.890712 
        2.16599         3.35856        0.884355 
        2.17213          3.3443        0.878066 
        2.17827         3.33645         0.87184 
         2.1844         3.32236        0.865679 
        2.19054         3.29581        0.859575 
        2.19666          3.2891        0.853539 
         2.2028         3.27674        0.847555 
        2.20893         3.26342        0.841625 
        2.21508         3.25033        0.835745 
        2.22122         3.23421        0.829919 
        2.22736         3.22126        0.824161 
        2.23349         3.21357        0.818458 
        2.23962          3.2006        0.812806 
        2.24577         3.18749        0.807202 
         2.2519         3.17808        0.801659 
        2.25802          3.1574        0.796176 
        2.26417         3.15007        0.790729 
        2.27031         3.13291        0.785327 
        2.27644         3.11956        0.779992 
        2.28257         3.10084        0.774706 
        2.28872         3.10217        0.769459 
        2.29486         3.08725        0.764262 
        2.30099         3.07361        0.759123 
        2.30712         3.05806        0.754028 
        2.31326         3.04473        0.748972 
         2.3194         3.03385        0.743965 
        2.32553         3.02774        0.739012 
        2.33166         3.01482        0.734105 
         2.3378         3.00155        0.729237 
        2.34394         2.99043        0.724411 
        2.35007         2.97664        0.719635 
        2.35619         2.96494        0.714908 
        2.36233          2.9545        0.710212 
        2.36848         2.94489        0.705548 
        2.37462         2.93661        0.700936 
        2.38075          2.9226        0.696369 
        2.38689         2.91383        0.691839 
        2.39303         2.89652         0.68735 
        2.39916         2.88787        0.682905 
        2.40529         2.87735        0.678499 
        2.41143         2.86573         0.67413 
        2.41757          2.8659        0.669796 
         2.4237           2.848        0.665508 
        2.42983           2.836        0.661258 
        2.43598         2.82701        0.657034 
        2.44211          2.8147        0.652853 
        2.44823         2.80337        0.648718 
        2.45437         2.79563        0.644607 
        2.46052         2.78808        0.640529 
        2.46665         2.77719        0.636492 
        2.47279         2.75897        0.632492 
        2.47892         2.75262        0.628523 
        2.48507         2.74406        0.624584 
         2.4912         2.73283        0.620687 
