# k  (h/Mpc)    Pcb(k)  (Mpc/h)^3    Pcb_linear(k)  (Mpc/h)^3
     0.00783031         774.054         780.678 
       0.013688         1044.36         1045.91 
       0.019231         1131.75          1132.3 
      0.0249154         1108.15         1114.77 
      0.0312784          1025.6         1027.72 
      0.0375637         921.212         920.135 
      0.0433917         825.608         827.818 
      0.0492413         753.278         753.178 
      0.0555754         690.141         693.431 
      0.0619321         651.402          649.28 
       0.067871         611.972         614.458 
      0.0738098         576.355         579.328 
      0.0800417         533.859         538.308 
      0.0862327         490.701         493.274 
      0.0921407         447.719         449.026 
      0.0982031         404.117          406.17 
       0.104506         368.809         367.852 
       0.110769         338.695         337.873 
       0.116806         315.438         316.406 
       0.122832         300.974           300.6 
       0.129052         286.368         287.656 
       0.135211         274.033         275.643 
       0.141259         262.317         262.794 
       0.147318         248.619          248.13 
       0.153489         231.386           231.7 
       0.159709         215.032         214.776 
       0.165845         201.254         199.091 
       0.171974         186.331         185.513 
       0.178125          175.73         174.494 
       0.184229         167.851          166.04 
        0.19034         159.626         159.473 
       0.196428         155.222         153.988 
       0.202534         150.966         148.714 
       0.208729         144.452         142.964 
       0.214876         137.263         136.596 
       0.220989         132.034         129.715 
       0.227147         123.593         122.606 
        0.23329         117.127         115.803 
       0.239377           111.7         109.739 
       0.245482         105.801         104.552 
       0.251667         102.589          100.22 
       0.257832         98.8802         96.6556 
       0.263955          95.757         93.5858 
       0.270079         92.8943         90.6854 
        0.27624         90.6148         87.7065 
       0.282372         87.3222         84.5572 
        0.28843         83.6671         81.2659 
       0.294538         80.3659         77.8715 
       0.300721         77.7252          74.507 
        0.30691         74.1163         71.3644 
       0.313033         71.5078         68.5708 
       0.319153         68.2534         66.1264 
       0.325316         67.1386          63.973 
        0.33145         64.9499         62.0585 
       0.337538         63.2958          60.279 
       0.343633         61.3517         58.5334 
       0.349808         59.7032         56.7393 
       0.355968         57.9216         54.9095 
       0.362074          56.058         53.0743 
       0.368217         54.3668         51.2518 
       0.374374         52.4683         49.5009 
       0.380519         51.0767         47.8664 
       0.386598         49.6729         46.3849 
       0.392688         48.5287         45.0296 
        0.39888         47.1544         43.7627 
       0.405048         46.0933         42.5811 
       0.411186         45.0656         41.4481 
       0.417313         43.6011         40.3359 
       0.423458         42.5936         39.2263 
       0.429607         41.3935         38.1191 
       0.435692          40.209         37.0395 
       0.441815         39.3767         35.9839 
       0.447964          38.666          34.968 
       0.454126         37.2787          34.006 
       0.460267         36.4991         33.1071 
       0.466387         35.4581         32.2638 
        0.47254         34.9066         31.4605 
       0.478662         34.2415         30.6954 
       0.484765         33.3382         29.9553 
       0.490885         32.5593         29.2272 
       0.497035         32.1327         28.5081 
       0.503198         31.3173         27.8021 
       0.509342         30.5646         27.1148 
       0.515458         29.8762         26.4513 
       0.521598          29.338         25.8106 
       0.527764         28.6796         25.1961 
       0.533884         28.1848         24.6132 
           0.54         27.6165         24.0547 
       0.546137         27.1257         23.5156 
       0.552299         26.6567         22.9926 
       0.558452         25.8625         22.4853 
       0.564573         25.5443         21.9922 
       0.570708         25.0915         21.5087 
       0.576825         24.4494         21.0382 
       0.582926         24.0638         20.5821 
       0.589034         23.3958         20.1394 
       0.595184         23.0741         19.7081 
       0.601379         22.6354         19.2882 
       0.607522         22.3001         18.8858 
       0.613639         22.0461         18.4987 
       0.619772         21.4802         18.1229 
       0.625918         21.3103         17.7574 
       0.632068         20.9661         17.4012 
       0.638161            20.5         17.0566 
         0.6443         20.0949         16.7177 
       0.650464         19.7195         16.3861 
       0.656582         19.5699         16.0658 
       0.662703         19.2259         15.7544 
       0.668861         18.8898         15.4501 
       0.675024          18.534         15.1544 
       0.681124         18.2277         14.8698 
       0.687237         17.9641         14.5922 
       0.693381         17.7511         14.3207 
       0.699536         17.2799         14.0557 
       0.705665         17.1205         13.7985 
       0.711789          16.845         13.5481 
       0.717957         16.5888         13.3022 
        0.72409         16.3275         13.0637 
       0.730186         16.1208         12.8324 
       0.736317          15.956         12.6055 
       0.742472          15.709         12.3833 
       0.748622         15.4702         12.1667 
        0.75476           15.15         11.9559 
       0.760888         15.0017         11.7505 
       0.767043          14.822         11.5493 
       0.773185         14.5314         11.3534 
       0.779291         14.4237         11.1633 
       0.785407         14.2059         10.9773 
       0.791564         13.9754         10.7945 
       0.797719         13.7678          10.616 
       0.803834          13.661         10.4426 
       0.809972         13.5321         10.2726 
       0.816124          13.248         10.1059 
       0.822261         13.0865         9.94349 
       0.828378         12.9333         9.78514 
       0.834502         12.8135         9.63014 
       0.840667         12.6026         9.47754 
       0.846816         12.4033         9.32873 
       0.852925         12.2966         9.18411 
       0.859047         12.1486          9.0423 
       0.865192          12.046         8.90307 
       0.871341         11.9166         8.76672 
       0.877463         11.7424         8.63389 
       0.883569         11.5555         8.50419 
       0.889708         11.3772         8.37653 
       0.895864         11.3097         8.25119 
       0.902008         11.1767         8.12872 
       0.908149         11.0559         8.00884 
       0.914301         10.9026         7.89122 
       0.920448         10.7469          7.7761 
       0.926574         10.6276         7.66371 
       0.932687         10.5464         7.55381 
       0.938823         10.4067          7.4457 
       0.944975         10.2737         7.33948 
       0.951105         10.1885         7.23575 
       0.957225         10.1315         7.13422 
       0.963368         9.99473         7.03431 
       0.969511         9.88997         6.93635 
       0.975621         9.76318         6.84079 
       0.981748         9.66847         6.74682 
       0.987916         9.58099         6.65404 
        0.99406         9.43395         6.56338 
        1.00019         9.30608          6.4746 
        1.00632         9.28188         6.38757 
        1.01246         9.18176         6.30203 
        1.01859         9.06035         6.21821 
        1.02471         8.97805         6.13603 
        1.03085         8.89601         6.05508 
        1.03698         8.77596         5.97577 
        1.04314         8.71281         5.89756 
        1.04929         8.59884         5.82096 
        1.05541         8.51382         5.74603 
        1.06154         8.44242         5.67226 
        1.06769         8.40142         5.59969 
        1.07382         8.27143         5.52864 
        1.07993         8.19128         5.45899 
        1.08607         8.14174         5.39027 
        1.09222          8.0611         5.32268 
        1.09836         7.98939         5.25634 
        1.10449         7.90567         5.19122 
        1.11063         7.83971         5.12715 
        1.11677         7.77378         5.06419 
         1.1229         7.70248         5.00241 
        1.12903         7.62678         4.94161 
        1.13518         7.55276         4.88179 
        1.14131         7.46314         4.82301 
        1.14745         7.38016         4.76523 
        1.15359         7.34768         4.70841 
        1.15973         7.27417         4.65249 
        1.16584          7.2018         4.59775 
        1.17197         7.14417         4.54381 
        1.17811         7.09118         4.49059 
        1.18424         7.04816         4.43838 
        1.19038         6.99166         4.38686 
        1.19652         6.92648         4.33619 
        1.20267         6.84818         4.28633 
        1.20881         6.80685         4.23727 
        1.21495         6.75378         4.18906 
        1.22108         6.68526         4.14162 
         1.2272         6.65793         4.09503 
        1.23334         6.56926         4.04906 
        1.23949         6.51664         4.00369 
        1.24562         6.48971         3.95915 
        1.25174         6.41046         3.91536 
        1.25789         6.37006         3.87211 
        1.26402         6.31573         3.82959 
        1.27014          6.2594         3.78782 
        1.27628         6.22556         3.74656 
        1.28244         6.15001         3.70583 
        1.28858         6.12942         3.66577 
        1.29471         6.06953          3.6264 
        1.30084         6.01447         3.58765 
        1.30697         6.01004         3.54942 
        1.31312         5.89902         3.51169 
        1.31925         5.88454         3.47463 
        1.32537         5.83737         3.43815 
        1.33151         5.80935         3.40207 
        1.33765          5.7359         3.36653 
        1.34378         5.69453         3.33158 
        1.34992         5.67685          3.2971 
        1.35606         5.61141         3.26304 
         1.3622         5.58767         3.22952 
        1.36833         5.54515         3.19656 
        1.37445         5.50667         3.16408 
        1.38059         5.47702         3.13196 
        1.38675         5.43911         3.10021 
        1.39288         5.38681         3.06903 
        1.39901         5.34101          3.0383 
        1.40515         5.31236         3.00793 
         1.4113         5.27678         2.97798 
        1.41742         5.24291         2.94856 
        1.42355         5.20661         2.91949 
         1.4297         5.15473         2.89073 
        1.43585         5.14078         2.86236 
        1.44198         5.11537         2.83449 
        1.44809         5.05392         2.80705 
        1.45423          5.0209         2.77987 
        1.46036         4.98757         2.75311 
        1.46649          4.9463         2.72669 
        1.47263         4.91385          2.7006 
        1.47877         4.87435         2.67486 
        1.48491         4.84648         2.64942 
        1.49104         4.82647         2.62437 
        1.49718         4.79168         2.59963 
        1.50333         4.76195         2.57517 
        1.50947         4.73096         2.55108 
         1.5156         4.70121         2.52733 
        1.52172         4.67449         2.50389 
        1.52787         4.64244          2.4807 
          1.534         4.61107         2.45784 
        1.54013         4.58476         2.43529 
        1.54627         4.54166         2.41298 
        1.55241         4.51538         2.39096 
        1.55855         4.49965         2.36924 
        1.56467         4.46836         2.34785 
         1.5708         4.43062         2.32667 
        1.57695         4.40585         2.30572 
        1.58308          4.3762         2.28507 
        1.58922         4.36189         2.26467 
        1.59535         4.33214         2.24453 
         1.6015         4.30545          2.2246 
        1.60764         4.28039         2.20493 
        1.61376         4.25416         2.18556 
        1.61989         4.22757          2.1664 
        1.62604         4.19832         2.14743 
        1.63218         4.18738          2.1287 
        1.63831         4.15093         2.11024 
        1.64444         4.12565         2.09199 
        1.65059         4.10196         2.07392 
        1.65673         4.08187         2.05609 
        1.66285         4.04977         2.03851 
        1.66898         4.03556         2.02113 
        1.67512         4.00269         2.00393 
        1.68127         3.98279         1.98691 
         1.6874         3.96811         1.97013 
        1.69353         3.92753         1.95356 
        1.69967          3.9146         1.93713 
        1.70581         3.90169         1.92091 
        1.71193         3.87537         1.90493 
        1.71806         3.85657          1.8891 
        1.72421         3.83311         1.87343 
        1.73035         3.81365         1.85795 
        1.73649         3.78711         1.84265 
        1.74262         3.76496         1.82753 
        1.74876         3.75793         1.81258 
        1.75489         3.72893         1.79782 
        1.76101         3.70316         1.78324 
        1.76715         3.68694          1.7688 
        1.77329         3.66829          1.7545 
        1.77943         3.64019         1.74035 
        1.78557         3.62974         1.72639 
        1.79171         3.61058         1.71257 
        1.79785         3.58671         1.69891 
        1.80399         3.57209         1.68539 
        1.81012          3.5603         1.67205 
        1.81625          3.5313         1.65885 
        1.82239         3.51144         1.64578 
        1.82853         3.48998         1.63285 
        1.83466          3.4829         1.62008 
        1.84078          3.4618         1.60746 
        1.84692         3.44628         1.59496 
        1.85306         3.42093         1.58257 
         1.8592         3.40562         1.57034 
        1.86533         3.38905         1.55824 
        1.87147         3.37706         1.54625 
        1.87761         3.35932         1.53439 
        1.88375         3.33266         1.52267 
        1.88988         3.32168         1.51109 
        1.89601         3.30475         1.49961 
        1.90215         3.28334         1.48825 
        1.90829          3.2687         1.47702 
        1.91442         3.25614          1.4659 
        1.92056         3.23598          1.4549 
         1.9267         3.22625         1.44401 
        1.93284         3.21021         1.43322 
        1.93897         3.19264         1.42257 
        1.94509         3.17069         1.41204 
        1.95123         3.15517          1.4016 
        1.95737         3.14043         1.39125 
        1.96349         3.12897         1.38104 
        1.96964         3.11992          1.3709 
        1.97578         3.10022         1.36086 
        1.98192         3.08786         1.35094 
        1.98805         3.07053         1.34112 
        1.99419         3.05628          1.3314 
        2.00033         3.05175         1.32177 
        2.00647         3.02933         1.31224 
         2.0126         3.01944         1.30282 
        2.01874         2.99606         1.29347 
        2.02488         2.98699         1.28421 
        2.03101           2.968         1.27506 
        2.03714         2.95275         1.26601 
        2.04328         2.94474         1.25704 
        2.04941         2.92404         1.24816 
        2.05554         2.91938         1.23937 
        2.06167         2.90119         1.23066 
        2.06781         2.89388         1.22203 
        2.07396         2.88098         1.21347 
        2.08009         2.86509         1.20501 
        2.08622         2.84682         1.19664 
        2.09237         2.84554         1.18833 
        2.09851         2.82994         1.18011 
        2.10464         2.81737         1.17197 
        2.11077         2.80268         1.16392 
        2.11691         2.78904         1.15593 
        2.12305         2.78169         1.14801 
        2.12918         2.76956         1.14019 
        2.13531         2.75723         1.13244 
        2.14145          2.7423         1.12474 
         2.1476         2.73036         1.11711 
        2.15372         2.71822         1.10959 
        2.15985         2.70646         1.10212 
        2.16599         2.69428         1.09471 
        2.17213         2.68243         1.08738 
        2.17827         2.67321         1.08011 
         2.1844          2.6623         1.07292 
        2.19054         2.65344         1.06578 
        2.19666         2.63842         1.05873 
         2.2028         2.62797         1.05173 
        2.20893         2.61462          1.0448 
        2.21508         2.60707         1.03791 
        2.22122         2.59207         1.03109 
        2.22736         2.57961         1.02435 
        2.23349         2.57581         1.01766 
        2.23962         2.55982         1.01104 
        2.24577         2.54989         1.00446 
         2.2519         2.53962        0.997959 
        2.25802         2.53527        0.991522 
        2.26417         2.51998        0.985124 
        2.27031         2.51249        0.978777 
        2.27644         2.50171        0.972505 
        2.28257         2.49015        0.966288 
        2.28872          2.4793        0.960115 
        2.29486         2.47354        0.953997 
        2.30099         2.45996        0.947945 
        2.30712          2.4491        0.941943 
        2.31326         2.44469        0.935984 
         2.3194         2.43105         0.93008 
        2.32553         2.42381        0.924237 
        2.33166         2.41165        0.918446 
         2.3378         2.40223        0.912698 
        2.34394         2.39222        0.906998 
        2.35007         2.38253        0.901355 
        2.35619         2.37913        0.895767 
        2.36233         2.36492        0.890213 
        2.36848          2.3571        0.884695 
        2.37462         2.34859        0.879236 
        2.38075          2.3384        0.873829 
        2.38689         2.33008        0.868462 
        2.39303         2.32276        0.863142 
        2.39916         2.31176        0.857872 
        2.40529          2.3044        0.852647 
        2.41143         2.29443        0.847462 
        2.41757         2.28487        0.842318 
         2.4237         2.27828        0.837227 
        2.42983         2.26609        0.832178 
        2.43598          2.2646        0.827157 
        2.44211         2.25191        0.822187 
        2.44823         2.24508        0.817269 
        2.45437         2.23631        0.812378 
        2.46052         2.22778        0.807523 
        2.46665         2.22202        0.802717 
        2.47279         2.21222        0.797951 
        2.47892         2.20383        0.793222 
        2.48507         2.19746        0.788526 
         2.4912          2.1868        0.783878 
