# k  (h/Mpc)    Pcb(k)  (Mpc/h)^3    Pcb_linear(k)  (Mpc/h)^3
     0.00783031         8285.07         8388.15 
       0.013688         11299.7         11235.6 
       0.019231         12156.8         12161.7 
      0.0249154         11749.5         11972.3 
      0.0312784           10904         11036.7 
      0.0375637         9829.93         9880.89 
      0.0433917         8701.51          8889.3 
      0.0492413         7984.08         8087.64 
      0.0555754         7201.34         7445.95 
      0.0619321         6918.17         6971.78 
       0.067871          6380.2         6597.81 
      0.0738098         6000.54         6220.55 
      0.0800417         5502.22         5780.07 
      0.0862327         5088.81         5296.48 
      0.0921407         4687.19         4821.36 
      0.0982031         4221.74         4361.18 
       0.104506          3928.7         3949.74 
       0.110769         3612.98         3627.83 
       0.116806         3365.76         3397.33 
       0.122832         3214.22         3227.61 
       0.129052         3014.25         3088.62 
       0.135211         2889.36         2959.63 
       0.141259         2787.45         2821.66 
       0.147318         2651.12         2664.21 
       0.153489         2452.73          2487.8 
       0.159709            2320         2306.08 
       0.165845         2218.97         2137.67 
       0.171974         2074.94         1991.87 
       0.178125         1966.62         1873.57 
       0.184229         1887.76         1782.79 
        0.19034         1776.51         1712.28 
       0.196428         1753.87         1653.39 
       0.202534         1702.58         1596.75 
       0.208729         1632.71         1535.02 
       0.214876         1560.34         1466.64 
       0.220989         1517.52         1392.76 
       0.227147         1439.62         1316.43 
        0.23329         1382.37         1243.38 
       0.239377         1356.88         1178.28 
       0.245482         1270.13         1122.59 
       0.251667         1261.15         1076.07 
       0.257832         1216.37          1037.8 
       0.263955         1179.63         1004.84 
       0.270079         1143.69         973.695 
        0.27624         1134.19          941.71 
       0.282372          1086.3         907.896 
        0.28843         1071.91         872.557 
       0.294538         1021.31         836.111 
       0.300721         1017.92         799.986 
        0.30691         973.703         766.243 
       0.313033         955.755         736.249 
       0.319153         934.122         710.002 
       0.325316         905.191         686.882 
        0.33145         883.744         666.325 
       0.337538          874.04         647.219 
       0.343633         849.814         628.476 
       0.349808         823.673         609.212 
       0.355968         819.285         589.566 
       0.362074         806.524         569.861 
       0.368217         784.565         550.293 
       0.374374         754.471         531.494 
       0.380519         750.803         513.943 
       0.386598         734.508         498.037 
       0.392688         731.856         483.485 
        0.39888         710.658         469.882 
       0.405048         699.898         457.195 
       0.411186         688.393          445.03 
       0.417313         675.967         433.088 
       0.423458         665.826         421.174 
       0.429607         653.281         409.286 
       0.435692         639.779         397.694 
       0.441815         636.523          386.36 
       0.447964         623.481         375.452 
       0.454126         609.123         365.123 
       0.460267         600.652         355.472 
       0.466387         594.278         346.418 
        0.47254         583.581         337.792 
       0.478662         582.154         329.577 
       0.484765         566.553         321.631 
       0.490885         561.362         313.814 
       0.497035          551.12         306.093 
       0.503198         543.734         298.512 
       0.509342         539.176         291.132 
       0.515458         534.819         284.008 
       0.521598          524.67         277.129 
       0.527764         513.809         270.532 
       0.533884         512.402         264.272 
           0.54         505.809         258.276 
       0.546137         504.103         252.488 
       0.552299         494.782         246.872 
       0.558452         491.747         241.425 
       0.564573         483.712         236.131 
       0.570708         477.317         230.939 
       0.576825         468.161         225.888 
       0.582926          466.81          220.99 
       0.589034         462.076         216.237 
       0.595184         457.957         211.606 
       0.601379         453.296         207.097 
       0.607522         446.204         202.777 
       0.613639         445.249         198.621 
       0.619772         433.651         194.586 
       0.625918         432.809         190.661 
       0.632068         427.111         186.837 
       0.638161         425.506         183.137 
         0.6443          417.37         179.498 
       0.650464         415.187         175.938 
       0.656582         414.233         172.499 
       0.662703         410.374         169.155 
       0.668861          403.33         165.889 
       0.675024         400.084         162.713 
       0.681124         398.324         159.657 
       0.687237         393.845         156.677 
       0.693381         388.722         153.761 
       0.699536         385.094         150.916 
       0.705665         383.152         148.155 
       0.711789         379.095         145.466 
       0.717957         376.195         142.826 
        0.72409         372.698         140.265 
       0.730186          369.09         137.782 
       0.736317          365.92         135.346 
       0.742472          364.61          132.96 
       0.748622         361.066         130.634 
        0.75476         357.732          128.37 
       0.760888         353.306         126.165 
       0.767043          353.22         124.005 
       0.773185         348.428         121.902 
       0.779291         343.486          119.86 
       0.785407         342.311         117.864 
       0.791564         339.007         115.901 
       0.797719         336.491         113.984 
       0.803834         334.125         112.123 
       0.809972         331.706         110.297 
       0.816124         332.143         108.508 
       0.822261         326.246         106.763 
       0.828378         324.822         105.063 
       0.834502         323.538         103.399 
       0.840667         318.547         101.761 
       0.846816         317.708         100.163 
       0.852925         314.929         98.6099 
       0.859047         313.588         97.0873 
       0.865192         311.012         95.5924 
       0.871341         307.967         94.1284 
       0.877463         306.069         92.7022 
       0.883569         303.799         91.3096 
       0.889708         301.522         89.9389 
       0.895864          297.88         88.5932 
       0.902008         297.547         87.2782 
       0.908149         295.738         85.9911 
       0.914301          292.29         84.7281 
       0.920448         289.834         83.4921 
       0.926574         288.254         82.2854 
       0.932687         287.887         81.1054 
       0.938823         284.367         79.9446 
       0.944975         283.106         78.8041 
       0.951105         281.297         77.6903 
       0.957225         278.513         76.6002 
       0.963368         275.449         75.5275 
       0.969511          274.06         74.4756 
       0.975621         271.934         73.4497 
       0.981748         272.318         72.4407 
       0.987916         268.921         71.4445 
        0.99406         266.441         70.4711 
        1.00019         266.381         69.5179 
        1.00632         263.933         68.5834 
        1.01246         261.856          67.665 
        1.01859         261.242          66.765 
        1.02471         258.702         65.8827 
        1.03085         255.967         65.0134 
        1.03698         255.007         64.1619 
        1.04314         253.343         63.3222 
        1.04929         251.122         62.4997 
        1.05541         250.392         61.6952 
        1.06154         248.215         60.9031 
        1.06769          247.56         60.1239 
        1.07382         245.761          59.361 
        1.07993         243.865         58.6133 
        1.08607         242.785         57.8754 
        1.09222         241.057         57.1497 
        1.09836         238.843         56.4374 
        1.10449         236.745         55.7382 
        1.11063          235.21         55.0502 
        1.11677         234.746         54.3742 
         1.1229         232.718         53.7109 
        1.12903         231.403         53.0582 
        1.13518         230.231         52.4159 
        1.14131          228.43         51.7847 
        1.14745         227.872         51.1644 
        1.15359         225.662         50.5542 
        1.15973         225.279         49.9538 
        1.16584          222.64          49.366 
        1.17197         222.135          48.787 
        1.17811         220.479         48.2155 
        1.18424         219.143         47.6549 
        1.19038         218.392         47.1018 
        1.19652         216.826         46.5577 
        1.20267          215.67         46.0223 
        1.20881         214.074         45.4956 
        1.21495          212.59          44.978 
        1.22108         211.965         44.4686 
         1.2272         210.146         43.9684 
        1.23334         208.863         43.4748 
        1.23949         207.176         42.9876 
        1.24562         206.455         42.5094 
        1.25174         203.848         42.0393 
        1.25789         203.159         41.5748 
        1.26402         202.307         41.1183 
        1.27014         200.882         40.6699 
        1.27628         199.966         40.2268 
        1.28244         199.213         39.7895 
        1.28858         197.642         39.3594 
        1.29471         195.645         38.9367 
        1.30084          194.75         38.5207 
        1.30697         193.626         38.1101 
        1.31312         192.825          37.705 
        1.31925         191.693         37.3071 
        1.32537         190.746         36.9154 
        1.33151         189.013          36.528 
        1.33765         188.267         36.1465 
        1.34378         187.047         35.7711 
        1.34992         186.064         35.4009 
        1.35606         185.096         35.0352 
         1.3622         184.091         34.6754 
        1.36833         182.634         34.3215 
        1.37445         181.166         33.9728 
        1.38059         180.718         33.6279 
        1.38675         179.321          33.287 
        1.39288         178.631         32.9522 
        1.39901         178.056         32.6223 
        1.40515         176.778         32.2961 
         1.4113         174.872         31.9746 
        1.41742         174.513         31.6587 
        1.42355         172.968         31.3466 
         1.4297         172.084         31.0377 
        1.43585         170.644         30.7332 
        1.44198         170.361          30.434 
        1.44809         169.211         30.1393 
        1.45423         167.746         29.8475 
        1.46036         167.278         29.5601 
        1.46649         166.333         29.2764 
        1.47263         165.558         28.9963 
        1.47877         164.395           28.72 
        1.48491         163.095         28.4468 
        1.49104         162.434         28.1779 
        1.49718         160.809         27.9122 
        1.50333         160.219         27.6496 
        1.50947         159.399         27.3909 
         1.5156         158.553          27.136 
        1.52172         157.479         26.8843 
        1.52787         156.681         26.6353 
          1.534         156.005         26.3898 
        1.54013         154.461         26.1477 
        1.54627         154.062         25.9082 
        1.55241         152.924         25.6717 
        1.55855         152.255         25.4385 
        1.56467          151.37         25.2089 
         1.5708         150.308         24.9814 
        1.57695          149.53         24.7565 
        1.58308         148.802         24.5348 
        1.58922         148.242         24.3158 
        1.59535         146.986         24.0995 
         1.6015         146.471         23.8856 
        1.60764          145.36         23.6744 
        1.61376         144.665         23.4663 
        1.61989         143.834         23.2606 
        1.62604         142.987         23.0569 
        1.63218         142.236         22.8558 
        1.63831         141.277         22.6576 
        1.64444          140.53         22.4617 
        1.65059         139.868         22.2677 
        1.65673         138.791         22.0762 
        1.66285         138.544         21.8875 
        1.66898         137.501         21.7009 
        1.67512         136.769         21.5162 
        1.68127         135.801         21.3335 
         1.6874         134.565         21.1533 
        1.69353          134.15         20.9753 
        1.69967          133.63          20.799 
        1.70581         132.796         20.6248 
        1.71193         132.035         20.4532 
        1.71806         131.152         20.2833 
        1.72421          130.74          20.115 
        1.73035         129.659         19.9488 
        1.73649         129.056         19.7845 
        1.74262         128.488         19.6222 
        1.74876         127.797         19.4616 
        1.75489         126.622         19.3032 
        1.76101         126.313         19.1466 
        1.76715         125.158         18.9916 
        1.77329         124.839          18.838 
        1.77943         124.053         18.6862 
        1.78557         123.406         18.5362 
        1.79171         122.647         18.3879 
        1.79785         122.001         18.2411 
        1.80399         121.329          18.096 
        1.81012         120.742         17.9527 
        1.81625         119.886         17.8111 
        1.82239         119.606         17.6707 
        1.82853         119.006         17.5319 
        1.83466          118.03         17.3948 
        1.84078         117.719         17.2593 
        1.84692         116.672          17.125 
        1.85306         115.952          16.992 
         1.8592         115.235         16.8607 
        1.86533         114.778         16.7308 
        1.87147         113.811         16.6021 
        1.87761         113.516         16.4748 
        1.88375         112.685         16.3489 
        1.88988         112.085         16.2245 
        1.89601         111.488         16.1013 
        1.90215         111.023         15.9794 
        1.90829         110.247         15.8587 
        1.91442         109.977         15.7393 
        1.92056         109.233         15.6213 
         1.9267         108.608         15.5043 
        1.93284         107.817         15.3885 
        1.93897         107.343         15.2741 
        1.94509         106.841         15.1611 
        1.95123         106.259         15.0489 
        1.95737         105.851         14.9379 
        1.96349         105.076         14.8282 
        1.96964         104.144         14.7194 
        1.97578         104.047         14.6116 
        1.98192         103.236          14.505 
        1.98805         102.489         14.3996 
        1.99419         101.967         14.2952 
        2.00033         101.581         14.1918 
        2.00647         101.053         14.0895 
         2.0126          100.49         13.9883 
        2.01874         99.7733          13.888 
        2.02488         99.3927         13.7886 
        2.03101         98.8515         13.6903 
        2.03714         98.2055         13.5932 
        2.04328         97.7185         13.4968 
        2.04941         97.0701         13.4015 
        2.05554         96.6341         13.3071 
        2.06167         96.1174         13.2136 
        2.06781         95.5932         13.1209 
        2.07396         95.0468          13.029 
        2.08009         94.4306         12.9382 
        2.08622         94.1219         12.8483 
        2.09237         93.4704         12.7591 
        2.09851         93.0489         12.6708 
        2.10464         92.5485         12.5834 
        2.11077         91.9054          12.497 
        2.11691         91.6242         12.4112 
        2.12305         91.0787         12.3262 
        2.12918         90.4765         12.2422 
        2.13531         90.1724         12.1589 
        2.14145         89.2831         12.0763 
         2.1476         89.0896         11.9944 
        2.15372         88.6177         11.9136 
        2.15985         88.1492         11.8335 
        2.16599         87.6635         11.7539 
        2.17213          87.169         11.6751 
        2.17827         86.7155         11.5971 
         2.1844         86.1745         11.5199 
        2.19054         85.8958         11.4433 
        2.19666          85.291         11.3676 
         2.2028         84.9714         11.2924 
        2.20893         84.4078          11.218 
        2.21508         83.8515         11.1441 
        2.22122         83.6824         11.0708 
        2.22736          83.012         10.9984 
        2.23349         82.7169         10.9266 
        2.23962         82.1363         10.8555 
        2.24577         81.6377         10.7849 
         2.2519         81.4303         10.7151 
        2.25802         80.8296         10.6459 
        2.26417         80.3728         10.5772 
        2.27031         80.1461         10.5091 
        2.27644          79.577         10.4418 
        2.28257         79.0499          10.375 
        2.28872         78.7964         10.3087 
        2.29486         78.4443          10.243 
        2.30099         77.9058         10.1781 
        2.30712         77.5058         10.1136 
        2.31326         77.0741         10.0496 
         2.3194         76.7708         9.98624 
        2.32553         76.2927          9.9235 
        2.33166         75.8175         9.86133 
         2.3378         75.3587         9.79961 
        2.34394         75.0425         9.73841 
        2.35007         74.5847         9.67782 
        2.35619         74.0985         9.61782 
        2.36233         73.7179         9.55819 
        2.36848         73.5114         9.49894 
        2.37462         73.1876         9.44033 
        2.38075         72.8288         9.38227 
        2.38689         72.3756         9.32465 
        2.39303          72.015         9.26753 
        2.39916         71.8057         9.21095 
        2.40529           71.26         9.15485 
        2.41143         70.8032         9.09917 
        2.41757         70.6079         9.04394 
         2.4237         70.2135         8.98927 
        2.42983           69.78         8.93506 
        2.43598         69.3914         8.88116 
        2.44211         69.0555         8.82779 
        2.44823          68.707         8.77499 
        2.45437         68.2171         8.72247 
        2.46052         67.8913         8.67035 
        2.46665         67.5696         8.61874 
        2.47279         67.2573         8.56757 
        2.47892         66.9567         8.51679 
        2.48507         66.4844         8.46638 
         2.4912         66.2667         8.41647 
