# k  (h/Mpc)    Pcb(k)  (Mpc/h)^3    Pcb_linear(k)  (Mpc/h)^3
     0.00783031         1087.31          1094.9 
       0.013688         1377.73         1392.48 
       0.019231         1434.13          1440.8 
      0.0249154         1355.53         1355.46 
      0.0312784         1186.66         1188.14 
      0.0375637          1012.1         1014.68 
      0.0433917         880.716         878.956 
      0.0492413          776.37          776.98 
      0.0555754         704.136         701.672 
      0.0619321         646.368         651.143 
       0.067871         613.273         614.207 
      0.0738098         576.872         577.372 
      0.0800417         533.563         532.948 
      0.0862327         481.754         482.446 
      0.0921407         431.376         431.851 
      0.0982031         384.098         382.659 
       0.104506         338.544         339.179 
       0.110769         306.179         306.166 
       0.116806         285.888         283.802 
       0.122832         269.152         268.742 
       0.129052         258.858          257.69 
       0.135211         249.791          247.96 
       0.141259         237.656         237.096 
       0.147318         223.045         223.724 
       0.153489         208.036         207.764 
       0.159709         191.974         190.623 
       0.165845         174.198         174.395 
       0.171974          162.71         160.309 
       0.178125         151.493         149.085 
       0.184229          142.39         140.867 
        0.19034         137.544          134.99 
       0.196428         132.808         130.557 
       0.202534         127.204         126.541 
       0.208729          123.82         122.072 
       0.214876          119.14         116.798 
       0.220989         111.655         110.725 
       0.227147         106.701         104.136 
        0.23329         100.555         97.6226 
       0.239377         95.1222         91.7259 
       0.245482         89.8394         86.6979 
       0.251667         85.2907         82.6089 
       0.257832         83.0335          79.418 
       0.263955         79.5751         76.8601 
       0.270079         77.1725         74.5833 
        0.27624         74.3609         72.2814 
       0.282372         71.9785         69.7908 
        0.28843         70.1954         67.0749 
       0.294538         67.0413         64.1538 
       0.300721         63.6692          61.157 
        0.30691         61.5558         58.2921 
       0.313033         58.7888         55.7251 
       0.319153         57.2472         53.4967 
       0.325316         54.5748         51.5873 
        0.33145         52.8258          49.958 
       0.337538         51.4445          48.509 
       0.343633         50.1712         47.1274 
       0.349808         48.5719         45.7139 
       0.355968         47.0309         44.2519 
       0.362074         45.9324          42.746 
       0.368217         44.3537         41.2129 
       0.374374         43.2006         39.7052 
       0.380519         41.3192         38.2799 
       0.386598         39.9589         36.9845 
       0.392688         38.7124         35.8092 
        0.39888         37.8768         34.7349 
       0.405048         36.9544         33.7571 
       0.411186         35.9565         32.8417 
       0.417313         34.9962          31.957 
       0.423458         33.9484         31.0743 
       0.429607         33.3386         30.1869 
       0.435692         32.6341         29.3102 
       0.441815         31.4124         28.4384 
       0.447964         30.4157         27.5893 
       0.454126          29.834         26.7811 
       0.460267         29.3913         26.0245 
       0.466387         28.5133           25.32 
        0.47254         28.0078         24.6584 
       0.478662          27.194          24.037 
       0.484765         26.5942          23.442 
       0.490885         25.8454         22.8619 
       0.497035         25.2959         22.2903 
       0.503198         24.7847          21.726 
       0.509342         24.0839         21.1718 
       0.515458         23.7214         20.6337 
       0.521598         23.1656         20.1118 
       0.527764         22.7961         19.6088 
       0.533884         22.1437         19.1314 
           0.54         21.7399         18.6768 
       0.546137          21.101          18.242 
       0.552299         20.7293         17.8228 
       0.558452         20.2914         17.4181 
       0.564573         20.0115         17.0259 
       0.570708         19.5447         16.6423 
       0.576825         19.2072         16.2692 
       0.582926         18.8169         15.9059 
       0.589034         18.4574         15.5515 
       0.595184         18.2054          15.205 
       0.601379         17.7173         14.8678 
       0.607522         17.4064         14.5458 
       0.613639         17.0495         14.2369 
       0.619772         16.7919         13.9377 
       0.625918         16.4421         13.6472 
       0.632068         16.2538         13.3648 
       0.638161         15.9252         13.0925 
         0.6443         15.6319         12.8253 
       0.650464         15.2595         12.5641 
       0.656582         15.1427         12.3115 
       0.662703         14.9259         12.0653 
       0.668861         14.5248         11.8243 
       0.675024         14.3018         11.5897 
       0.681124          14.255         11.3643 
       0.687237         13.9373         11.1451 
       0.693381         13.5919         10.9313 
       0.699536         13.5175         10.7232 
       0.705665          13.263         10.5216 
       0.711789         12.9997         10.3254 
       0.717957         12.7379         10.1325 
        0.72409         12.6197         9.94539 
       0.730186         12.5254         9.76389 
       0.736317         12.2445         9.58586 
       0.742472         12.0928         9.41164 
       0.748622         11.9081         9.24204 
        0.75476         11.6079         9.07721 
       0.760888         11.5329         8.91687 
       0.767043         11.2989         8.75993 
       0.773185         11.1649         8.60721 
       0.779291         11.0941         8.45906 
       0.785407         10.8758          8.3142 
       0.791564         10.7517          8.1718 
       0.797719         10.5429         8.03277 
       0.803834         10.4595         7.89784 
       0.809972         10.2648         7.76552 
       0.816124         10.1427         7.63597 
       0.822261         10.0157         7.50975 
       0.828378         9.87559         7.38681 
       0.834502         9.76068         7.26659 
       0.840667         9.65987         7.14832 
       0.846816         9.46072         7.03308 
       0.852925         9.37747         6.92115 
       0.859047         9.25471         6.81146 
       0.865192         9.12774         6.70382 
       0.871341         9.00066         6.59846 
       0.877463         8.88848         6.49586 
       0.883569         8.80766         6.39572 
       0.889708         8.67433         6.29718 
       0.895864         8.56668         6.20048 
       0.902008         8.44979         6.10602 
       0.908149         8.33775          6.0136 
       0.914301         8.26835         5.92296 
       0.920448         8.15845         5.83429 
       0.926574         8.11026         5.74777 
       0.932687         7.97496         5.66319 
       0.938823         7.85405         5.58004 
       0.944975         7.80048         5.49838 
       0.951105         7.67338         5.41867 
       0.957225         7.62743         5.34069 
       0.963368         7.53286           5.264 
       0.969511         7.44609         5.18883 
       0.975621         7.35609         5.11554 
       0.981748         7.23751          5.0435 
       0.987916         7.17874         4.97241 
        0.99406         7.12819         4.90297 
        1.00019         7.05339         4.83501 
        1.00632         6.98317         4.76841 
        1.01246          6.8877         4.70298 
        1.01859         6.81262          4.6389 
        1.02471         6.71378          4.5761 
        1.03085         6.68387         4.51426 
        1.03698         6.61119          4.4537 
        1.04314         6.54346         4.39401 
        1.04929         6.45014         4.33557 
        1.05541         6.39368         4.27843 
        1.06154         6.33926         4.22219 
        1.06769         6.30805         4.16689 
        1.07382         6.19695         4.11277 
        1.07993         6.12908         4.05974 
        1.08607         6.09677         4.00743 
        1.09222         6.01472         3.95601 
        1.09836         6.00174         3.90555 
        1.10449         5.87776         3.85604 
        1.11063         5.85402         3.80734 
        1.11677         5.80438         3.75951 
         1.1229         5.74356         3.71259 
        1.12903         5.70362         3.66643 
        1.13518         5.61787         3.62102 
        1.14131         5.56857         3.57642 
        1.14745         5.50379          3.5326 
        1.15359         5.46018          3.4895 
        1.15973         5.40457         3.44712 
        1.16584         5.36301         3.40563 
        1.17197         5.30845         3.36477 
        1.17811         5.25747         3.32447 
        1.18424          5.2113         3.28494 
        1.19038         5.17033         3.24595 
        1.19652         5.13285         3.20762 
        1.20267         5.08784          3.1699 
        1.20881         5.03456         3.13281 
        1.21495         4.99203         3.09637 
        1.22108         4.95127         3.06052 
         1.2272         4.89114         3.02533 
        1.23334          4.8833         2.99062 
        1.23949         4.82003         2.95637 
        1.24562         4.78521         2.92276 
        1.25174         4.75337         2.88973 
        1.25789         4.68497         2.85711 
        1.26402         4.65583         2.82506 
        1.27014         4.62103         2.79358 
        1.27628         4.57355         2.76249 
        1.28244         4.54952         2.73182 
        1.28858         4.51921         2.70166 
        1.29471         4.45755         2.67202 
        1.30084         4.42146         2.64286 
        1.30697         4.40258          2.6141 
        1.31312         4.36179         2.58572 
        1.31925         4.32442         2.55786 
        1.32537         4.29764         2.53044 
        1.33151         4.25474         2.50332 
        1.33765         4.22431         2.47662 
        1.34378         4.20377         2.45037 
        1.34992         4.16446         2.42448 
        1.35606         4.13486         2.39891 
         1.3622         4.10266         2.37376 
        1.36833         4.06138         2.34903 
        1.37445         4.02504         2.32467 
        1.38059         3.99761         2.30058 
        1.38675         3.96841         2.27678 
        1.39288          3.9499         2.25341 
        1.39901         3.90384         2.23039 
        1.40515         3.88267         2.20763 
         1.4113         3.85498          2.1852 
        1.41742         3.82139         2.16317 
        1.42355         3.79203         2.14141 
         1.4297         3.77174         2.11988 
        1.43585         3.74471         2.09866 
        1.44198         3.71318         2.07781 
        1.44809         3.69476         2.05728 
        1.45423         3.66541         2.03696 
        1.46036         3.64114         2.01695 
        1.46649         3.60286         1.99721 
        1.47263         3.59354         1.97771 
        1.47877         3.56813         1.95849 
        1.48491         3.53681         1.93949 
        1.49104         3.51294         1.92079 
        1.49718         3.49336         1.90232 
        1.50333         3.46376         1.88407 
        1.50947         3.43626         1.86609 
         1.5156         3.41885         1.84838 
        1.52172         3.39714          1.8309 
        1.52787         3.37417         1.81361 
          1.534         3.35339         1.79657 
        1.54013          3.3282         1.77976 
        1.54627         3.30497         1.76314 
        1.55241         3.27708         1.74673 
        1.55855         3.26356         1.73056 
        1.56467         3.24175         1.71464 
         1.5708         3.21964         1.69887 
        1.57695         3.19013         1.68328 
        1.58308         3.16883         1.66792 
        1.58922         3.15994         1.65274 
        1.59535         3.13287         1.63776 
         1.6015         3.10883         1.62295 
        1.60764         3.09672         1.60832 
        1.61376         3.07013         1.59392 
        1.61989         3.04917         1.57969 
        1.62604         3.02832         1.56559 
        1.63218         3.01928         1.55168 
        1.63831         3.00425         1.53797 
        1.64444         2.97905         1.52442 
        1.65059         2.96679           1.511 
        1.65673         2.93861         1.49776 
        1.66285         2.92274         1.48472 
        1.66898         2.90677         1.47182 
        1.67512         2.88315         1.45906 
        1.68127         2.86587         1.44644 
         1.6874         2.85984         1.43399 
        1.69353         2.82914          1.4217 
        1.69967         2.81628         1.40953 
        1.70581         2.80549          1.3975 
        1.71193          2.7757         1.38567 
        1.71806         2.76559         1.37394 
        1.72421         2.75288         1.36233 
        1.73035         2.73165         1.35086 
        1.73649         2.72064         1.33953 
        1.74262         2.70406         1.32834 
        1.74876          2.6872         1.31727 
        1.75489         2.67131         1.30636 
        1.76101         2.65239         1.29556 
        1.76715         2.64428         1.28488 
        1.77329         2.62428         1.27431 
        1.77943         2.61024         1.26384 
        1.78557         2.59643         1.25352 
        1.79171         2.58469         1.24331 
        1.79785         2.56941         1.23321 
        1.80399         2.55303         1.22322 
        1.81012          2.5382         1.21336 
        1.81625         2.51972         1.20361 
        1.82239         2.51135         1.19396 
        1.82853         2.49617         1.18442 
        1.83466         2.47538         1.17499 
        1.84078         2.46471         1.16567 
        1.84692         2.45251         1.15644 
        1.85306         2.44167          1.1473 
         1.8592         2.42651         1.13828 
        1.86533         2.41423         1.12935 
        1.87147         2.40181         1.12052 
        1.87761          2.3918         1.11177 
        1.88375         2.37557         1.10313 
        1.88988         2.36421         1.09458 
        1.89601         2.34677         1.08613 
        1.90215         2.33428         1.07776 
        1.90829         2.32911         1.06948 
        1.91442         2.31072         1.06128 
        1.92056         2.30464         1.05318 
         1.9267         2.29243         1.04516 
        1.93284         2.27813         1.03722 
        1.93897         2.26157         1.02937 
        1.94509         2.25541         1.02162 
        1.95123         2.24121         1.01394 
        1.95737         2.23336         1.00632 
        1.96349         2.21913         0.99881 
        1.96964         2.21019        0.991351 
        1.97578         2.19619        0.983965 
        1.98192          2.1811         0.97667 
        1.98805         2.17601        0.969448 
        1.99419         2.16208        0.962299 
        2.00033         2.14884        0.955219 
        2.00647         2.14536        0.948213 
         2.0126         2.13463        0.941289 
        2.01874         2.12257        0.934424 
        2.02488         2.10994        0.927621 
        2.03101         2.09952          0.9209 
        2.03714         2.09286        0.914251 
        2.04328         2.08038        0.907661 
        2.04941         2.07094        0.901141 
        2.05554         2.06084        0.894691 
        2.06167         2.04829        0.888295 
        2.06781         2.03991        0.881962 
        2.07396         2.03043        0.875681 
        2.08009         2.02354        0.869473 
        2.08622         2.01143        0.863332 
        2.09237         2.00629        0.857239 
        2.09851         1.98967        0.851203 
        2.10464         1.98583        0.845237 
        2.11077         1.97721        0.839334 
        2.11691         1.96345        0.833476 
        2.12305         1.95515        0.827673 
        2.12918         1.94411         0.82194 
        2.13531         1.93724        0.816261 
        2.14145         1.92924        0.810622 
         2.1476         1.91566        0.805031 
        2.15372         1.90844         0.79952 
        2.15985         1.89968        0.794056 
        2.16599         1.89495        0.788627 
        2.17213         1.88586        0.783255 
        2.17827         1.87434        0.777935 
         2.1844         1.86614        0.772669 
        2.19054         1.85809         0.76745 
        2.19666          1.8504        0.762287 
         2.2028         1.84038        0.757167 
        2.20893          1.8334        0.752091 
        2.21508         1.82641        0.747057 
        2.22122         1.81793        0.742067 
        2.22736          1.8065        0.737134 
        2.23349         1.79895        0.732246 
        2.23962         1.79556        0.727401 
        2.24577         1.78515        0.722595 
         2.2519         1.77576         0.71784 
        2.25802         1.77175        0.713135 
        2.26417         1.76292         0.70846 
        2.27031         1.75445        0.703822 
        2.27644         1.74751         0.69924 
        2.28257         1.73646        0.694698 
        2.28872         1.73358        0.690189 
        2.29486         1.72418        0.685721 
        2.30099         1.71473        0.681301 
        2.30712         1.71231        0.676919 
        2.31326         1.70324        0.672568 
         2.3194         1.69416        0.668258 
        2.32553         1.68925        0.663993 
        2.33166         1.68424        0.659767 
         2.3378         1.67556        0.655573 
        2.34394         1.66693        0.651413 
        2.35007         1.65645        0.647296 
        2.35619         1.65442        0.643219 
        2.36233         1.64702        0.639169 
        2.36848         1.64083        0.635144 
        2.37462         1.63362        0.631163 
        2.38075         1.62669         0.62722 
        2.38689         1.62225        0.623308 
        2.39303          1.6157         0.61943 
        2.39916         1.60604        0.615589 
        2.40529         1.60151        0.611781 
        2.41143         1.59332        0.608003 
        2.41757         1.58924        0.604254 
         2.4237          1.5817        0.600545 
        2.42983         1.57444        0.596867 
        2.43598         1.57036        0.593211 
        2.44211         1.56276        0.589591 
        2.44823         1.55738         0.58601 
        2.45437         1.55104        0.582448 
        2.46052          1.5455        0.578914 
        2.46665         1.54011        0.575415 
        2.47279         1.53242        0.571946 
        2.47892         1.52646        0.568504 
        2.48507         1.52036        0.565087 
         2.4912         1.51506        0.561705 
