# k  (h/Mpc)    P(k)  (Mpc/h)^3    P_linear(k)  (Mpc/h)^3
     0.00783031         1167.98         1176.95 
       0.013688         1523.56         1541.35 
       0.019231         1632.11         1640.87 
      0.0249154         1590.91         1591.82 
      0.0312784         1444.57         1447.98 
      0.0375637         1279.57         1284.65 
      0.0433917         1151.63          1150.7 
      0.0492413         1042.97         1045.61 
      0.0555754         964.151         962.653 
      0.0619321         891.398         900.149 
       0.067871         845.363         848.325 
      0.0738098         792.148         794.064 
      0.0800417         730.652         730.722 
      0.0862327         661.472         663.204 
      0.0921407         598.049         599.609 
      0.0982031         541.867         540.826 
       0.104506         488.581         490.749 
       0.110769         451.787         453.208 
       0.116806         428.824         426.863 
       0.122832         405.939         406.881 
       0.129052         389.335         388.908 
       0.135211         372.362         370.438 
       0.141259         350.087         349.933 
       0.147318         325.341         327.083 
       0.153489         303.036         302.862 
       0.159709         281.601         279.546 
       0.165845         258.611          259.38 
       0.171974         246.236         242.982 
       0.178125          233.59         230.254 
       0.184229         221.953         220.515 
        0.19034         215.606         212.426 
       0.196428         207.718         204.774 
       0.202534           197.1         196.583 
       0.208729         189.995         187.346 
       0.214876         181.435         177.428 
       0.220989         169.011         167.382 
       0.227147         162.381         157.767 
        0.23329         154.458         149.235 
       0.239377         148.004         142.095 
       0.245482          141.35         136.211 
       0.251667         135.575         131.262 
       0.257832         132.808         126.906 
       0.263955         127.097         122.735 
       0.270079          122.78         118.414 
        0.27624         117.425         113.798 
       0.282372         113.097         109.006 
        0.28843          110.23         104.252 
       0.294538         105.223         99.6678 
       0.300721          100.32         95.4223 
        0.30691         97.8009         91.6715 
       0.313033         94.0746         88.4385 
       0.319153         92.3165          85.589 
       0.325316         88.3445         82.9614 
        0.33145         85.6911         80.4478 
       0.337538         83.3433         77.9459 
       0.343633         81.0062          75.396 
       0.349808         78.2525         72.7743 
       0.355968         75.6631         70.1828 
       0.362074         73.9236         67.7052 
       0.368217         71.5926         65.3693 
       0.374374         70.0361         63.2194 
       0.380519         67.1375         61.2634 
       0.386598         65.2544         59.4904 
       0.392688         63.4564         57.8267 
        0.39888         62.2324         56.2044 
       0.405048         60.7542         54.6208 
       0.411186         59.1479         53.0528 
       0.417313         57.5232         51.5009 
       0.423458         55.8167         49.9702 
       0.429607         54.8257         48.4849 
       0.435692         53.7665         47.0841 
       0.441815          51.778          45.755 
       0.447964         50.2828         44.5008 
       0.454126         49.4196         43.3207 
       0.460267         48.8957         42.2056 
       0.466387         47.5053         41.1369 
        0.47254         46.7731         40.0917 
       0.478662         45.3834         39.0752 
       0.484765         44.4352         38.0805 
       0.490885         43.1882         37.1037 
       0.497035         42.4186         36.1506 
       0.503198         41.4722         35.2313 
       0.509342         40.4013         34.3531 
       0.515458          39.882         33.5169 
       0.521598         38.9693         32.7154 
       0.527764         38.4493         31.9447 
       0.533884         37.4821         31.2073 
           0.54         36.7826         30.4921 
       0.546137         35.7123         29.7925 
       0.552299         35.1307         29.1081 
       0.558452         34.4345         28.4428 
       0.564573         34.0546         27.7987 
       0.570708         33.2006         27.1722 
       0.576825         32.7078          26.568 
       0.582926         32.1213         25.9869 
       0.589034          31.523         25.4262 
       0.595184         31.1207         24.8811 
       0.601379          30.298         24.3494 
       0.607522         29.8487         23.8372 
       0.613639         29.2982          23.341 
       0.619772         28.8595         22.8569 
       0.625918         28.2713         22.3848 
       0.632068         28.0209         21.9252 
       0.638161         27.4608         21.4823 
         0.6443         27.0109         21.0483 
       0.650464         26.3521         20.6251 
       0.656582         26.2002         20.2173 
       0.662703         25.8893         19.8214 
       0.668861         25.2021         19.4347 
       0.675024          24.883         19.0586 
       0.681124         24.7587         18.6966 
       0.687237          24.259          18.343 
       0.693381         23.7091         17.9966 
       0.699536         23.6226          17.658 
       0.705665         23.1888         17.3294 
       0.711789         22.7585         17.0094 
       0.717957          22.312         16.6954 
        0.72409         22.1311         16.3914 
       0.730186          21.998         16.0972 
       0.736317         21.5482          15.809 
       0.742472         21.2805          15.527 
       0.748622          20.958         15.2524 
        0.75476         20.4452          14.985 
       0.760888         20.3508         14.7244 
       0.767043         20.0007         14.4689 
       0.773185         19.7856           14.22 
       0.779291         19.6464         13.9783 
       0.785407         19.2835         13.7419 
       0.791564         19.1185         13.5095 
       0.797719          18.734         13.2827 
       0.803834         18.6289         13.0626 
       0.809972         18.2874         12.8468 
       0.816124         18.0903         12.6356 
       0.822261         17.8882         12.4298 
       0.828378         17.6649         12.2292 
       0.834502         17.4948          12.033 
       0.840667          17.319         11.8399 
       0.846816         16.9593         11.6516 
       0.852925         16.8639         11.4686 
       0.859047         16.6618         11.2892 
       0.865192         16.4389          11.113 
       0.871341         16.2142         10.9406 
       0.877463         16.0549         10.7726 
       0.883569         15.9421         10.6086 
       0.889708         15.6887         10.4472 
       0.895864         15.5007         10.2888 
       0.902008         15.3148          10.134 
       0.908149         15.1208         9.98258 
       0.914301         15.0362         9.83402 
       0.920448         14.8173         9.68865 
       0.926574         14.7395         9.54677 
       0.932687         14.5157         9.40806 
       0.938823         14.3324         9.27163 
       0.944975         14.2167         9.13763 
       0.951105         14.0386         9.00678 
       0.957225         13.9607         8.87875 
       0.963368         13.7773         8.75279 
       0.969511         13.6297         8.62929 
       0.975621         13.4905         8.50887 
       0.981748         13.3004         8.39045 
       0.987916         13.2036         8.27357 
        0.99406         13.1076         8.15937 
        1.00019         12.9864         8.04757 
        1.00632         12.8655         7.93799 
        1.01246         12.7209          7.8303 
        1.01859         12.5809          7.7248 
        1.02471         12.4222          7.6214 
        1.03085          12.386         7.51955 
        1.03698         12.2602         7.41979 
        1.04314         12.1297         7.32143 
        1.04929         11.9624          7.2251 
        1.05541         11.9038         7.13091 
        1.06154         11.7974         7.03818 
        1.06769         11.7423         6.94697 
        1.07382         11.5395          6.8577 
        1.07993         11.4333         6.77021 
        1.08607          11.385          6.6839 
        1.09222         11.2392         6.59903 
        1.09836         11.2176         6.51574 
        1.10449         11.0128         6.43399 
        1.11063         10.9848         6.35358 
        1.11677         10.9028         6.27457 
         1.1229          10.803         6.19706 
        1.12903         10.7289         6.12081 
        1.13518         10.5644         6.04578 
        1.14131         10.4982         5.97207 
        1.14745         10.3689         5.89963 
        1.15359         10.2998          5.8284 
        1.15973         10.2077         5.75832 
        1.16584         10.1337         5.68971 
        1.17197         10.0455         5.62214 
        1.17811         9.95612         5.55546 
        1.18424         9.88421         5.49007 
        1.19038          9.8206         5.42555 
        1.19652         9.74956          5.3621 
        1.20267         9.66691         5.29967 
        1.20881         9.57305         5.23826 
        1.21495         9.49457         5.17792 
        1.22108         9.44263         5.11855 
         1.2272         9.34681         5.06026 
        1.23334         9.32905         5.00275 
        1.23949         9.21807         4.94601 
        1.24562         9.14892          4.8903 
        1.25174         9.09484         4.83555 
        1.25789         8.97152         4.78147 
        1.26402         8.94239         4.72832 
        1.27014         8.88823         4.67612 
        1.27628          8.7824         4.62455 
        1.28244         8.76408         4.57366 
        1.28858         8.70589         4.52361 
        1.29471         8.58688         4.47443 
        1.30084         8.52483         4.42603 
        1.30697         8.50401         4.37828 
        1.31312         8.42132         4.33117 
        1.31925         8.36375         4.28491 
        1.32537         8.31582         4.23937 
        1.33151         8.24519         4.19434 
        1.33765         8.18225         4.14999 
        1.34378         8.16498         4.10637 
        1.34992         8.08449         4.06336 
        1.35606         8.02931         4.02088 
         1.3622          7.9696         3.97908 
        1.36833         7.91056         3.93798 
        1.37445         7.84875         3.89748 
        1.38059          7.8072         3.85744 
        1.38675         7.74547         3.81787 
        1.39288         7.69802         3.77901 
        1.39901          7.6316         3.74072 
        1.40515         7.59314         3.70287 
         1.4113         7.53419         3.66557 
        1.41742         7.49378         3.62892 
        1.42355         7.43271         3.59271 
         1.4297         7.39962         3.55689 
        1.43585         7.35334         3.52158 
        1.44198         7.29862         3.48688 
        1.44809          7.2663         3.45271 
        1.45423          7.2074         3.41889 
        1.46036         7.16819         3.38557 
        1.46649         7.11378          3.3527 
        1.47263         7.08378         3.32023 
        1.47877         7.03438         3.28821 
        1.48491         6.99743         3.25657 
        1.49104         6.94102         3.22541 
        1.49718         6.91506         3.19464 
        1.50333         6.86473         3.16422 
        1.50947         6.80028         3.13426 
         1.5156         6.79008         3.10474 
        1.52172         6.74936          3.0756 
        1.52787         6.70708         3.04678 
          1.534         6.66617         3.01836 
        1.54013         6.62705         2.99034 
        1.54627         6.58485         2.96263 
        1.55241         6.53324         2.93526 
        1.55855         6.51814         2.90829 
        1.56467         6.47011         2.88172 
         1.5708         6.43457         2.85542 
        1.57695         6.37707          2.8294 
        1.58308         6.34212         2.80377 
        1.58922         6.32266         2.77845 
        1.59535          6.2845         2.75345 
         1.6015         6.23583         2.72872 
        1.60764          6.2142         2.70431 
        1.61376         6.18032         2.68026 
        1.61989         6.12521          2.6565 
        1.62604          6.1002         2.63296 
        1.63218         6.07239         2.60973 
        1.63831         6.05229         2.58684 
        1.64444         6.00145         2.56421 
        1.65059         5.97743          2.5418 
        1.65673         5.94232         2.51969 
        1.66285         5.91213          2.4979 
        1.66898         5.87415         2.47636 
        1.67512         5.83652         2.45504 
        1.68127         5.80329         2.43395 
         1.6874          5.7908         2.41315 
        1.69353         5.73598         2.39261 
        1.69967         5.71907         2.37227 
        1.70581         5.68306         2.35217 
        1.71193         5.65588         2.33237 
        1.71806         5.63003         2.31277 
        1.72421         5.59602         2.29335 
        1.73035         5.56562         2.27418 
        1.73649         5.53872         2.25524 
        1.74262          5.5104         2.23652 
        1.74876         5.48849         2.21801 
        1.75489         5.45917         2.19975 
        1.76101         5.42149         2.18169 
        1.76715         5.41116         2.16382 
        1.77329         5.37873         2.14613 
        1.77943         5.34138         2.12862 
        1.78557         5.32208         2.11134 
        1.79171         5.30416         2.09425 
        1.79785         5.27013         2.07735 
        1.80399         5.23138         2.06064 
        1.81012         5.21402         2.04413 
        1.81625         5.18963         2.02781 
        1.82239         5.16652         2.01165 
        1.82853         5.13688         1.99567 
        1.83466         5.10011         1.97989 
        1.84078         5.08041         1.96429 
        1.84692         5.06031         1.94883 
        1.85306         5.03592         1.93352 
         1.8592         5.02012          1.9184 
        1.86533         4.99015         1.90346 
        1.87147         4.96786         1.88865 
        1.87761         4.95394           1.874 
        1.88375         4.92283         1.85952 
        1.88988         4.90002         1.84521 
        1.89601         4.86898         1.83104 
        1.90215         4.83896         1.81702 
        1.90829         4.83862         1.80314 
        1.91442          4.8005         1.78941 
        1.92056         4.79131         1.77584 
         1.9267         4.76287         1.76239 
        1.93284          4.7531         1.74908 
        1.93897         4.71101         1.73593 
        1.94509         4.69768         1.72294 
        1.95123         4.67593         1.71005 
        1.95737         4.65842         1.69729 
        1.96349         4.62605         1.68469 
        1.96964         4.60899         1.67218 
        1.97578         4.59434          1.6598 
        1.98192         4.56534         1.64756 
        1.98805         4.55584         1.63545 
        1.99419         4.53379         1.62346 
        2.00033         4.49818         1.61158 
        2.00647         4.49706         1.59983 
         2.0126         4.47165         1.58821 
        2.01874         4.45958         1.57669 
        2.02488         4.43147         1.56528 
        2.03101         4.40747           1.554 
        2.03714         4.40001         1.54285 
        2.04328         4.37663         1.53179 
        2.04941         4.35941         1.52085 
        2.05554         4.34489         1.51002 
        2.06167         4.31695         1.49929 
        2.06781         4.30551         1.48865 
        2.07396         4.28108         1.47811 
        2.08009         4.27204         1.46769 
        2.08622          4.2521         1.45738 
        2.09237          4.2447         1.44715 
        2.09851         4.20939         1.43701 
        2.10464         4.20142           1.427 
        2.11077         4.19172         1.41708 
        2.11691         4.16616         1.40725 
        2.12305         4.14584          1.3975 
        2.12918         4.13207         1.38787 
        2.13531          4.1108         1.37833 
        2.14145         4.10162         1.36886 
         2.1476         4.07324         1.35947 
        2.15372          4.0645         1.35021 
        2.15985         4.04764         1.34103 
        2.16599         4.03517         1.33191 
        2.17213         4.01823         1.32288 
        2.17827         3.99525         1.31395 
         2.1844         3.97778          1.3051 
        2.19054         3.96674         1.29633 
        2.19666         3.95201         1.28765 
         2.2028         3.92613         1.27905 
        2.20893         3.92144         1.27052 
        2.21508         3.91166         1.26206 
        2.22122          3.8838         1.25367 
        2.22736          3.8736         1.24538 
        2.23349          3.8543         1.23716 
        2.23962          3.8475         1.22902 
        2.24577          3.8242         1.22094 
         2.2519         3.81126         1.21294 
        2.25802         3.79794         1.20503 
        2.26417         3.78219         1.19717 
        2.27031         3.76555         1.18937 
        2.27644         3.75681         1.18167 
        2.28257         3.73809         1.17403 
        2.28872         3.72633         1.16645 
        2.29486         3.70736         1.15893 
        2.30099          3.6933          1.1515 
        2.30712         3.68533         1.14413 
        2.31326         3.66931         1.13681 
         2.3194         3.65474         1.12956 
        2.32553         3.64637         1.12239 
        2.33166         3.63522         1.11528 
         2.3378         3.61857         1.10822 
        2.34394         3.60187         1.10122 
        2.35007         3.58313          1.0943 
        2.35619         3.57768         1.08744 
        2.36233         3.56381         1.08062 
        2.36848         3.55321         1.07385 
        2.37462         3.54013         1.06715 
        2.38075         3.52934         1.06052 
        2.38689         3.51633         1.05393 
        2.39303         3.50357         1.04741 
        2.39916         3.48527         1.04094 
        2.40529         3.47602         1.03453 
        2.41143         3.47013         1.02817 
        2.41757         3.45873         1.02186 
         2.4237         3.44082         1.01562 
        2.42983         3.43442         1.00943 
        2.43598         3.42143         1.00327 
        2.44211         3.40388        0.997177 
        2.44823         3.39392        0.991147 
        2.45437         3.37952         0.98515 
        2.46052         3.36997        0.979199 
        2.46665         3.36097        0.973307 
        2.47279         3.33885        0.967465 
        2.47892         3.33622        0.961668 
        2.48507         3.32085        0.955914 
         2.4912         3.31664        0.950217 
