# k  (h/Mpc)    Pcb(k)  (Mpc/h)^3    Pcb_linear(k)  (Mpc/h)^3
     0.00783031         8322.89         8358.44 
       0.013688         10703.9         10934.2 
       0.019231         11494.3         11637.6 
      0.0249154         11281.2         11288.9 
      0.0312784         10160.7         10268.5 
      0.0375637         8951.92         9110.04 
      0.0433917          8095.2         8160.04 
      0.0492413         7293.32         7414.82 
      0.0555754         6755.43         6826.49 
      0.0619321         6146.07         6383.24 
       0.067871          5864.7         6015.73 
      0.0738098         5517.13         5630.94 
      0.0800417         5087.42         5181.77 
      0.0862327         4598.42         4702.97 
      0.0921407          4171.8            4252 
      0.0982031         3809.97         3835.15 
       0.104506         3420.77         3480.04 
       0.110769         3173.81         3213.83 
       0.116806         3041.71         3027.01 
       0.122832         2863.14         2885.31 
       0.129052         2737.12         2757.85 
       0.135211         2648.66         2626.88 
       0.141259         2472.37         2481.47 
       0.147318         2288.81         2319.44 
       0.153489         2154.34         2147.68 
       0.159709         2047.84         1982.34 
       0.165845         1867.85         1839.34 
       0.171974         1816.33         1723.05 
       0.178125         1747.92          1632.8 
       0.184229         1625.86         1563.74 
        0.19034         1599.19         1506.37 
       0.196428         1553.36         1452.11 
       0.202534         1460.41         1394.02 
       0.208729         1431.45         1328.52 
       0.214876         1372.76         1258.19 
       0.220989         1289.31         1186.95 
       0.227147         1257.38         1118.77 
        0.23329          1208.4         1058.26 
       0.239377         1190.27         1007.63 
       0.245482         1132.86         965.911 
       0.251667         1091.52         930.813 
       0.257832         1080.32         899.924 
       0.263955         1027.81         870.344 
       0.270079          998.45         839.704 
        0.27624         957.256         806.977 
       0.282372         940.527         772.992 
        0.28843         931.357         739.282 
       0.294538         885.122         706.771 
       0.300721         861.409         676.668 
        0.30691          846.76         650.068 
       0.313033         812.514         627.141 
       0.319153         801.153         606.935 
       0.325316         788.713         588.302 
        0.33145         773.231         570.477 
       0.337538         746.781         552.735 
       0.343633         726.695         534.652 
       0.349808         710.263         516.063 
       0.355968         697.635         497.686 
       0.362074         676.675         480.116 
       0.368217         673.078         463.553 
       0.374374         661.541         448.305 
       0.380519         636.948         434.435 
       0.386598         630.754         421.863 
       0.392688         618.373         410.065 
        0.39888         602.174         398.561 
       0.405048         592.953         387.328 
       0.411186         590.351         376.213 
       0.417313         584.417         365.207 
       0.423458           566.9         354.352 
       0.429607         552.848          343.82 
       0.435692         545.079         333.887 
       0.441815         536.668         324.461 
       0.447964         526.503         315.568 
       0.454126         520.254         307.199 
       0.460267         512.363         299.292 
       0.466387         504.966         291.712 
        0.47254         497.407         284.301 
       0.478662         487.058         277.093 
       0.484765          482.65         270.038 
       0.490885         477.793         263.113 
       0.497035         469.262         256.354 
       0.503198         468.466         249.835 
       0.509342          457.23         243.607 
       0.515458          450.58         237.678 
       0.521598         443.832         231.994 
       0.527764         437.243         226.528 
       0.533884          435.98           221.3 
           0.54          429.67         216.227 
       0.546137         421.165         211.267 
       0.552299         420.608         206.413 
       0.558452         414.306         201.696 
       0.564573         409.921         197.128 
       0.570708          405.34         192.686 
       0.576825          398.19         188.401 
       0.582926         395.258          184.28 
       0.589034         390.184         180.304 
       0.595184         387.741         176.439 
       0.601379         381.261         172.668 
       0.607522         375.186         169.036 
       0.613639         373.339         165.518 
       0.619772         371.695         162.084 
       0.625918         366.315         158.737 
       0.632068         361.452         155.478 
       0.638161         358.399         152.337 
         0.6443         355.873         149.259 
       0.650464          350.86         146.258 
       0.656582         347.832         143.366 
       0.662703         345.541         140.559 
       0.668861         340.336         137.817 
       0.675024          338.51          135.15 
       0.681124         334.948         132.582 
       0.687237         332.096         130.075 
       0.693381         328.884         127.618 
       0.699536         325.536         125.218 
       0.705665         322.483         122.887 
       0.711789         320.683         120.618 
       0.717957         316.609         118.392 
        0.72409         313.856         116.236 
       0.730186         315.321          114.15 
       0.736317         309.661         112.106 
       0.742472         306.089         110.106 
       0.748622         302.686         108.159 
        0.75476         303.069         106.263 
       0.760888         299.536         104.415 
       0.767043          296.53         102.603 
       0.773185         295.015         100.838 
       0.779291         290.472         99.1236 
       0.785407         289.775         97.4472 
       0.791564         286.772         95.7993 
       0.797719         282.744         94.1909 
       0.803834         284.817         92.6304 
       0.809972         281.506         91.1004 
       0.816124         278.056         89.6025 
       0.822261         275.292         88.1429 
       0.828378         275.546         86.7208 
       0.834502         271.194         85.3294 
       0.840667         271.044         83.9598 
       0.846816         267.159         82.6245 
       0.852925         266.236         81.3269 
       0.859047          263.57         80.0546 
       0.865192          263.43         78.8056 
       0.871341         259.826         77.5826 
       0.877463          257.68         76.3913 
       0.883569         257.301         75.2284 
       0.889708         255.128         74.0839 
       0.895864         253.169         72.9605 
       0.902008         251.037         71.8631 
       0.908149         248.961         70.7892 
       0.914301         248.062         69.7357 
       0.920448         246.765         68.7048 
       0.926574         244.528         67.6987 
       0.932687         243.237         66.7151 
       0.938823         241.389         65.7477 
       0.944975         239.837         64.7974 
       0.951105         237.791         63.8695 
       0.957225         236.474         62.9616 
       0.963368          235.35         62.0684 
       0.969511         232.069         61.1926 
       0.975621         231.127         60.3387 
       0.981748         229.678         59.4989 
       0.987916         228.737         58.6701 
        0.99406         226.936         57.8602 
        1.00019         225.641         57.0675 
        1.00632         224.838         56.2904 
        1.01246         223.136         55.5268 
        1.01859         221.039         54.7787 
        1.02471         219.429         54.0454 
        1.03085         218.587         53.3231 
        1.03698         216.891         52.6157 
        1.04314         216.593         51.9182 
        1.04929         215.235         51.2351 
        1.05541         213.583         50.5672 
        1.06154         212.202         49.9096 
        1.06769         210.319         49.2629 
        1.07382         210.003         48.6298 
        1.07993         208.087         48.0094 
        1.08607         206.472         47.3974 
        1.09222         205.671         46.7955 
        1.09836         204.534         46.2048 
        1.10449         202.648         45.6252 
        1.11063         201.666         45.0549 
        1.11677         200.905         44.4947 
         1.1229         199.247          43.945 
        1.12903         198.692         43.4043 
        1.13518          197.26         42.8722 
        1.14131         196.181         42.3495 
        1.14745         194.542         41.8359 
        1.15359         192.769         41.3307 
        1.15973         192.501         40.8338 
        1.16584         191.693         40.3473 
        1.17197         190.494         39.8681 
        1.17811         188.734         39.3953 
        1.18424         187.896         38.9316 
        1.19038         186.809          38.474 
        1.19652         185.401         38.0241 
        1.20267         184.585         37.5814 
        1.20881         183.305         37.1459 
        1.21495         182.998          36.718 
        1.22108         181.521          36.297 
         1.2272         180.216         35.8837 
        1.23334         179.665         35.4758 
        1.23949         179.112         35.0734 
        1.24562         177.659         34.6784 
        1.25174         176.289         34.2902 
        1.25789         175.508         33.9067 
        1.26402         175.063         33.5298 
        1.27014         173.945         33.1596 
        1.27628         171.937         32.7939 
        1.28244         171.685          32.433 
        1.28858         170.583         32.0781 
        1.29471         169.642         31.7294 
        1.30084         168.644         31.3862 
        1.30697          167.91         31.0475 
        1.31312         166.822         30.7135 
        1.31925         165.495         30.3854 
        1.32537          165.18         30.0625 
        1.33151         164.246         29.7431 
        1.33765         162.654         29.4287 
        1.34378         162.745         29.1194 
        1.34992          161.91         28.8144 
        1.35606         160.699         28.5131 
         1.3622         160.307         28.2167 
        1.36833         158.488         27.9252 
        1.37445         158.348         27.6381 
        1.38059         157.245         27.3541 
        1.38675         156.403         27.0735 
        1.39288         155.418          26.798 
        1.39901         154.461         26.5264 
        1.40515         153.952          26.258 
         1.4113         153.208         25.9935 
        1.41742         151.991         25.7336 
        1.42355         151.767         25.4769 
         1.4297         150.526         25.2228 
        1.43585         149.605         24.9724 
        1.44198         148.519         24.7264 
        1.44809         147.585         24.4841 
        1.45423         147.431         24.2442 
        1.46036         146.344          24.008 
        1.46649         145.406         23.7748 
        1.47263         145.124         23.5446 
        1.47877         143.828         23.3176 
        1.48491         143.141         23.0932 
        1.49104         141.679         22.8722 
        1.49718         141.898          22.654 
        1.50333         141.087         22.4383 
        1.50947         140.303         22.2259 
         1.5156         139.436         22.0165 
        1.52172         138.677         21.8099 
        1.52787         137.934         21.6055 
          1.534          137.43          21.404 
        1.54013         136.648         21.2053 
        1.54627         135.657         21.0088 
        1.55241         135.079         20.8147 
        1.55855         134.399         20.6234 
        1.56467         133.369          20.435 
         1.5708         132.849         20.2485 
        1.57695         132.324          20.064 
        1.58308          131.54         19.8823 
        1.58922         131.325         19.7027 
        1.59535         130.696         19.5254 
         1.6015         129.408           19.35 
        1.60764         128.672         19.1769 
        1.61376         128.115         19.0064 
        1.61989         127.556         18.8379 
        1.62604         126.812          18.671 
        1.63218         126.406         18.5063 
        1.63831         125.417         18.3439 
        1.64444         124.744         18.1835 
        1.65059         123.967         18.0246 
        1.65673         123.568         17.8678 
        1.66285         123.039         17.7132 
        1.66898         122.044         17.5605 
        1.67512          121.74         17.4093 
        1.68127         120.968         17.2597 
         1.6874         120.227         17.1123 
        1.69353         119.465         16.9666 
        1.69967         119.235         16.8224 
        1.70581         118.698         16.6798 
        1.71193         117.906         16.5395 
        1.71806          117.16         16.4004 
        1.72421         116.598         16.2628 
        1.73035         116.259         16.1268 
        1.73649         115.458         15.9925 
        1.74262         114.864         15.8598 
        1.74876         114.152         15.7285 
        1.75489         113.699          15.599 
        1.76101          113.02          15.471 
        1.76715         112.344         15.3442 
        1.77329          111.92         15.2187 
        1.77943         111.191         15.0946 
        1.78557         110.813         14.9721 
        1.79171         110.316         14.8509 
        1.79785         109.468          14.731 
        1.80399          109.14         14.6125 
        1.81012         108.373         14.4955 
        1.81625         107.993         14.3797 
        1.82239         107.586         14.2651 
        1.82853         106.876         14.1518 
        1.83466         106.102         14.0399 
        1.84078         105.739         13.9293 
        1.84692         105.491         13.8197 
        1.85306         104.804         13.7111 
         1.8592         104.416         13.6039 
        1.86533         103.766         13.4979 
        1.87147         103.108         13.3929 
        1.87761         102.565          13.289 
        1.88375         101.948         13.1863 
        1.88988         101.313         13.0849 
        1.89601         101.107         12.9844 
        1.90215         100.418         12.8849 
        1.90829         99.8174         12.7865 
        1.91442         99.5854         12.6892 
        1.92056         99.0259         12.5929 
         1.9267         98.4918         12.4976 
        1.93284         98.0809         12.4032 
        1.93897         97.6861         12.3099 
        1.94509         96.9294         12.2178 
        1.95123         96.5698         12.1264 
        1.95737          95.994         12.0359 
        1.96349         95.5697         11.9466 
        1.96964         95.2108         11.8579 
        1.97578         94.5124           11.77 
        1.98192         94.0317         11.6833 
        1.98805         93.5651         11.5974 
        1.99419         93.0942         11.5123 
        2.00033         92.4789         11.4281 
        2.00647         92.3016         11.3448 
         2.0126         91.8117         11.2624 
        2.01874         91.4405         11.1807 
        2.02488         90.9177         11.0998 
        2.03101         90.4982         11.0198 
        2.03714         90.1282         10.9407 
        2.04328         89.5589         10.8623 
        2.04941         88.8943         10.7847 
        2.05554         88.7533         10.7079 
        2.06167         88.1642         10.6318 
        2.06781         87.6224         10.5564 
        2.07396          87.397         10.4817 
        2.08009         86.9353         10.4077 
        2.08622         86.4936         10.3346 
        2.09237         86.0427         10.2621 
        2.09851         85.4454         10.1902 
        2.10464         85.2649         10.1192 
        2.11077         84.8077         10.0489 
        2.11691         84.4906         9.97913 
        2.12305         83.9384         9.91002 
        2.12918         83.4683         9.84174 
        2.13531          83.169         9.77409 
        2.14145         82.4955         9.70693 
         2.1476         82.2802         9.64032 
        2.15372         81.9202         9.57468 
        2.15985         81.3993         9.50958 
        2.16599         81.0057          9.4449 
        2.17213          80.676         9.38091 
        2.17827         80.1105         9.31751 
         2.1844         79.8152         9.25477 
        2.19054         79.5294         9.19258 
        2.19666         78.9674         9.13106 
         2.2028         78.7076         9.07004 
        2.20893         78.2073         9.00956 
        2.21508         77.7781         8.94956 
        2.22122         77.3404         8.89009 
        2.22736         77.0153         8.83128 
        2.23349         76.7371         8.77303 
        2.23962         76.4734         8.71527 
        2.24577         75.8788         8.65798 
         2.2519         75.5757         8.60129 
        2.25802         75.2082          8.5452 
        2.26417         74.7438         8.48945 
        2.27031         74.3675         8.43415 
        2.27644         74.1417         8.37951 
        2.28257          73.808         8.32535 
        2.28872         73.4641         8.27157 
        2.29486         73.1832         8.21829 
        2.30099         72.5506         8.16558 
        2.30712         72.4307         8.11331 
        2.31326         72.0549         8.06141 
         2.3194         71.5981            8.01 
        2.32553         71.3736         7.95912 
        2.33166         70.8191         7.90871 
         2.3378         70.5899         7.85867 
        2.34394         70.2892         7.80905 
        2.35007         69.9491         7.75993 
        2.35619         69.5707         7.71129 
        2.36233         69.2017         7.66296 
        2.36848         68.8669         7.61494 
        2.37462         68.4811         7.56744 
        2.38075         68.2215         7.52038 
        2.38689         67.9207         7.47369 
        2.39303         67.5963         7.42741 
        2.39916         67.3389         7.38157 
        2.40529         66.9119         7.33612 
        2.41143         66.6285         7.29102 
        2.41757         66.2438         7.24628 
         2.4237         66.1112           7.202 
        2.42983         65.5566         7.15809 
        2.43598         65.3285         7.11444 
        2.44211         64.9787         7.07122 
        2.44823         64.6851         7.02846 
        2.45437         64.3824         6.98594 
        2.46052         64.0661         6.94373 
        2.46665         63.6744         6.90195 
        2.47279         63.4891         6.86053 
        2.47892         63.1992         6.81942 
        2.48507         62.8157         6.77861 
         2.4912         62.5793         6.73822 
