# k  (h/Mpc)    Pcb(k)  (Mpc/h)^3    Pcb_linear(k)  (Mpc/h)^3
     0.00783031          3570.3         3591.28 
       0.013688         4422.01          4487.9 
       0.019231         4604.47         4638.39 
      0.0249154         4410.66         4405.62 
      0.0312784         3924.79         3939.54 
      0.0375637         3421.78         3447.23 
      0.0433917         3048.58          3049.8 
      0.0492413         2721.41         2735.71 
      0.0555754         2485.25         2483.42 
      0.0619321         2254.33         2292.81 
       0.067871         2125.74         2140.89 
      0.0738098         1983.14         1991.66 
      0.0800417         1823.98         1826.33 
      0.0862327         1646.14         1654.54 
      0.0921407         1487.35         1493.09 
      0.0982031         1347.27         1341.78 
       0.104506         1203.43         1209.37 
       0.110769         1105.02         1106.43 
       0.116806         1043.82         1031.64 
       0.122832         976.912         974.406 
       0.129052          931.53         925.194 
       0.135211          892.15         878.616 
       0.141259         836.399         830.131 
       0.147318          776.39         777.485 
       0.153489         726.698         721.399 
       0.159709         680.739         665.992 
       0.165845         620.652         616.136 
       0.171974         594.245         573.608 
       0.178125         561.469         538.967 
       0.184229         525.891         511.647 
        0.19034         510.283         489.329 
       0.196428         491.228         469.696 
       0.202534         462.454         450.483 
       0.208729         450.216         430.099 
       0.214876         431.957         408.631 
       0.220989         402.229         386.585 
       0.227147         389.884         364.722 
        0.23329         372.055          344.36 
       0.239377          358.63           326.4 
       0.245482         339.803         310.889 
       0.251667         324.699          297.53 
       0.257832         319.404         286.017 
       0.263955         302.683         275.645 
       0.270079          292.17         265.673 
        0.27624         279.811         255.608 
       0.282372         271.384         245.382 
        0.28843         267.777         235.181 
       0.294538          254.88         225.052 
       0.300721         243.792         215.281 
        0.30691         238.885         206.237 
       0.313033         228.592         198.141 
       0.319153         224.165         190.876 
       0.325316          216.07         184.253 
        0.33145         209.695         178.156 
       0.337538          203.12         172.392 
       0.343633         197.061         166.757 
       0.349808         191.069         161.113 
       0.355968          185.96         155.538 
       0.362074         181.946         150.131 
       0.368217         177.649         144.885 
       0.374374          173.39           139.9 
       0.380519         165.929         135.242 
       0.386598         162.255         130.949 
       0.392688         157.767         126.941 
        0.39888         154.715         123.104 
       0.405048         151.327         119.465 
       0.411186          148.47         115.973 
       0.417313         144.684         112.577 
       0.423458         140.977         109.254 
       0.429607         138.267         106.016 
       0.435692         135.827         102.913 
       0.441815         131.672         99.9135 
       0.447964         127.817         97.0389 
       0.454126         125.446         94.2982 
       0.460267         124.391          91.704 
       0.466387         121.401         89.2413 
        0.47254         119.939          86.868 
       0.478662         115.868          84.593 
       0.484765         114.062         82.3992 
       0.490885         111.398         80.2641 
       0.497035         110.483         78.1793 
       0.503198          107.85         76.1557 
       0.509342         105.128         74.2068 
       0.515458         103.898         72.3364 
       0.521598          101.36          70.529 
       0.527764         100.202         68.7848 
       0.533884          99.197         67.1207 
           0.54           96.65         65.5184 
       0.546137         94.2241         63.9646 
       0.552299         92.8483         62.4542 
       0.558452         91.0916         60.9932 
       0.564573         90.6837         59.5831 
       0.570708         88.0051         58.2114 
       0.576825         87.1099         56.8847 
       0.582926         86.0432         55.6027 
       0.589034         84.5384         54.3603 
       0.595184         83.4395         53.1502 
       0.601379         81.3263          51.971 
       0.607522         80.1598         50.8385 
       0.613639          79.372         49.7455 
       0.619772         77.9719         48.6825 
       0.625918         76.9354         47.6485 
       0.632068         75.9485         46.6438 
       0.638161         74.5414         45.6764 
         0.6443         73.9232         44.7287 
       0.650464         72.3505         43.8041 
       0.656582         72.0098         42.9123 
       0.662703         71.1057         42.0456 
       0.668861         69.4502         41.1986 
       0.675024         69.1889         40.3751 
       0.681124         68.2469         39.5829 
       0.687237         66.8663         38.8107 
       0.693381         66.2779         38.0556 
       0.699536         65.6527         37.3191 
       0.705665         64.5553         36.6053 
       0.711789         63.6328         35.9108 
       0.717957         62.7401         35.2296 
        0.72409         62.1799         34.5699 
       0.730186           61.79         33.9314 
       0.736317         60.6561         33.3056 
       0.742472         59.9864         32.6936 
       0.748622          59.094         32.0976 
        0.75476         58.2269         31.5179 
       0.760888         58.1023         30.9535 
       0.767043         57.0125         30.4007 
       0.773185         56.4604         29.8627 
       0.779291         55.7702         29.3409 
       0.785407         54.9537         28.8309 
       0.791564          54.969         28.3299 
       0.797719         54.0745         27.8411 
       0.803834         53.5929         27.3671 
       0.809972         52.9435         26.9025 
       0.816124         52.4083         26.4478 
       0.822261         51.7573         26.0048 
       0.828378         51.4884         25.5734 
       0.834502         50.8361         25.1515 
       0.840667         50.4424         24.7365 
       0.846816         49.6399          24.332 
       0.852925         49.3929         23.9392 
       0.859047         49.1121         23.5543 
       0.865192         48.3073         23.1766 
       0.871341         47.7773         22.8069 
       0.877463         47.4257         22.4471 
       0.883569         47.2227          22.096 
       0.889708         46.6794         21.7506 
       0.895864         46.1761         21.4117 
       0.902008         45.6903         21.0808 
       0.908149          45.314         20.7572 
       0.914301         44.9981         20.4398 
       0.920448         44.5994         20.1294 
       0.926574         43.9078         19.8265 
       0.932687         43.6366         19.5306 
       0.938823          43.163         19.2396 
       0.944975         42.7909          18.954 
       0.951105         42.4461         18.6752 
       0.957225         42.2273         18.4025 
       0.963368         41.7391         18.1343 
       0.969511         41.3961         17.8715 
       0.975621         41.0747         17.6154 
       0.981748         40.6277         17.3636 
       0.987916         40.3749         17.1152 
        0.99406          39.944         16.8727 
        1.00019         39.6863         16.6353 
        1.00632         39.3731         16.4027 
        1.01246         39.0603         16.1743 
        1.01859          38.706         15.9506 
        1.02471         38.3379         15.7314 
        1.03085          38.209         15.5156 
        1.03698         37.9013         15.3044 
        1.04314         37.5922         15.0962 
        1.04929         37.1735         14.8924 
        1.05541         37.0396         14.6931 
        1.06154         36.8214         14.4971 
        1.06769         36.2893         14.3043 
        1.07382         36.1443         14.1157 
        1.07993         35.8194          13.931 
        1.08607          35.586         13.7488 
        1.09222         35.3548         13.5697 
        1.09836         35.0238          13.394 
        1.10449         34.8696         13.2216 
        1.11063         34.5598         13.0521 
        1.11677         34.5138         12.8856 
         1.1229         34.1463         12.7223 
        1.12903         33.9123         12.5617 
        1.13518         33.7758         12.4037 
        1.14131         33.4627         12.2486 
        1.14745         33.0996         12.0962 
        1.15359         32.8376         11.9464 
        1.15973         32.6675         11.7991 
        1.16584          32.452         11.6549 
        1.17197         32.0877         11.5129 
        1.17811         31.9684         11.3729 
        1.18424         31.6257         11.2355 
        1.19038         31.5399         11.1001 
        1.19652         31.3037          10.967 
        1.20267         31.1474          10.836 
        1.20881         30.9104         10.7072 
        1.21495         30.7339         10.5808 
        1.22108         30.6543         10.4564 
         1.2272         30.4194         10.3343 
        1.23334         30.2108         10.2138 
        1.23949          29.981          10.095 
        1.24562         29.6915         9.97846 
        1.25174         29.5831         9.86391 
        1.25789         29.4795         9.75082 
        1.26402         29.2884         9.63971 
        1.27014          29.099         9.53061 
        1.27628         28.8204         9.42287 
        1.28244         28.8011          9.3166 
        1.28858         28.5115         9.21212 
        1.29471          28.335         9.10948 
        1.30084         28.1389          9.0085 
        1.30697         28.0193          8.9089 
        1.31312         27.7882         8.81067 
        1.31925         27.6208         8.71423 
        1.32537         27.4474         8.61933 
        1.33151         27.2754         8.52551 
        1.33765         27.2281         8.43315 
        1.34378         27.0478         8.34234 
        1.34992         26.8898          8.2528 
        1.35606         26.6989         8.16438 
         1.3622         26.4972         8.07742 
        1.36833         26.4097         7.99194 
        1.37445         26.2487         7.90773 
        1.38059         26.0973         7.82449 
        1.38675         25.8952         7.74224 
        1.39288         25.7724         7.66151 
        1.39901         25.6204         7.58196 
        1.40515         25.5163         7.50337 
         1.4113         25.4115         7.42592 
        1.41742         25.2788         7.34987 
        1.42355         25.0643         7.27473 
         1.4297           24.92         7.20043 
        1.43585         24.7844         7.12719 
        1.44198         24.7057         7.05524 
        1.44809         24.5601         6.98443 
        1.45423         24.4225         6.91433 
        1.46036         24.2981         6.84532 
        1.46649         24.1528         6.77722 
        1.47263          24.027            6.71 
        1.47877         23.9412         6.64373 
        1.48491         23.8059         6.57824 
        1.49104         23.6436         6.51378 
        1.49718         23.5579         6.45013 
        1.50333         23.4654         6.38724 
        1.50947         23.3292         6.32531 
         1.5156         23.1857         6.26429 
        1.52172         23.0369         6.20409 
        1.52787          22.942         6.14455 
          1.534         22.8602         6.08587 
        1.54013          22.766         6.02802 
        1.54627         22.5777         5.97082 
        1.55241         22.4666         5.91434 
        1.55855         22.3777         5.85869 
        1.56467           22.33          5.8039 
         1.5708         22.1958         5.74965 
        1.57695          22.074         5.69602 
        1.58308         21.8892          5.6432 
        1.58922         21.8065         5.59102 
        1.59535         21.7125         5.53951 
         1.6015         21.5838         5.48858 
        1.60764         21.5128         5.43832 
        1.61376         21.4409         5.38882 
        1.61989         21.2692          5.3399 
        1.62604         21.2054         5.29148 
        1.63218         21.1032         5.24369 
        1.63831         20.9758          5.1966 
        1.64444         20.8884         5.15007 
        1.65059         20.7857           5.104 
        1.65673         20.7256         5.05855 
        1.66285         20.5749         5.01377 
        1.66898         20.5282         4.96952 
        1.67512         20.4618         4.92572 
        1.68127         20.3314          4.8824 
         1.6874          20.259         4.83971 
        1.69353         20.0957         4.79755 
        1.69967         20.0257         4.75579 
        1.70581         19.9555         4.71454 
        1.71193         19.8014         4.67394 
        1.71806         19.7696         4.63374 
        1.72421         19.6907         4.59392 
        1.73035         19.5626         4.55462 
        1.73649         19.4931         4.51579 
        1.74262          19.374         4.47744 
        1.74876         19.3054         4.43951 
        1.75489         19.2467          4.4021 
        1.76101         19.1271         4.36514 
        1.76715         19.0635         4.32854 
        1.77329         18.9604         4.29232 
        1.77943         18.8735          4.2565 
        1.78557         18.8152         4.22115 
        1.79171         18.6927         4.18618 
        1.79785         18.6395         4.15161 
        1.80399         18.5363         4.11743 
        1.81012         18.4952         4.08369 
        1.81625          18.368         4.05034 
        1.82239         18.2912         4.01731 
        1.82853         18.2236         3.98466 
        1.83466          18.117         3.95241 
        1.84078          18.081         3.92055 
        1.84692         18.0449           3.889 
        1.85306         17.9342         3.85775 
         1.8592         17.8661         3.82689 
        1.86533         17.7146         3.79639 
        1.87147         17.6677         3.76618 
        1.87761         17.6005         3.73629 
        1.88375         17.5691         3.70676 
        1.88988         17.4198         3.67758 
        1.89601         17.3886          3.6487 
        1.90215         17.2794          3.6201 
        1.90829         17.2112         3.59183 
        1.91442          17.094         3.56385 
        1.92056         17.1121          3.5362 
         1.9267         17.0237         3.50881 
        1.93284         17.0012          3.4817 
        1.93897          16.888         3.45492 
        1.94509         16.8135         3.42848 
        1.95123         16.7175         3.40225 
        1.95737         16.6873         3.37628 
        1.96349         16.5819         3.35064 
        1.96964         16.5623          3.3252 
        1.97578         16.4873         3.30001 
        1.98192         16.4084         3.27513 
        1.98805         16.3059          3.2505 
        1.99419         16.2702         3.22613 
        2.00033         16.2138         3.20199 
        2.00647         16.1321         3.17811 
         2.0126         16.0783         3.15451 
        2.01874         15.9888         3.13112 
        2.02488         15.9044         3.10794 
        2.03101         15.8685         3.08504 
        2.03714         15.7948         3.06239 
        2.04328         15.7288         3.03994 
        2.04941         15.6486         3.01774 
        2.05554         15.6399         2.99577 
        2.06167         15.5732         2.97399 
        2.06781         15.4916         2.95243 
        2.07396         15.4878         2.93105 
        2.08009         15.3584         2.90991 
        2.08622         15.3218         2.88901 
        2.09237         15.2754         2.86828 
        2.09851         15.1698         2.84774 
        2.10464         15.1441         2.82744 
        2.11077         15.0689         2.80736 
        2.11691         15.0334         2.78743 
        2.12305         14.9592         2.76769 
        2.12918         14.8611          2.7482 
        2.13531         14.8435         2.72888 
        2.14145          14.764         2.70971 
         2.1476         14.6906          2.6907 
        2.15372         14.6757         2.67197 
        2.15985         14.6165          2.6534 
        2.16599         14.5559         2.63495 
        2.17213         14.5325          2.6167 
        2.17827         14.4312         2.59862 
         2.1844         14.3797         2.58073 
        2.19054         14.3608         2.56301 
        2.19666           14.29         2.54547 
         2.2028         14.2446         2.52808 
        2.20893         14.1523         2.51085 
        2.21508         14.1266         2.49376 
        2.22122         14.0405         2.47682 
        2.22736          14.028         2.46007 
        2.23349         13.9735         2.44348 
        2.23962         13.9329         2.42703 
        2.24577         13.8708         2.41073 
         2.2519         13.8115         2.39459 
        2.25802          13.713         2.37863 
        2.26417         13.7355         2.36277 
        2.27031         13.6725         2.34703 
        2.27644         13.6428         2.33149 
        2.28257         13.5342         2.31609 
        2.28872         13.5337          2.3008 
        2.29486         13.4728         2.28565 
        2.30099         13.4181         2.27067 
        2.30712         13.3274         2.25581 
        2.31326         13.2869         2.24106 
         2.3194         13.2584         2.22646 
        2.32553         13.1977           2.212 
        2.33166         13.1486         2.19768 
         2.3378         13.1107         2.18347 
        2.34394         13.0611         2.16938 
        2.35007         13.0153         2.15544 
        2.35619         12.9586         2.14163 
        2.36233         12.8904         2.12791 
        2.36848          12.856         2.11428 
        2.37462         12.8112          2.1008 
        2.38075         12.7747         2.08745 
        2.38689           12.74         2.07421 
        2.39303         12.6604         2.06108 
        2.39916         12.6541         2.04808 
        2.40529         12.6076          2.0352 
        2.41143         12.5414         2.02241 
        2.41757         12.4814         2.00973 
         2.4237         12.4624         1.99718 
        2.42983         12.4132         1.98474 
        2.43598         12.3725         1.97237 
        2.44211         12.3082         1.96012 
        2.44823         12.2836         1.94801 
        2.45437         12.2415         1.93597 
        2.46052         12.2152         1.92402 
        2.46665         12.1671         1.91219 
        2.47279         12.1044         1.90046 
        2.47892         12.0525         1.88883 
        2.48507          12.028         1.87728 
         2.4912         11.9965         1.86585 
