# k  (h/Mpc)    Pcb(k)  (Mpc/h)^3    Pcb_linear(k)  (Mpc/h)^3
     0.00783031         419.455         422.873 
       0.013688         513.846         518.518 
       0.019231         515.483         517.237 
      0.0249154         469.994         469.931 
      0.0312784         401.245         401.044 
      0.0375637         340.661         340.761 
      0.0433917         300.349         299.672 
      0.0492413         271.726         271.705 
      0.0555754         251.249         250.789 
      0.0619321         231.764         232.853 
       0.067871          214.36         214.598 
      0.0738098         193.764         193.793 
      0.0800417         171.151         170.795 
      0.0862327         149.744         149.573 
      0.0921407         133.077         132.962 
      0.0982031          120.84         120.426 
       0.104506         111.493         111.659 
       0.110769         105.544          105.69 
       0.116806          100.98         100.793 
       0.122832         95.2511         95.4169 
       0.129052         88.8632         88.7775 
       0.135211         81.6661         81.3741 
       0.141259         74.2075         74.0767 
       0.147318         67.5114         67.5496 
       0.153489         62.3693         62.2261 
       0.159709         58.5301         58.2914 
       0.165845         55.3731         55.5072 
       0.171974          53.543         53.3027 
       0.178125         51.3271         51.1552 
       0.184229         48.7674         48.7521 
        0.19034         46.2528         45.9966 
       0.196428         43.2784         43.0509 
       0.202534         40.1598         40.1585 
       0.208729         37.7812         37.5393 
       0.214876         35.7703         35.3934 
       0.220989         33.8042         33.7058 
       0.227147         32.6963         32.3442 
        0.23329         31.5086         31.1591 
       0.239377         30.3707         30.0031 
       0.245482         29.0983         28.7684 
       0.251667         27.6524         27.4274 
       0.257832         26.4521         26.0512 
       0.263955         25.0188         24.7274 
       0.270079         23.8155         23.5204 
        0.27624         22.6795         22.4631 
       0.282372         21.8022         21.5652 
        0.28843         21.1685         20.7936 
       0.294538         20.4172         20.0817 
       0.300721         19.6184         19.3813 
        0.30691         19.0219         18.6706 
       0.313033         18.2713         17.9538 
       0.319153          17.695         17.2376 
       0.325316          16.821         16.5413 
        0.33145         16.1736         15.8946 
       0.337538         15.6218           15.31 
       0.343633           15.14          14.782 
       0.349808         14.6122         14.2938 
       0.355968         14.1344         13.8385 
       0.362074         13.7647         13.4028 
       0.368217         13.3107         12.9717 
       0.374374         12.9586         12.5437 
       0.380519         12.4549         12.1241 
       0.386598         12.0261         11.7235 
       0.392688         11.6281          11.342 
        0.39888         11.3111         10.9783 
       0.405048         10.9855         10.6409 
       0.411186         10.6536         10.3257 
       0.417313          10.357         10.0271 
       0.423458         10.0235         9.73941 
       0.429607         9.80448          9.4593 
       0.435692         9.55552          9.1888 
       0.441815         9.24221         8.92413 
       0.447964         8.94604          8.6671 
       0.454126         8.74867         8.41976 
       0.460267         8.55998         8.18495 
       0.466387         8.30907         7.96254 
        0.47254         8.11787         7.74922 
       0.478662         7.89224         7.54585 
       0.484765         7.70019         7.35068 
       0.490885         7.48355         7.16137 
       0.497035           7.277         6.97661 
       0.503198         7.13046         6.79687 
       0.509342         6.92171         6.62352 
       0.515458         6.78525         6.45716 
       0.521598         6.62664         6.29639 
       0.527764         6.49765         6.14101 
       0.533884         6.29583         5.99258 
           0.54         6.17178         5.84969 
       0.546137         6.00412         5.71126 
       0.552299         5.88341         5.57673 
       0.558452         5.75009         5.44644 
       0.564573         5.63425         5.32062 
       0.570708         5.50926         5.19833 
       0.576825         5.39093         5.08028 
       0.582926         5.26415          4.9664 
       0.589034         5.17047         4.85611 
       0.595184         5.07725         4.74863 
       0.601379         4.94716         4.64379 
       0.607522         4.84135         4.54301 
       0.613639          4.7281         4.44566 
       0.619772         4.65377         4.35095 
       0.625918         4.55609         4.25883 
       0.632068         4.47337         4.16935 
       0.638161         4.38031         4.08324 
         0.6443         4.28997         3.99897 
       0.650464         4.20256          3.9168 
       0.656582         4.14348         3.83756 
       0.662703         4.06326         3.76052 
       0.668861         3.95998         3.68522 
       0.675024         3.89252         3.61197 
       0.681124         3.86402         3.54148 
       0.687237         3.76972         3.47278 
       0.693381          3.6771         3.40559 
       0.699536          3.6372         3.34009 
       0.705665         3.56947         3.27661 
       0.711789         3.48841         3.21485 
       0.717957         3.42721         3.15427 
        0.72409         3.37268         3.09561 
       0.730186         3.33347         3.03881 
       0.736317          3.2576         2.98314 
       0.742472         3.21359         2.92868 
       0.748622         3.16211         2.87564 
        0.75476         3.08982         2.82405 
       0.760888         3.05431         2.77382 
       0.767043         2.97475         2.72463 
       0.773185         2.93875         2.67674 
       0.779291         2.91216          2.6303 
       0.785407         2.85328          2.5849 
       0.791564         2.80713          2.5403 
       0.797719         2.75962         2.49679 
       0.803834         2.71749         2.45458 
       0.809972         2.67289         2.41322 
       0.816124         2.63193         2.37272 
       0.822261         2.59447         2.33328 
       0.828378         2.55059         2.29487 
       0.834502         2.51195         2.25729 
       0.840667         2.48155         2.22033 
       0.846816         2.43757         2.18431 
       0.852925         2.39777         2.14932 
       0.859047         2.36284         2.11503 
       0.865192         2.32953         2.08139 
       0.871341         2.29826         2.04847 
       0.877463         2.25726         2.01642 
       0.883569         2.22797         1.98514 
       0.889708         2.20063         1.95438 
       0.895864         2.16864         1.92419 
       0.902008         2.13057         1.89472 
       0.908149         2.10507         1.86588 
       0.914301         2.07965          1.8376 
       0.920448         2.05225         1.80995 
       0.926574         2.03089         1.78296 
       0.932687         1.99862         1.75659 
       0.938823         1.96156         1.73066 
       0.944975         1.94365          1.7052 
       0.951105         1.90579         1.68035 
       0.957225         1.88618         1.65604 
       0.963368         1.86591         1.63213 
       0.969511         1.84363          1.6087 
       0.975621         1.81313         1.58586 
       0.981748         1.78075         1.56341 
       0.987916         1.76248         1.54125 
        0.99406         1.74629         1.51962 
        1.00019         1.72218         1.49844 
        1.00632         1.70596         1.47769 
        1.01246         1.68093         1.45731 
        1.01859         1.66032         1.43734 
        1.02471         1.63244         1.41778 
        1.03085         1.61341         1.39852 
        1.03698         1.59753         1.37966 
        1.04314         1.57783         1.36107 
        1.04929         1.56186         1.34288 
        1.05541         1.53527         1.32509 
        1.06154         1.52267         1.30758 
        1.06769         1.50685         1.29036 
        1.07382         1.48522         1.27352 
        1.07993         1.46689         1.25702 
        1.08607         1.45256         1.24074 
        1.09222         1.43127         1.22474 
        1.09836         1.42058         1.20904 
        1.10449         1.39633         1.19364 
        1.11063         1.38133          1.1785 
        1.11677          1.3689         1.16362 
         1.1229         1.34773         1.14903 
        1.12903         1.33826         1.13468 
        1.13518         1.31906         1.12056 
        1.14131         1.30682         1.10669 
        1.14745         1.29412         1.09307 
        1.15359         1.27768         1.07968 
        1.15973         1.26439         1.06651 
        1.16584         1.24876         1.05362 
        1.17197          1.2336         1.04092 
        1.17811         1.22029          1.0284 
        1.18424         1.20733         1.01612 
        1.19038         1.19257           1.004 
        1.19652         1.18425        0.992094 
        1.20267         1.17349        0.980379 
        1.20881         1.15535        0.968856 
        1.21495         1.14576        0.957539 
        1.22108         1.13469        0.946405 
         1.2272         1.11827        0.935476 
        1.23334         1.10956        0.924696 
        1.23949         1.09946        0.914062 
        1.24562         1.08744        0.903625 
        1.25174         1.07725        0.893369 
        1.25789         1.06267        0.883241 
        1.26402         1.05274         0.87329 
        1.27014         1.03933        0.863518 
        1.27628          1.0328        0.853867 
        1.28244         1.02243        0.844346 
        1.28858         1.00978        0.834984 
        1.29471        0.999218        0.825786 
        1.30084         0.99105        0.816737 
        1.30697        0.984049         0.80781 
        1.31312        0.972833        0.799005 
        1.31925         0.96326         0.79036 
        1.32537         0.95478        0.781853 
        1.33151        0.944166        0.773441 
        1.33765        0.935426        0.765159 
        1.34378        0.925018        0.757016 
        1.34992        0.919584        0.748986 
        1.35606        0.908626        0.741057 
         1.3622         0.90108        0.733257 
        1.36833        0.892751        0.725589 
        1.37445        0.884205        0.718035 
        1.38059        0.875972        0.710566 
        1.38675        0.867676        0.703187 
        1.39288        0.859341        0.695942 
        1.39901        0.851895        0.688803 
        1.40515        0.843216         0.68175 
         1.4113        0.839148        0.674798 
        1.41742        0.828813        0.667971 
        1.42355        0.819082        0.661226 
         1.4297        0.815164        0.654554 
        1.43585        0.805947        0.647978 
        1.44198        0.799727        0.641517 
        1.44809        0.791871        0.635157 
        1.45423        0.785815        0.628861 
        1.46036        0.778769        0.622662 
        1.46649        0.770708        0.616544 
        1.47263        0.764095        0.610505 
        1.47877         0.76145        0.604549 
        1.48491        0.749733        0.598664 
        1.49104        0.747166         0.59287 
        1.49718        0.737879        0.587149 
        1.50333        0.733219        0.581495 
        1.50947        0.727807        0.575928 
         1.5156         0.72092        0.570442 
        1.52172        0.715517        0.565028 
        1.52787        0.707753        0.559674 
          1.534        0.704179        0.554396 
        1.54013         0.69743        0.549192 
        1.54627        0.691612        0.544046 
        1.55241        0.684957        0.538966 
        1.55855        0.679944        0.533958 
        1.56467         0.67455        0.529028 
         1.5708        0.668563        0.524146 
        1.57695        0.662544         0.51932 
        1.58308        0.656124        0.514565 
        1.58922        0.652963        0.509867 
        1.59535        0.646232         0.50523 
         1.6015        0.641105        0.500645 
        1.60764        0.636382        0.496119 
        1.61376        0.631151        0.491661 
        1.61989        0.626421        0.487256 
        1.62604        0.620205        0.482894 
        1.63218        0.617356         0.47859 
        1.63831        0.611201        0.474348 
        1.64444        0.607139        0.470156 
        1.65059        0.601839        0.466005 
        1.65673         0.59704        0.461909 
        1.66285        0.593152        0.457873 
        1.66898        0.588827        0.453885 
        1.67512        0.582593        0.449937 
        1.68127        0.578032        0.446033 
         1.6874        0.575415        0.442184 
        1.69353        0.570018        0.438383 
        1.69967        0.566272        0.434617 
        1.70581        0.562635        0.430898 
        1.71193        0.558321        0.427237 
        1.71806        0.554202         0.42361 
        1.72421        0.549489        0.420019 
        1.73035        0.544004        0.416474 
        1.73649        0.542994         0.41297 
        1.74262        0.536602         0.40951 
        1.74876        0.533619        0.406088 
        1.75489        0.530219        0.402711 
        1.76101        0.525239        0.399375 
        1.76715        0.521886        0.396072 
        1.77329         0.51824        0.392802 
        1.77943        0.514326        0.389568 
        1.78557        0.512237        0.386376 
        1.79171        0.508165        0.383219 
        1.79785        0.503809        0.380097 
        1.80399        0.498936         0.37701 
        1.81012        0.496758        0.373962 
        1.81625         0.49378        0.370949 
        1.82239         0.49053        0.367965 
        1.82853        0.486302        0.365016 
        1.83466        0.482673        0.362101 
        1.84078        0.478808        0.359222 
        1.84692        0.476347         0.35637 
        1.85306        0.473591        0.353545 
         1.8592        0.469739        0.350756 
        1.86533        0.467204        0.347999 
        1.87147        0.462397        0.345268 
        1.87761        0.459859        0.342565 
        1.88375        0.457118        0.339895 
        1.88988         0.45315        0.337256 
        1.89601        0.449667        0.334643 
        1.90215        0.447707        0.332057 
        1.90829        0.443941        0.329499 
        1.91442        0.441817        0.326968 
        1.92056        0.439657        0.324467 
         1.9267        0.435626        0.321988 
        1.93284        0.432384        0.319535 
        1.93897        0.430276        0.317112 
        1.94509         0.42795        0.314719 
        1.95123        0.423674        0.312345 
        1.95737        0.421285        0.309993 
        1.96349        0.418569        0.307673 
        1.96964         0.41606        0.305369 
        1.97578         0.41291        0.303088 
        1.98192        0.410937        0.300835 
        1.98805        0.408502        0.298605 
        1.99419         0.40626        0.296397 
        2.00033        0.403389        0.294211 
        2.00647        0.400678        0.292048 
         2.0126        0.398253         0.28991 
        2.01874        0.395941         0.28779 
        2.02488        0.392987         0.28569 
        2.03101        0.390404        0.283615 
        2.03714        0.389191        0.281562 
        2.04328        0.385344        0.279527 
        2.04941         0.38382        0.277515 
        2.05554        0.381358        0.275523 
        2.06167         0.37891        0.273549 
        2.06781        0.375342        0.271594 
        2.07396        0.374536        0.269655 
        2.08009        0.371808        0.267739 
        2.08622        0.369762        0.265843 
        2.09237        0.367586        0.263962 
        2.09851        0.364645        0.262099 
        2.10464        0.362836        0.260257 
        2.11077        0.359807        0.258436 
        2.11691        0.358377        0.256627 
        2.12305        0.356562        0.254836 
        2.12918        0.353994        0.253067 
        2.13531        0.352226        0.251314 
        2.14145        0.349805        0.249574 
         2.1476        0.348044        0.247848 
        2.15372        0.346168        0.246148 
        2.15985        0.343431        0.244461 
        2.16599        0.341908        0.242786 
        2.17213        0.340073        0.241129 
        2.17827        0.337477        0.239487 
         2.1844        0.336439        0.237862 
        2.19054        0.334438        0.236252 
        2.19666        0.332378        0.234659 
         2.2028         0.32969        0.233079 
        2.20893        0.328604        0.231513 
        2.21508        0.326688         0.22996 
        2.22122        0.325032        0.228421 
        2.22736        0.322206        0.226899 
        2.23349        0.320157        0.225391 
        2.23962        0.318862        0.223896 
        2.24577        0.317301        0.222414 
         2.2519        0.315641        0.220947 
        2.25802        0.313729        0.219496 
        2.26417        0.311973        0.218053 
        2.27031         0.31017        0.216623 
        2.27644         0.30956        0.215209 
        2.28257        0.306859        0.213809 
        2.28872        0.305544        0.212418 
        2.29486        0.303626         0.21104 
        2.30099        0.301863        0.209677 
        2.30712        0.300296        0.208325 
        2.31326        0.298554        0.206983 
         2.3194        0.297325        0.205654 
        2.32553        0.295504        0.204339 
        2.33166        0.294172        0.203036 
         2.3378        0.292421        0.201742 
        2.34394        0.290883        0.200459 
        2.35007        0.289177         0.19919 
        2.35619        0.287138        0.197933 
        2.36233        0.286006        0.196684 
        2.36848        0.284731        0.195443 
        2.37462        0.283615        0.194216 
        2.38075        0.281894           0.193 
        2.38689        0.280619        0.191794 
        2.39303        0.278958        0.190598 
        2.39916        0.277344        0.189414 
        2.40529         0.27623         0.18824 
        2.41143        0.274218        0.187075 
        2.41757         0.27303        0.185919 
         2.4237        0.271654        0.184776 
        2.42983        0.270653        0.183642 
        2.43598        0.269103        0.182514 
        2.44211          0.2669        0.181398 
        2.44823        0.266492        0.180294 
        2.45437         0.26537        0.179197 
        2.46052        0.263758        0.178107 
        2.46665        0.262193        0.177028 
        2.47279         0.26084        0.175959 
        2.47892        0.259982        0.174898 
        2.48507        0.258474        0.173845 
         2.4912        0.257292        0.172802 
