# k  (h/Mpc)    P(k)  (Mpc/h)^3    P_linear(k)  (Mpc/h)^3
     0.00783031         10845.3         10993.6 
       0.013688         13441.7         13355.4 
       0.019231         13316.1         13292.5 
      0.0249154         11851.3         12051.9 
      0.0312784         10112.3         10188.5 
      0.0375637          8490.3         8471.85 
      0.0433917         7154.37         7237.59 
      0.0492413         6359.03         6373.49 
      0.0555754         5642.53         5768.91 
      0.0619321         5390.66         5360.11 
       0.067871         4930.07         5028.68 
      0.0738098         4571.29         4663.22 
      0.0800417         4095.93         4214.24 
      0.0862327         3670.89          3727.3 
      0.0921407         3281.91         3275.26 
      0.0982031          2871.9         2873.28 
       0.104506         2631.85         2551.81 
       0.110769         2407.46         2331.94 
       0.116806         2253.65          2194.8 
       0.122832         2160.52         2101.25 
       0.129052         2028.81         2017.21 
       0.135211         1935.39         1920.83 
       0.141259         1846.26         1802.09 
       0.147318         1725.97         1662.57 
       0.153489         1568.21          1513.1 
       0.159709         1458.89         1372.05 
       0.165845         1375.91          1255.3 
       0.171974          1284.5          1166.4 
       0.178125         1220.33         1103.17 
       0.184229         1171.28         1059.04 
        0.19034         1104.27         1023.97 
       0.196428         1087.03          989.15 
       0.202534         1052.11         948.295 
       0.208729         998.594         898.885 
       0.214876         945.384         844.102 
       0.220989         907.759         788.509 
       0.227147         858.977          736.35 
        0.23329         819.477         691.716 
       0.239377         799.065         656.122 
       0.245482         745.627         628.305 
       0.251667         739.961         605.885 
       0.257832         713.728         586.304 
       0.263955         690.751         566.941 
       0.270079         665.261         545.965 
        0.27624          656.74         522.772 
       0.282372         629.244         498.343 
        0.28843         613.496         474.176 
       0.294538         582.381         451.212 
       0.300721         577.719         430.443 
        0.30691         551.338         412.582 
       0.313033         540.288         397.577 
       0.319153         523.727         384.535 
       0.325316          508.79           372.5 
        0.33145         494.176         360.815 
       0.337538         487.231         348.978 
       0.343633         471.864         336.752 
       0.349808          455.77         324.137 
       0.355968         451.183         311.715 
       0.362074         442.645         299.954 
       0.368217         430.236         289.015 
       0.374374         412.689         279.066 
       0.380519         409.561          270.11 
       0.386598         399.218         262.021 
       0.392688          396.34         254.415 
        0.39888         385.054         246.962 
       0.405048         376.983         239.637 
       0.411186         369.976         232.365 
       0.417313         362.888         225.175 
       0.423458         356.043         218.108 
       0.429607         349.152         211.295 
       0.435692         340.383         204.917 
       0.441815         337.628         198.892 
       0.447964         330.708         193.229 
       0.454126         320.877         187.906 
       0.460267         316.129         182.867 
       0.466387         312.378         178.027 
        0.47254         305.985         173.291 
       0.478662         305.022         168.686 
       0.484765         294.892         164.185 
       0.490885         291.693         159.784 
       0.497035         286.749         155.509 
       0.503198         281.491           151.4 
       0.509342         279.155         147.482 
       0.515458         275.509          143.76 
       0.521598         269.849         140.194 
       0.527764         265.803         136.761 
       0.533884         263.189         133.473 
           0.54         259.323         130.284 
       0.546137         258.135         127.171 
       0.552299         252.766         124.132 
       0.558452         250.683         121.183 
       0.564573         246.853         118.335 
       0.570708         242.073         115.571 
       0.576825          238.61         112.912 
       0.582926         235.889         110.359 
       0.589034         233.623         107.894 
       0.595184         231.221         105.496 
       0.601379         228.432         103.157 
       0.607522         224.428         100.906 
       0.613639         223.222         98.7286 
       0.619772          218.37         96.6075 
       0.625918         217.046          94.542 
       0.632068         213.974         92.5332 
       0.638161         212.908         90.5994 
         0.6443         209.568         88.7074 
       0.650464         207.461         86.8648 
       0.656582         205.621         85.0912 
       0.662703         204.185         83.3705 
       0.668861         200.554         81.6903 
       0.675024         198.223         80.0564 
       0.681124         197.389         78.4837 
       0.687237         194.603         76.9489 
       0.693381         191.697         75.4466 
       0.699536         190.341          73.981 
       0.705665         189.305         72.5604 
       0.711789          186.55         71.1788 
       0.717957         186.005         69.8248 
        0.72409         183.568         68.5149 
       0.730186         181.259         67.2476 
       0.736317         179.444         66.0064 
       0.742472         178.533         64.7925 
       0.748622         177.005         63.6106 
        0.75476         175.563         62.4608 
       0.760888         173.207          61.341 
       0.767043         172.833         60.2443 
       0.773185         170.932         59.1768 
       0.779291         167.864         58.1414 
       0.785407         167.425         57.1296 
       0.791564         165.995         56.1358 
       0.797719         163.504         55.1666 
       0.803834         162.771         54.2269 
       0.809972         161.565          53.306 
       0.816124         161.234         52.4049 
       0.822261         159.258         51.5273 
       0.828378         157.779         50.6726 
       0.834502         157.485         49.8369 
       0.840667         155.092         49.0147 
       0.846816         153.762         48.2135 
       0.852925         153.157         47.4354 
       0.859047          151.42         46.6729 
       0.865192         150.237         45.9249 
       0.871341         148.933         45.1929 
       0.877463         147.756         44.4802 
       0.883569         147.141         43.7849 
       0.889708         145.818          43.101 
       0.895864         144.178         42.4302 
       0.902008         143.448         41.7751 
       0.908149         142.915         41.1344 
       0.914301         141.312         40.5062 
       0.920448         140.246         39.8918 
       0.926574         139.472         39.2924 
       0.932687         139.234         38.7068 
       0.938823          137.27         38.1311 
       0.944975         135.941         37.5659 
       0.951105         135.466         37.0142 
       0.957225         134.073         36.4747 
       0.963368         132.689         35.9442 
       0.969511         132.508         35.4244 
       0.975621         131.753         34.9177 
       0.981748           131.1         34.4197 
       0.987916         129.679         33.9284 
        0.99406         128.741         33.4487 
        1.00019           128.5         32.9792 
        1.00632          127.21         32.5193 
        1.01246          126.53         32.0675 
        1.01859         125.544         31.6251 
        1.02471         124.596         31.1917 
        1.03085         123.458          30.765 
        1.03698         123.061         30.3473 
        1.04314         121.885         29.9356 
        1.04929         121.157         29.5326 
        1.05541         120.506         29.1386 
        1.06154          119.83          28.751 
        1.06769          119.66         28.3699 
        1.07382         118.668          27.997 
        1.07993         117.695         27.6317 
        1.08607         116.916         27.2715 
        1.09222         116.572         26.9173 
        1.09836          115.55         26.5699 
        1.10449         114.684         26.2291 
        1.11063         113.945         25.8939 
        1.11677         113.573         25.5648 
         1.1229         112.442          25.242 
        1.12903         111.819         24.9245 
        1.13518         111.819         24.6122 
        1.14131         110.707         24.3056 
        1.14745         110.104         24.0043 
        1.15359          109.41         23.7081 
        1.15973         109.035         23.4169 
        1.16584         107.947         23.1318 
        1.17197         107.484         22.8512 
        1.17811         106.875         22.5743 
        1.18424         106.336         22.3029 
        1.19038         105.961         22.0352 
        1.19652         105.231          21.772 
        1.20267         104.412         21.5131 
        1.20881         103.762         21.2586 
        1.21495         103.191         21.0086 
        1.22108         102.738         20.7626 
         1.2272         101.777         20.5213 
        1.23334         101.448         20.2832 
        1.23949         100.647         20.0484 
        1.24562         100.233          19.818 
        1.25174          99.498         19.5915 
        1.25789         99.1529          19.368 
        1.26402         98.5196         19.1483 
        1.27014         98.0038         18.9327 
        1.27628         97.5499         18.7197 
        1.28244         96.9593         18.5096 
        1.28858         96.6929         18.3031 
        1.29471         95.7745         18.1002 
        1.30084         95.4681         17.9005 
        1.30697         94.8184         17.7036 
        1.31312         94.4265         17.5094 
        1.31925         93.7194         17.3188 
        1.32537         93.4041         17.1311 
        1.33151         92.5381         16.9457 
        1.33765         92.2033          16.763 
        1.34378         91.6905         16.5835 
        1.34992         91.4269         16.4064 
        1.35606         90.8622         16.2316 
         1.3622         90.0791         16.0597 
        1.36833         89.9416         15.8906 
        1.37445         89.3221         15.7241 
        1.38059         88.7895         15.5595 
        1.38675         88.1963         15.3969 
        1.39288         87.8674         15.2372 
        1.39901         87.5916         15.0799 
        1.40515         86.9814         14.9245 
         1.4113         86.4257         14.7713 
        1.41742         86.3521         14.6209 
        1.42355         85.5949         14.4723 
         1.4297         85.3152         14.3253 
        1.43585         84.6537         14.1805 
        1.44198         84.3146         14.0382 
        1.44809         83.8485         13.8981 
        1.45423         83.4136         13.7595 
        1.46036         83.2164          13.623 
        1.46649         82.6123         13.4883 
        1.47263         82.1348         13.3554 
        1.47877              82         13.2243 
        1.48491         81.3245         13.0947 
        1.49104         81.0293         12.9672 
        1.49718         80.5255         12.8413 
        1.50333         80.1196         12.7169 
        1.50947         79.7804         12.5944 
         1.5156         79.3385         12.4737 
        1.52172         78.9327         12.3546 
        1.52787         78.7461         12.2368 
          1.534         78.1352         12.1207 
        1.54013         77.6383         12.0062 
        1.54627           77.46          11.893 
        1.55241         76.9378         11.7813 
        1.55855         76.7052         11.6711 
        1.56467         76.2581         11.5627 
         1.5708          75.889         11.4554 
        1.57695         75.7429         11.3492 
        1.58308         74.9649         11.2447 
        1.58922         74.8918         11.1414 
        1.59535         74.6198         11.0395 
         1.6015         73.9587         10.9387 
        1.60764         73.7403         10.8392 
        1.61376         73.3973         10.7412 
        1.61989         72.9993         10.6444 
        1.62604         72.7875         10.5485 
        1.63218         72.4027         10.4539 
        1.63831         71.7932         10.3607 
        1.64444         71.5898         10.2686 
        1.65059         71.1895         10.1773 
        1.65673         70.8292         10.0873 
        1.66285         70.4963         9.99869 
        1.66898         70.1655         9.91107 
        1.67512         69.7394         9.82434 
        1.68127         69.5202         9.73857 
         1.6874         69.2032         9.65402 
        1.69353         68.8866         9.57053 
        1.69967          68.373         9.48784 
        1.70581         68.3029         9.40616 
        1.71193         68.0786         9.32575 
        1.71806         67.4458         9.24612 
        1.72421         67.2226         9.16727 
        1.73035         66.9194         9.08943 
        1.73649         66.5883         9.01251 
        1.74262         66.3421         8.93655 
        1.74876         65.9902         8.86142 
        1.75489         65.5664         8.78731 
        1.76101         65.4003         8.71408 
        1.76715         64.9639         8.64158 
        1.77329         64.7538         8.56982 
        1.77943         64.2841         8.49885 
        1.78557         64.1634          8.4288 
        1.79171         63.7509         8.35952 
        1.79785          63.488         8.29101 
        1.80399         63.3086         8.22329 
        1.81012         63.0291         8.15641 
        1.81625         62.5183         8.09032 
        1.82239         62.3078         8.02486 
        1.82853         62.0085         7.96016 
        1.83466         61.7674         7.89624 
        1.84078         61.4469         7.83309 
        1.84692         61.0294         7.77054 
        1.85306         60.8252         7.70859 
         1.8592         60.4372         7.64742 
        1.86533         60.2917         7.58695 
        1.87147         59.9165         7.52707 
        1.87761         59.7006         7.46781 
        1.88375         59.4082         7.40926 
        1.88988         59.2504          7.3514 
        1.89601         58.8753         7.29413 
        1.90215         58.6094         7.23743 
        1.90829         58.4145         7.18137 
        1.91442         58.0901         7.12589 
        1.92056         57.6963         7.07105 
         1.9267         57.5517         7.01673 
        1.93284         57.2226         6.96296 
        1.93897         56.9354         6.90985 
        1.94509         56.6403         6.85741 
        1.95123         56.4537         6.80538 
        1.95737         56.2464         6.75386 
        1.96349         55.8147         6.70301 
        1.96964          55.748         6.65253 
        1.97578         55.4401         6.60255 
        1.98192         55.1712          6.5532 
        1.98805         55.0673         6.50434 
        1.99419         54.6458         6.45598 
        2.00033         54.4067         6.40809 
        2.00647         54.1888          6.3607 
         2.0126         53.7841         6.31387 
        2.01874         53.6716         6.26744 
        2.02488          53.483         6.22144 
        2.03101         53.1994           6.176 
        2.03714         52.9376         6.13104 
        2.04328         52.7384         6.08649 
        2.04941         52.4198         6.04242 
        2.05554         52.1365         5.99881 
        2.06167         51.9636         5.95558 
        2.06781          51.757         5.91277 
        2.07396         51.4852         5.87033 
        2.08009         51.3103         5.82837 
        2.08622         51.0073         5.78687 
        2.09237         50.7585          5.7457 
        2.09851         50.6252         5.70492 
        2.10464         50.3475         5.66461 
        2.11077         50.0839         5.62473 
        2.11691         49.8513         5.58516 
        2.12305         49.6697         5.54596 
        2.12918         49.4184         5.50724 
        2.13531         49.1424         5.46888 
        2.14145         48.9368          5.4308 
         2.1476         48.7598         5.39304 
        2.15372         48.4766         5.35583 
        2.15985         48.2691         5.31894 
        2.16599         48.0862         5.28229 
        2.17213         47.9138         5.24603 
        2.17827         47.6721         5.21011 
         2.1844         47.4189         5.17457 
        2.19054         47.1423         5.13935 
        2.19666         46.9519          5.1045 
         2.2028         46.8024         5.06995 
        2.20893         46.6406          5.0357 
        2.21508         46.4666         5.00173 
        2.22122          46.177         4.96807 
        2.22736         46.0254         4.93478 
        2.23349         45.8334         4.90181 
        2.23962         45.4558         4.86912 
        2.24577         45.2819         4.83671 
         2.2519         45.0519         4.80463 
        2.25802         45.0315          4.7729 
        2.26417         44.7273         4.74137 
        2.27031         44.5616         4.71009 
        2.27644         44.3459         4.67919 
        2.28257         44.1295         4.64857 
        2.28872         43.8401         4.61817 
        2.29486         43.7576         4.58804 
        2.30099         43.5933         4.55825 
        2.30712         43.3836          4.5287 
        2.31326         43.1148         4.49938 
         2.3194         42.9019         4.47032 
        2.32553         42.7409         4.44158 
        2.33166         42.5888          4.4131 
         2.3378         42.2912         4.38483 
        2.34394         42.1444         4.35681 
        2.35007         41.9135         4.32906 
        2.35619         41.7817          4.3016 
        2.36233         41.6862          4.2743 
        2.36848         41.4093         4.24719 
        2.37462         41.2332         4.22037 
        2.38075         41.0861         4.19381 
        2.38689          40.966         4.16746 
        2.39303         40.7257         4.14134 
        2.39916         40.5126         4.11547 
        2.40529          40.312         4.08982 
        2.41143         40.2125         4.06437 
        2.41757         40.0125         4.03913 
         2.4237         39.9166         4.01415 
        2.42983         39.6809         3.98939 
        2.43598         39.4728         3.96477 
        2.44211         39.3026          3.9404 
        2.44823         39.1516         3.91629 
        2.45437         38.9966         3.89231 
        2.46052         38.7067         3.86852 
        2.46665         38.6145         3.84497 
        2.47279         38.4877         3.82162 
        2.47892         38.2744         3.79845 
        2.48507          38.102         3.77545 
         2.4912         37.9881         3.75269 
