# k  (h/Mpc)    Pcb(k)  (Mpc/h)^3    Pcb_linear(k)  (Mpc/h)^3
     0.00783031         14304.3         14504.9 
       0.013688         17793.2           17646 
       0.019231         17610.1         17574.6 
      0.0249154         15630.5         15940.9 
      0.0312784         13349.7           13480 
      0.0375637         11226.7         11210.8 
      0.0433917         9439.71         9578.62 
      0.0492413         8403.35         8435.76 
      0.0555754         7431.98          7636.1 
      0.0619321         7126.34         7095.38 
       0.067871         6493.48         6656.93 
      0.0738098          6022.7         6173.33 
      0.0800417         5389.76         5579.12 
      0.0862327         4840.35         4934.59 
      0.0921407         4344.67          4336.2 
      0.0982031          3806.3         3804.08 
       0.104506         3503.86         3378.51 
       0.110769         3207.56         3087.46 
       0.116806         3008.77         2905.91 
       0.122832         2878.41         2782.07 
       0.129052         2694.95         2670.82 
       0.135211         2571.25         2543.23 
       0.141259         2459.17         2386.03 
       0.147318         2304.64         2201.32 
       0.153489         2095.99         2003.41 
       0.159709         1958.21         1816.67 
       0.165845         1856.83         1662.09 
       0.171974         1740.73          1544.4 
       0.178125         1652.95         1460.67 
       0.184229         1583.28         1402.25 
        0.19034         1497.16         1355.82 
       0.196428         1472.08         1309.71 
       0.202534         1421.81         1255.62 
       0.208729         1353.14          1190.2 
       0.214876         1288.63         1117.66 
       0.220989         1239.34         1044.06 
       0.227147         1179.57         974.996 
        0.23329          1127.6         915.898 
       0.239377         1103.63         868.768 
       0.245482         1031.71         831.939 
       0.251667          1025.7         802.254 
       0.257832         986.833         776.326 
       0.263955         955.399         750.689 
       0.270079         920.851         722.911 
        0.27624         910.499         692.206 
       0.282372         872.392         659.861 
        0.28843         858.627         627.861 
       0.294538         814.427         597.454 
       0.300721         809.315         569.955 
        0.30691         774.926         546.305 
       0.313033         759.877         526.437 
       0.319153         741.279         509.168 
       0.325316         718.762         493.232 
        0.33145         700.427          477.76 
       0.337538         689.475         462.089 
       0.343633          670.59         445.899 
       0.349808         647.103         429.195 
       0.355968         642.486         412.748 
       0.362074         633.738         397.174 
       0.368217         615.042          382.69 
       0.374374         589.588         369.518 
       0.380519         588.337         357.657 
       0.386598         572.578         346.947 
       0.392688         570.348         336.877 
        0.39888         553.374         327.007 
       0.405048         543.957         317.309 
       0.411186         535.535          307.68 
       0.417313          524.76         298.159 
       0.423458         515.133         288.802 
       0.429607         507.198         279.782 
       0.435692         495.392         271.335 
       0.441815         491.201         263.358 
       0.447964         480.977          255.86 
       0.454126         472.126         248.811 
       0.460267          462.86         242.139 
       0.466387         457.495          235.73 
        0.47254         450.535         229.459 
       0.478662         448.502          223.36 
       0.484765         433.416         217.402 
       0.490885         430.014         211.574 
       0.497035         421.744         205.914 
       0.503198          417.14         200.473 
       0.509342         413.969         195.286 
       0.515458         409.759         190.356 
       0.521598         399.744         185.635 
       0.527764         393.395         181.089 
       0.533884         391.139         176.736 
           0.54          385.82         172.513 
       0.546137         384.224         168.391 
       0.552299         376.831         164.367 
       0.558452         374.782         160.462 
       0.564573          369.51         156.691 
       0.570708         363.471         153.031 
       0.576825          355.83         149.511 
       0.582926         354.417         146.129 
       0.589034         351.383         142.866 
       0.595184         348.399          139.69 
       0.601379         343.228         136.593 
       0.607522         338.318         133.613 
       0.613639         337.119          130.73 
       0.619772         329.794         127.921 
       0.625918         328.687         125.186 
       0.632068         323.498         122.526 
       0.638161         322.269         119.965 
         0.6443         317.022          117.46 
       0.650464          314.27          115.02 
       0.656582         311.923         112.672 
       0.662703         311.032         110.393 
       0.668861         305.576         108.169 
       0.675024         302.479         106.005 
       0.681124         300.524         103.923 
       0.687237         297.594         101.891 
       0.693381         293.203         99.9013 
       0.699536         290.338         97.9605 
       0.705665         288.295         96.0795 
       0.711789         286.485         94.2501 
       0.717957         284.658         92.4573 
        0.72409         281.875         90.7227 
       0.730186         278.699         89.0447 
       0.736317         275.816         87.4012 
       0.742472         274.346         85.7938 
       0.748622         272.029         84.2288 
        0.75476         269.385         82.7063 
       0.760888         266.349         81.2237 
       0.767043         266.593         79.7715 
       0.773185         263.328          78.358 
       0.779291         259.061          76.987 
       0.785407         258.657         75.6472 
       0.791564         255.772         74.3313 
       0.797719         253.131         73.0479 
       0.803834         251.361         71.8036 
       0.809972         250.494         70.5842 
       0.816124         250.007          69.391 
       0.822261         246.944         68.2289 
       0.828378         244.807         67.0973 
       0.834502         243.445         65.9907 
       0.840667         240.862          64.902 
       0.846816          239.41         63.8411 
       0.852925         238.289         62.8108 
       0.859047         236.282         61.8012 
       0.865192          233.58         60.8107 
       0.871341         231.924         59.8414 
       0.877463         230.679         58.8978 
       0.883569         229.876         57.9771 
       0.889708         227.336         57.0715 
       0.895864         225.165         56.1832 
       0.902008         224.033         55.3158 
       0.908149         223.098         54.4674 
       0.914301         220.307         53.6356 
       0.920448         219.118         52.8221 
       0.926574         217.449         52.0285 
       0.932687         217.545          51.253 
       0.938823         214.899         50.4907 
       0.944975         213.631         49.7422 
       0.951105         212.539         49.0118 
       0.957225         210.964         48.2974 
       0.963368         208.286          47.595 
       0.969511          207.53         46.9066 
       0.975621         205.649         46.2357 
       0.981748         205.708         45.5764 
       0.987916         203.807         44.9258 
        0.99406         201.701         44.2905 
        1.00019         201.747         43.6689 
        1.00632         199.984         43.0599 
        1.01246         198.548         42.4617 
        1.01859          198.51         41.8759 
        1.02471         195.651          41.302 
        1.03085          194.17          40.737 
        1.03698         193.444         40.1839 
        1.04314         191.672         39.6387 
        1.04929         190.648         39.1051 
        1.05541         190.732         38.5835 
        1.06154         188.469         38.0702 
        1.06769         188.297         37.5656 
        1.07382           186.7         37.0718 
        1.07993         185.308         36.5881 
        1.08607         184.746         36.1111 
        1.09222         183.675         35.6422 
        1.09836         182.237         35.1822 
        1.10449         180.402         34.7309 
        1.11063         179.023         34.2871 
        1.11677          178.74         33.8512 
         1.1229         177.401         33.4238 
        1.12903         176.677         33.0034 
        1.13518           175.7         32.5899 
        1.14131         174.054         32.1838 
        1.14745             174         31.7849 
        1.15359         172.615         31.3928 
        1.15973         171.561         31.0071 
        1.16584         170.168         30.6297 
        1.17197         169.797          30.258 
        1.17811         168.427         29.8914 
        1.18424         167.687          29.532 
        1.19038         167.365         29.1775 
        1.19652          165.96         28.8291 
        1.20267         165.277         28.4863 
        1.20881         163.938         28.1492 
        1.21495         163.118         27.8182 
        1.22108         162.173         27.4925 
         1.2272         160.946         27.1729 
        1.23334         160.526         26.8577 
        1.23949         159.369         26.5468 
        1.24562         158.522         26.2417 
        1.25174         157.395         25.9418 
        1.25789         156.474         25.6458 
        1.26402         155.318          25.355 
        1.27014         154.323         25.0694 
        1.27628         153.985         24.7874 
        1.28244         153.637         24.5092 
        1.28858         152.327         24.2357 
        1.29471         150.946          23.967 
        1.30084         150.833         23.7027 
        1.30697         149.469          23.442 
        1.31312          148.78         23.1848 
        1.31925         147.931         22.9324 
        1.32537         147.383          22.684 
        1.33151         146.024         22.4383 
        1.33765         145.441         22.1965 
        1.34378         144.863         21.9588 
        1.34992         144.299         21.7243 
        1.35606         143.911         21.4928 
         1.3622         142.442         21.2652 
        1.36833         141.463         21.0413 
        1.37445         140.947         20.8209 
        1.38059         140.072         20.6029 
        1.38675         139.454         20.3875 
        1.39288         138.926         20.1761 
        1.39901         138.616         19.9678 
        1.40515         137.183          19.762 
         1.4113         136.488         19.5592 
        1.41742         135.745           19.36 
        1.42355         134.993         19.1633 
         1.4297         134.394         18.9687 
        1.43585         133.486         18.7769 
        1.44198          132.96         18.5885 
        1.44809         132.383          18.403 
        1.45423         131.705         18.2194 
        1.46036         130.877         18.0387 
        1.46649         130.022         17.8604 
        1.47263         129.311         17.6843 
        1.47877         128.813         17.5107 
        1.48491         127.617         17.3392 
        1.49104         127.563         17.1703 
        1.49718         126.472         17.0036 
        1.50333         125.967         16.8389 
        1.50947         125.478         16.6767 
         1.5156           124.7         16.5168 
        1.52172          124.03         16.3591 
        1.52787         123.276         16.2031 
          1.534         122.756         16.0494 
        1.54013         122.066         15.8978 
        1.54627         121.596          15.748 
        1.55241         120.646            15.6 
        1.55855         119.947         15.4542 
        1.56467         119.716         15.3106 
         1.5708          118.75         15.1685 
        1.57695         118.431         15.0279 
        1.58308         117.708         14.8895 
        1.58922         117.404         14.7527 
        1.59535         116.602         14.6177 
         1.6015         116.132         14.4843 
        1.60764         115.491         14.3525 
        1.61376         115.002         14.2228 
        1.61989         114.265         14.0946 
        1.62604         113.751         13.9676 
        1.63218         113.406         13.8424 
        1.63831         112.443         13.7189 
        1.64444         112.073          13.597 
        1.65059         111.529         13.4762 
        1.65673          110.61          13.357 
        1.66285         110.325         13.2396 
        1.66898          109.87         13.1236 
        1.67512         109.273         13.0088 
        1.68127         108.667         12.8952 
         1.6874         107.863         12.7832 
        1.69353          107.53         12.6727 
        1.69967         107.164         12.5632 
        1.70581         106.504          12.455 
        1.71193         106.082         12.3486 
        1.71806         105.517         12.2431 
        1.72421         104.748         12.1387 
        1.73035         104.572         12.0356 
        1.73649         103.893         11.9338 
        1.74262         103.217         11.8332 
        1.74876          102.95         11.7337 
        1.75489         102.151         11.6356 
        1.76101         101.654         11.5386 
        1.76715         101.063         11.4426 
        1.77329         100.821         11.3476 
        1.77943         100.003         11.2536 
        1.78557          99.823         11.1609 
        1.79171         98.9429         11.0691 
        1.79785         98.5954         10.9784 
        1.80399          98.049         10.8887 
        1.81012         97.6932         10.8002 
        1.81625         97.2579         10.7127 
        1.82239         96.8971          10.626 
        1.82853         96.3199         10.5403 
        1.83466         95.6774         10.4557 
        1.84078         95.4295         10.3721 
        1.84692         94.8135         10.2892 
        1.85306          94.353         10.2072 
         1.8592         94.0506         10.1262 
        1.86533         93.3451         10.0462 
        1.87147         92.9709         9.96686 
        1.87761         92.5349         9.88839 
        1.88375         91.9845         9.81086 
        1.88988         91.6296         9.73426 
        1.89601         91.1028         9.65843 
        1.90215         90.6188         9.58335 
        1.90829         90.1835         9.50911 
        1.91442         89.8302         9.43564 
        1.92056           89.25         9.36303 
         1.9267         88.9537         9.29111 
        1.93284         88.4834          9.2199 
        1.93897         88.0423         9.14957 
        1.94509          87.731         9.08014 
        1.95123         87.2473         9.01125 
        1.95737         86.7239         8.94303 
        1.96349         86.2837         8.87569 
        1.96964         85.8218         8.80885 
        1.97578         85.4074         8.74268 
        1.98192         85.2716         8.67732 
        1.98805         84.5007         8.61263 
        1.99419         84.2622         8.54859 
        2.00033         83.9729         8.48518 
        2.00647          83.424         8.42243 
         2.0126         83.0286         8.36042 
        2.01874         82.3947         8.29895 
        2.02488         82.1412         8.23804 
        2.03101         81.6885         8.17786 
        2.03714         81.1527         8.11833 
        2.04328          80.949         8.05934 
        2.04941         80.6094         8.00098 
        2.05554          80.262         7.94325 
        2.06167         79.8325           7.886 
        2.06781         79.2727         7.82932 
        2.07396         78.9264         7.77311 
        2.08009         78.6748         7.71755 
        2.08622         78.2223          7.6626 
        2.09237         77.8637         7.60809 
        2.09851         77.5998         7.55409 
        2.10464         77.0829         7.50071 
        2.11077         76.7535         7.44791 
        2.11691         76.4737         7.39551 
        2.12305         75.9353          7.3436 
        2.12918         75.5939         7.29233 
        2.13531          75.284         7.24154 
        2.14145         74.8077         7.19112 
         2.1476         74.4464         7.14112 
        2.15372         74.2192         7.09185 
        2.15985         73.7634           7.043 
        2.16599         73.4184         6.99447 
        2.17213         73.1426         6.94645 
        2.17827         72.6838          6.8989 
         2.1844         72.3497         6.85183 
        2.19054         72.1823         6.80519 
        2.19666         71.7004         6.75905 
         2.2028         71.5545          6.7133 
        2.20893         71.0542         6.66795 
        2.21508         70.7702         6.62297 
        2.22122         70.3696         6.57839 
        2.22736         70.0697         6.53432 
        2.23349         69.6694         6.49066 
        2.23962         69.3046         6.44738 
        2.24577         69.0159         6.40446 
         2.2519         68.7793         6.36199 
        2.25802         68.4532         6.31997 
        2.26417         67.9739         6.27822 
        2.27031         67.7348          6.2368 
        2.27644         67.4203         6.19588 
        2.28257         67.1049         6.15534 
        2.28872         66.7451         6.11508 
        2.29486         66.2603         6.07519 
        2.30099         65.9494         6.03574 
        2.30712         65.8645         5.99662 
        2.31326         65.5525         5.95778 
         2.3194         65.1853         5.91932 
        2.32553         64.8566         5.88125 
        2.33166         64.4897         5.84354 
         2.3378          64.123         5.80611 
        2.34394         63.8814           5.769 
        2.35007         63.6136         5.73227 
        2.35619         63.3325          5.6959 
        2.36233         63.0191         5.65976 
        2.36848         62.7481         5.62386 
        2.37462         62.3033         5.58835 
        2.38075         62.1674         5.55318 
        2.38689         61.8377         5.51828 
        2.39303         61.4935         5.48369 
        2.39916         61.2577         5.44944 
        2.40529         61.0045         5.41548 
        2.41143         60.7153         5.38178 
        2.41757         60.3503         5.34836 
         2.4237         60.2265         5.31528 
        2.42983         59.7892         5.28249 
        2.43598         59.4598         5.24989 
        2.44211         59.2395         5.21762 
        2.44823         58.9973         5.18569 
        2.45437          58.639         5.15395 
        2.46052         58.4287         5.12244 
        2.46665         58.2227         5.09126 
        2.47279         57.8048         5.06034 
        2.47892         57.6274         5.02966 
        2.48507         57.3199         4.99921 
         2.4912         57.0788         4.96907 
