# k  (h/Mpc)    Pcb(k)  (Mpc/h)^3    Pcb_linear(k)  (Mpc/h)^3
     0.00783031         2869.86         2900.59 
       0.013688         3533.79         3530.93 
       0.019231         3520.57         3517.61 
      0.0249154         3165.53         3191.11 
      0.0312784         2694.04         2698.75 
      0.0375637         2252.21         2244.59 
      0.0433917         1912.12         1917.89 
      0.0492413         1691.77         1689.11 
      0.0555754         1516.72         1529.03 
      0.0619321         1430.08         1420.78 
       0.067871         1324.21            1333 
      0.0738098         1227.48         1236.18 
      0.0800417          1104.7          1117.2 
      0.0862327         983.862         988.143 
      0.0921407         869.858         868.323 
      0.0982031         760.811         761.768 
       0.104506         686.184         676.552 
       0.110769         626.863          618.27 
       0.116806         585.586         581.916 
       0.122832         563.206         557.118 
       0.129052          534.85         534.843 
       0.135211         509.357         509.292 
       0.141259         481.857         477.814 
       0.147318         447.719         440.825 
       0.153489         406.424         401.194 
       0.159709         371.884         363.798 
       0.165845         345.455         332.843 
       0.171974         318.947         309.275 
       0.178125         303.109         292.508 
       0.184229         291.642          280.81 
        0.19034         277.048         271.511 
       0.196428         270.975         262.279 
       0.202534         262.504         251.447 
       0.208729         247.813         238.346 
       0.214876         232.181          223.82 
       0.220989         220.612          209.08 
       0.227147         205.285          195.25 
        0.23329         194.104         183.415 
       0.239377         186.415         173.977 
       0.245482         175.737         166.602 
       0.251667         172.398         160.657 
       0.257832         166.945         155.465 
       0.263955         161.276         150.331 
       0.270079         155.428         144.769 
        0.27624          151.27          138.62 
       0.282372         144.811         132.142 
        0.28843          137.95         125.734 
       0.294538         131.724         119.645 
       0.300721         128.137         114.138 
        0.30691         121.996         109.402 
       0.313033         118.322         105.423 
       0.319153         113.055         101.965 
       0.325316         111.281         98.7738 
        0.33145         107.318         95.6753 
       0.337538         104.908         92.5371 
       0.343633          101.17          89.295 
       0.349808         98.0375         85.9498 
       0.355968         95.2048         82.6563 
       0.362074         91.9525         79.5374 
       0.368217         89.1285         76.6369 
       0.374374         86.3714          73.999 
       0.380519           84.22         71.6239 
       0.386598         81.9702         69.4791 
       0.392688         80.3379         67.4624 
        0.39888         78.0957          65.486 
       0.405048         76.2237         63.5438 
       0.411186         74.4261         61.6154 
       0.417313         72.1012         59.7088 
       0.423458         70.2822          57.835 
       0.429607          68.406         56.0287 
       0.435692         66.1363         54.3372 
       0.441815         65.2229         52.7396 
       0.447964         64.0939         51.2382 
       0.454126         61.4063         49.8266 
       0.460267         60.5144         48.4905 
       0.466387         58.9438         47.2069 
        0.47254         58.0092         45.9512 
       0.478662          57.077         44.7298 
       0.484765          55.358         43.5366 
       0.490885         54.1721         42.3696 
       0.497035         53.4858         41.2361 
       0.503198         52.0233         40.1465 
       0.509342         50.6959         39.1076 
       0.515458         49.7664         38.1205 
       0.521598         48.9704         37.1749 
       0.527764         48.0251         36.2647 
       0.533884         47.2325         35.3928 
           0.54         46.2025         34.5472 
       0.546137         45.5708         33.7217 
       0.552299         44.8613         32.9158 
       0.558452         43.5221         32.1338 
       0.564573         42.8265         31.3787 
       0.570708         42.2165         30.6459 
       0.576825         41.2934         29.9409 
       0.582926         40.4679         29.2637 
       0.589034         39.5137         28.6101 
       0.595184         39.0278         27.9742 
       0.601379         38.3691          27.354 
       0.607522         37.5742         26.7571 
       0.613639         37.2994         26.1797 
       0.619772         36.3518         25.6173 
       0.625918         36.1538         25.0696 
       0.632068          35.582         24.5369 
       0.638161         34.9098         24.0241 
         0.6443         34.2667         23.5225 
       0.650464         33.7021         23.0338 
       0.656582         33.4642         22.5636 
       0.662703         32.8133         22.1073 
       0.668861         32.2592         21.6617 
       0.675024         31.7424         21.2285 
       0.681124         31.1909         20.8114 
       0.687237         30.6782         20.4045 
       0.693381         30.4514         20.0061 
       0.699536         29.7104         19.6175 
       0.705665         29.7108         19.2408 
       0.711789         28.9997         18.8744 
       0.717957         28.6424         18.5154 
        0.72409         28.2505          18.168 
       0.730186         27.8341          17.832 
       0.736317         27.5821         17.5029 
       0.742472         27.0993          17.181 
       0.748622         26.8607         16.8676 
        0.75476         26.4265         16.5627 
       0.760888         26.0309         16.2658 
       0.767043         25.7363          15.975 
       0.773185         25.3129         15.6919 
       0.779291         25.2054         15.4173 
       0.785407         24.9176          15.149 
       0.791564         24.4768         14.8855 
       0.797719         23.9511         14.6285 
       0.803834         23.9339         14.3793 
       0.809972         23.6891         14.1351 
       0.816124         23.1786         13.8962 
       0.822261         22.9853         13.6635 
       0.828378         22.7769         13.4368 
       0.834502         22.5471         13.2152 
       0.840667         22.2624         12.9972 
       0.846816         21.8826         12.7848 
       0.852925         21.6829         12.5784 
       0.859047         21.4495         12.3762 
       0.865192         21.2443         12.1779 
       0.871341         21.1116         11.9838 
       0.877463         20.7104         11.7948 
       0.883569         20.4901         11.6104 
       0.889708         20.2268         11.4291 
       0.895864         20.0606         11.2512 
       0.902008         19.9092         11.0775 
       0.908149         19.7002         10.9076 
       0.914301         19.6063          10.741 
       0.920448         19.2269         10.5781 
       0.926574         19.0764         10.4192 
       0.932687         18.8738         10.2639 
       0.938823         18.6281         10.1112 
       0.944975         18.4598         9.96134 
       0.951105          18.292         9.81506 
       0.957225         18.1072           9.672 
       0.963368         17.9855         9.53133 
       0.969511          17.818         9.39348 
       0.975621         17.6651         9.25912 
       0.981748         17.4179         9.12708 
       0.987916         17.3323          8.9968 
        0.99406         17.1058         8.86958 
        1.00019         16.8863         8.74509 
        1.00632         16.8278         8.62313 
        1.01246         16.6869         8.50334 
        1.01859         16.4238         8.38603 
        1.02471         16.3814          8.2711 
        1.03085         16.2199         8.15796 
        1.03698         15.9673         8.04718 
        1.04314          15.888         7.93802 
        1.04929          15.701         7.83115 
        1.05541         15.5423         7.72669 
        1.06154         15.4534         7.62391 
        1.06769         15.3717         7.52285 
        1.07382         15.1725         7.42397 
        1.07993         15.0869          7.3271 
        1.08607         14.9205         7.23157 
        1.09222         14.8289         7.13767 
        1.09836         14.6526         7.04555 
        1.10449         14.5586         6.95518 
        1.11063         14.3982          6.8663 
        1.11677         14.3508         6.77902 
         1.1229         14.2653         6.69342 
        1.12903         14.0738         6.60923 
        1.13518         13.9182         6.52643 
        1.14131         13.8775         6.44511 
        1.14745         13.7622         6.36522 
        1.15359         13.6737         6.28669 
        1.15973          13.541         6.20945 
        1.16584         13.3576         6.13387 
        1.17197         13.3242         6.05944 
        1.17811         13.2146         5.98603 
        1.18424         13.1044         5.91406 
        1.19038         13.0555         5.84307 
        1.19652         12.9251         5.77328 
        1.20267         12.8138         5.70464 
        1.20881         12.7629         5.63714 
        1.21495         12.6737         5.57085 
        1.22108         12.5322         5.50563 
         1.2272          12.437         5.44163 
        1.23334         12.3459          5.3785 
        1.23949         12.2331         5.31624 
        1.24562         12.1937         5.25513 
        1.25174         12.1099         5.19509 
        1.25789         12.0179         5.13581 
        1.26402         11.9666         5.07757 
        1.27014         11.8565         5.02038 
        1.27628         11.7165         4.96391 
        1.28244         11.6585          4.9082 
        1.28858         11.6406         4.85343 
        1.29471         11.5144         4.79962 
        1.30084         11.4084         4.74669 
        1.30697         11.3719         4.69447 
        1.31312         11.2398         4.64298 
        1.31925          11.162         4.59242 
        1.32537          11.127         4.54267 
        1.33151         11.0482         4.49348 
        1.33765         10.9714         4.44506 
        1.34378         10.8971         4.39744 
        1.34992         10.7962          4.3505 
        1.35606          10.765         4.30414 
         1.3622         10.6965         4.25854 
        1.36833          10.595         4.21372 
        1.37445         10.5564         4.16957 
        1.38059         10.4964         4.12592 
        1.38675         10.3902         4.08279 
        1.39288         10.3647         4.04045 
        1.39901         10.2621         3.99874 
        1.40515         10.2199         3.95753 
         1.4113         10.1523         3.91691 
        1.41742         10.0821         3.87703 
        1.42355         10.0138         3.83763 
         1.4297         9.97047         3.79866 
        1.43585         9.92685         3.76025 
        1.44198         9.86236         3.72252 
        1.44809         9.79693         3.68538 
        1.45423         9.72795         3.64861 
        1.46036         9.66625         3.61242 
        1.46649         9.62824          3.5767 
        1.47263         9.53838         3.54144 
        1.47877         9.48875         3.50668 
        1.48491         9.44898         3.47233 
        1.49104         9.39155         3.43852 
        1.49718          9.3378         3.40513 
        1.50333         9.29237         3.37214 
        1.50947         9.22595         3.33966 
         1.5156         9.17254         3.30765 
        1.52172          9.1344         3.27606 
        1.52787         9.06738         3.24483 
          1.534         9.00598         3.21404 
        1.54013         8.96159         3.18369 
        1.54627          8.8968         3.15368 
        1.55241         8.86343         3.12405 
        1.55855         8.82269         3.09484 
        1.56467         8.75698         3.06609 
         1.5708         8.74336         3.03762 
        1.57695         8.66696         3.00948 
        1.58308          8.6124         2.98176 
        1.58922          8.5858         2.95437 
        1.59535         8.54643         2.92734 
         1.6015         8.47666         2.90061 
        1.60764         8.41979         2.87423 
        1.61376         8.40704         2.84825 
        1.61989         8.34623         2.82257 
        1.62604         8.31437         2.79715 
        1.63218         8.27867         2.77206 
        1.63831         8.23395         2.74734 
        1.64444         8.18085         2.72292 
        1.65059         8.11584         2.69873 
        1.65673          8.1161         2.67487 
        1.66285         8.02781         2.65136 
        1.66898         8.00416         2.62813 
        1.67512         7.96996         2.60513 
        1.68127         7.92412         2.58238 
         1.6874         7.89486         2.55996 
        1.69353         7.83128         2.53782 
        1.69967         7.80519          2.5159 
        1.70581         7.77523         2.49424 
        1.71193         7.71897         2.47292 
        1.71806         7.70163          2.4518 
        1.72421         7.64491         2.43089 
        1.73035         7.62415         2.41025 
        1.73649         7.58669         2.38985 
        1.74262         7.54273         2.36971 
        1.74876         7.52028         2.34979 
        1.75489         7.47773         2.33014 
        1.76101         7.42357         2.31072 
        1.76715         7.40863         2.29149 
        1.77329         7.35278         2.27247 
        1.77943         7.31667         2.25365 
        1.78557         7.30704         2.23507 
        1.79171          7.2674          2.2167 
        1.79785         7.21753         2.19853 
        1.80399         7.18436         2.18057 
        1.81012         7.16225         2.16284 
        1.81625         7.12131         2.14532 
        1.82239         7.09285         2.12796 
        1.82853         7.05102          2.1108 
        1.83466         7.02152         2.09385 
        1.84078         6.98237         2.07711 
        1.84692         6.97458         2.06052 
        1.85306         6.92497         2.04409 
         1.8592          6.8873         2.02787 
        1.86533         6.86684         2.01184 
        1.87147         6.83556         1.99596 
        1.87761         6.80787         1.98024 
        1.88375         6.76163         1.96472 
        1.88988         6.75373         1.94938 
        1.89601         6.71686         1.93419 
        1.90215         6.68249         1.91916 
        1.90829         6.65067         1.90429 
        1.91442         6.62136         1.88958 
        1.92056         6.60347         1.87504 
         1.9267          6.5623         1.86063 
        1.93284         6.53311         1.84637 
        1.93897         6.49959         1.83229 
        1.94509         6.48214         1.81838 
        1.95123          6.4512         1.80459 
        1.95737         6.41767         1.79093 
        1.96349         6.39947         1.77744 
        1.96964         6.36186         1.76406 
        1.97578         6.33256         1.75081 
        1.98192         6.31439         1.73772 
        1.98805         6.28996         1.72476 
        1.99419         6.25569         1.71194 
        2.00033         6.24658         1.69924 
        2.00647         6.20796         1.68667 
         2.0126         6.18676         1.67425 
        2.01874         6.15915         1.66194 
        2.02488         6.13436         1.64975 
        2.03101         6.10326         1.63769 
        2.03714         6.07002         1.62577 
        2.04328          6.0552         1.61396 
        2.04941         6.01962         1.60227 
        2.05554         6.00661         1.59071 
        2.06167         5.97202         1.57925 
        2.06781         5.95914          1.5679 
        2.07396         5.94172         1.55664 
        2.08009         5.90954         1.54551 
        2.08622         5.87872         1.53451 
        2.09237         5.86453         1.52359 
        2.09851         5.84768         1.51278 
        2.10464          5.8169         1.50209 
        2.11077         5.78046         1.49152 
        2.11691          5.7581         1.48102 
        2.12305         5.74426         1.47063 
        2.12918         5.73043         1.46036 
        2.13531         5.70094         1.45019 
        2.14145         5.67996         1.44009 
         2.1476         5.65265         1.43008 
        2.15372         5.63336         1.42021 
        2.15985         5.62827         1.41043 
        2.16599         5.58753         1.40071 
        2.17213         5.57385         1.39109 
        2.17827         5.55659         1.38157 
         2.1844         5.52967         1.37215 
        2.19054          5.4946         1.36281 
        2.19666         5.48432         1.35357 
         2.2028         5.46427          1.3444 
        2.20893         5.44777         1.33532 
        2.21508         5.41974         1.32631 
        2.22122         5.39561         1.31739 
        2.22736         5.38239         1.30856 
        2.23349         5.36696         1.29982 
        2.23962         5.34768         1.29115 
        2.24577         5.32139         1.28256 
         2.2519         5.31112         1.27405 
        2.25802         5.28093         1.26564 
        2.26417         5.26446         1.25727 
        2.27031         5.24032         1.24898 
        2.27644         5.21976         1.24079 
        2.28257         5.20197         1.23267 
        2.28872          5.1897          1.2246 
        2.29486         5.16988         1.21662 
        2.30099         5.15083         1.20872 
        2.30712         5.13204         1.20088 
        2.31326         5.10095          1.1931 
         2.3194          5.0907          1.1854 
        2.32553         5.07968         1.17778 
        2.33166           5.062         1.17023 
         2.3378          5.0369         1.16273 
        2.34394          5.0211          1.1553 
        2.35007         4.99816         1.14794 
        2.35619          4.9859         1.14066 
        2.36233         4.96548         1.13342 
        2.36848         4.94867         1.12623 
        2.37462         4.93774         1.11912 
        2.38075         4.91949         1.11208 
        2.38689         4.90339         1.10509 
        2.39303         4.87642         1.09816 
        2.39916         4.86159          1.0913 
        2.40529         4.84624          1.0845 
        2.41143         4.82883         1.07776 
        2.41757         4.82854         1.07106 
         2.4237         4.80277         1.06444 
        2.42983         4.77914         1.05787 
        2.43598         4.76579         1.05134 
        2.44211         4.74814         1.04488 
        2.44823         4.73469         1.03849 
        2.45437         4.71804         1.03213 
        2.46052         4.70021         1.02582 
        2.46665         4.68731         1.01957 
        2.47279         4.66451         1.01338 
        2.47892         4.64928         1.00724 
        2.48507         4.64012         1.00114 
         2.4912          4.6177        0.995106 
