# k  (h/Mpc)    P(k)  (Mpc/h)^3    P_linear(k)  (Mpc/h)^3
     0.00783031         449.178         454.145 
       0.013688         530.039         532.381 
       0.019231         512.213         512.726 
      0.0249154         446.848          448.35 
      0.0312784         363.185         362.832 
      0.0375637         290.078         289.054 
      0.0433917         239.213         238.791 
      0.0492413         206.392         205.634 
      0.0555754         184.194         184.385 
      0.0619321         172.492         171.696 
       0.067871         161.764         162.045 
      0.0738098         150.568         150.823 
      0.0800417          135.49         135.897 
      0.0862327         118.878         118.791 
      0.0921407         102.706          102.47 
      0.0982031         88.0109         87.8608 
       0.104506         76.9537         76.3331 
       0.110769         69.3362         68.7886 
       0.116806         64.7613         64.5405 
       0.122832         62.4912         62.1441 
       0.129052         60.3483         60.3014 
       0.135211         58.0303         58.0043 
       0.141259         54.9048         54.7081 
       0.147318         50.7533         50.3889 
       0.153489         45.7095         45.4379 
       0.159709         40.9241         40.5872 
       0.165845         37.0752         36.5191 
       0.171974         33.7815         33.4644 
       0.178125         31.8083          31.412 
       0.184229         30.5655         30.1563 
        0.19034         29.5452         29.3331 
       0.196428         28.8996         28.5837 
       0.202534         28.0652         27.6211 
       0.208729         26.6295         26.2944 
       0.214876         24.9505         24.6663 
       0.220989          23.289         22.8984 
       0.227147         21.4784         21.1708 
        0.23329         19.9828         19.6694 
       0.239377         18.8505         18.4898 
       0.245482         17.8804         17.6164 
       0.251667         17.3661         16.9805 
       0.257832         16.8237         16.4895 
       0.263955         16.3779         16.0303 
       0.270079         15.8472         15.5143 
        0.27624         15.2928         14.8985 
       0.282372            14.6         14.1964 
        0.28843         13.8089          13.461 
       0.294538         13.0953         12.7344 
       0.300721         12.4959          12.068 
        0.30691         11.8502         11.5005 
       0.313033         11.4035         11.0429 
       0.319153         10.9521         10.6706 
       0.325316          10.734         10.3502 
        0.33145         10.4151         10.0511 
       0.337538         10.0966         9.74721 
       0.343633         9.73569         9.42037 
       0.349808         9.41723         9.06759 
       0.355968         9.05177          8.7037 
       0.362074         8.68704         8.34944 
       0.368217         8.36106         8.01466 
       0.374374         8.02992         7.71213 
       0.380519         7.78731         7.44652 
       0.386598          7.5715         7.21482 
       0.392688         7.37458         7.00621 
        0.39888         7.15738         6.80674 
       0.405048         6.96149          6.6116 
       0.411186         6.76809           6.416 
       0.417313         6.54876         6.21668 
       0.423458         6.35872         6.01597 
       0.429607         6.14518         5.81877 
       0.435692         5.95292         5.63143 
       0.441815         5.77866         5.45465 
       0.447964         5.63896         5.29107 
       0.454126         5.45439         5.13966 
       0.460267         5.32294         4.99934 
       0.466387         5.16738         4.86722 
        0.47254         5.05197         4.73883 
       0.478662         4.93563         4.61302 
       0.484765         4.78658         4.48917 
       0.490885         4.66633         4.36673 
       0.497035         4.57995           4.246 
       0.503198         4.44156          4.1288 
       0.509342         4.32825         4.01713 
       0.515458         4.21873         3.91182 
       0.521598         4.11901         3.81153 
       0.527764          4.0062          3.7158 
       0.533884         3.93631         3.62511 
           0.54         3.83703         3.53789 
       0.546137         3.75402         3.45284 
       0.552299         3.67124         3.36922 
       0.558452         3.57128         3.28756 
       0.564573         3.50121         3.20842 
       0.570708          3.4217         3.13146 
       0.576825          3.3344         3.05728 
       0.582926         3.27167         2.98591 
       0.589034         3.18145         2.91714 
       0.595184         3.12131         2.85065 
       0.601379         3.05124         2.78626 
       0.607522               3         2.72459 
       0.613639         2.94796         2.66501 
       0.619772         2.86653          2.6068 
       0.625918         2.82154         2.54994 
       0.632068         2.77166         2.49455 
       0.638161         2.70569         2.44122 
         0.6443         2.65018         2.38908 
       0.650464         2.58979         2.33835 
       0.656582         2.55124         2.28952 
       0.662703         2.50098         2.24215 
       0.668861         2.45976         2.19593 
       0.675024         2.40499         2.15106 
       0.681124         2.35529         2.10794 
       0.687237         2.31944         2.06596 
       0.693381         2.27697         2.02492 
       0.699536         2.21874         1.98491 
       0.705665         2.18388          1.9461 
       0.711789         2.14756         1.90832 
       0.717957         2.10541         1.87125 
        0.72409         2.06803         1.83537 
       0.730186         2.02948         1.80066 
       0.736317         2.00754         1.76669 
       0.742472         1.97058         1.73351 
       0.748622          1.9298         1.70125 
        0.75476         1.89426         1.66991 
       0.760888         1.86075         1.63943 
       0.767043         1.83969         1.60959 
       0.773185         1.80015         1.58056 
       0.779291         1.77477          1.5524 
       0.785407         1.74359         1.52488 
       0.791564         1.71812         1.49785 
       0.797719         1.69235         1.47149 
       0.803834         1.66776         1.44593 
       0.809972         1.63962         1.42089 
       0.816124         1.60943         1.39639 
       0.822261         1.57952         1.37255 
       0.828378         1.55854         1.34934 
       0.834502         1.54096         1.32666 
       0.840667         1.50649         1.30436 
       0.846816         1.48415         1.28265 
       0.852925         1.46969         1.26157 
       0.859047          1.4472         1.24092 
       0.865192         1.42278         1.22067 
       0.871341         1.40335         1.20086 
       0.877463         1.38558         1.18158 
       0.883569         1.35953         1.16278 
       0.889708         1.34034         1.14429 
       0.895864         1.32107         1.12616 
       0.902008          1.2991         1.10846 
       0.908149         1.28376         1.09115 
       0.914301         1.25812         1.07419 
       0.920448         1.24287          1.0576 
       0.926574         1.22449         1.04143 
       0.932687         1.20683         1.02563 
       0.938823         1.19597          1.0101 
       0.944975         1.17802        0.994857 
       0.951105         1.16301        0.979988 
       0.957225         1.15084        0.965451 
       0.963368         1.13309         0.95116 
       0.969511         1.11558        0.937161 
       0.975621         1.09835         0.92352 
       0.981748         1.08833        0.910118 
       0.987916         1.07155        0.896899 
        0.99406         1.05528        0.883994 
        1.00019         1.04628         0.87137 
        1.00632         1.02851        0.859006 
        1.01246         1.01606        0.846866 
        1.01859         1.00451        0.834981 
        1.02471        0.989704        0.823341 
        1.03085        0.980629        0.811884 
        1.03698        0.965464         0.80067 
        1.04314        0.955165        0.789623 
        1.04929        0.941411        0.778811 
        1.05541        0.931747        0.768246 
        1.06154        0.918669        0.757852 
        1.06769        0.907646        0.747636 
        1.07382        0.896362        0.737643 
        1.07993        0.882897        0.727856 
        1.08607        0.877384        0.718208 
        1.09222        0.863975        0.708726 
        1.09836        0.856969        0.699427 
        1.10449        0.846478        0.690306 
        1.11063        0.833186        0.681339 
        1.11677         0.82272        0.672535 
         1.1229        0.814624        0.663902 
        1.12903        0.804458        0.655414 
        1.13518        0.796659        0.647067 
        1.14131        0.785652        0.638871 
        1.14745        0.772447        0.630823 
        1.15359        0.767396        0.622912 
        1.15973         0.75602        0.615133 
        1.16584        0.751857        0.607523 
        1.17197        0.742533        0.600032 
        1.17811          0.7351        0.592644 
        1.18424        0.728152        0.585403 
        1.19038        0.717624        0.578262 
        1.19652        0.708398        0.571244 
        1.20267        0.703931        0.564343 
        1.20881        0.693801        0.557557 
        1.21495        0.688192        0.550895 
        1.22108        0.680475        0.544342 
         1.2272        0.674919        0.537912 
        1.23334        0.665992        0.531572 
        1.23949        0.658651        0.525319 
        1.24562        0.652552        0.519185 
        1.25174        0.646063        0.513159 
        1.25789        0.639516         0.50721 
        1.26402        0.630802        0.501367 
        1.27014         0.62458         0.49563 
        1.27628        0.620873        0.489966 
        1.28244        0.611143        0.484381 
        1.28858        0.605986         0.47889 
        1.29471        0.600893        0.473498 
        1.30084        0.593493        0.468193 
        1.30697        0.587515        0.462962 
        1.31312        0.579466        0.457804 
        1.31925        0.575478        0.452741 
        1.32537        0.570423         0.44776 
        1.33151        0.565679        0.442837 
        1.33765        0.559332        0.437991 
        1.34378        0.552114        0.433227 
        1.34992        0.548431         0.42853 
        1.35606        0.542089        0.423894 
         1.3622        0.537456        0.419335 
        1.36833        0.531739        0.414854 
        1.37445        0.525013         0.41044 
        1.38059        0.520962        0.406078 
        1.38675        0.519096        0.401769 
        1.39288        0.512154        0.397539 
        1.39901        0.507492        0.393373 
        1.40515        0.503203        0.389256 
         1.4113         0.49744        0.385201 
        1.41742        0.492728        0.381219 
        1.42355        0.490504        0.377285 
         1.4297        0.483665        0.373396 
        1.43585        0.479538        0.369563 
        1.44198        0.477452        0.365799 
        1.44809        0.471004        0.362094 
        1.45423        0.466971        0.358427 
        1.46036        0.462836        0.354818 
        1.46649        0.459011        0.351257 
        1.47263        0.454571        0.347743 
        1.47877        0.449947        0.344278 
        1.48491         0.44629        0.340856 
        1.49104        0.441248        0.337487 
        1.49718        0.438546        0.334161 
        1.50333        0.434674        0.330875 
        1.50947        0.430944         0.32764 
         1.5156        0.426533        0.324453 
        1.52172        0.423146        0.321309 
        1.52787        0.419056        0.318201 
          1.534         0.41582        0.315137 
        1.54013        0.411628        0.312117 
        1.54627        0.408379        0.309131 
        1.55241        0.404457        0.306184 
        1.55855        0.400834         0.30328 
        1.56467        0.399244        0.300421 
         1.5708        0.394396        0.297592 
        1.57695        0.391793        0.294794 
        1.58308        0.388422         0.29204 
        1.58922        0.385054        0.289318 
        1.59535        0.381671        0.286632 
         1.6015        0.378488        0.283977 
        1.60764        0.375803        0.281357 
        1.61376        0.371836        0.278776 
        1.61989        0.369564        0.276227 
        1.62604        0.366152        0.273703 
        1.63218        0.363916        0.271213 
        1.63831        0.360653        0.268759 
        1.64444        0.357513        0.266335 
        1.65059        0.354957        0.263935 
        1.65673        0.351527        0.261568 
        1.66285        0.349295        0.259236 
        1.66898        0.347174        0.256931 
        1.67512        0.343191        0.254651 
        1.68127         0.34021        0.252396 
         1.6874        0.338912        0.250173 
        1.69353        0.335424        0.247979 
        1.69967        0.332984        0.245806 
        1.70581        0.330237         0.24366 
        1.71193        0.327765        0.241547 
        1.71806        0.325147        0.239456 
        1.72421        0.322726        0.237385 
        1.73035        0.319745         0.23534 
        1.73649        0.318044        0.233321 
        1.74262        0.315438        0.231327 
        1.74876        0.312752        0.229354 
        1.75489        0.310418        0.227409 
        1.76101        0.308003        0.225487 
        1.76715        0.305645        0.223585 
        1.77329        0.303519        0.221702 
        1.77943        0.300796        0.219841 
        1.78557        0.298994        0.218003 
        1.79171         0.29698        0.216186 
        1.79785        0.294428         0.21439 
        1.80399         0.29234        0.212614 
        1.81012        0.290481        0.210861 
        1.81625        0.288178        0.209129 
        1.82239        0.286433        0.207413 
        1.82853         0.28335        0.205718 
        1.83466        0.281701        0.204043 
        1.84078        0.279304        0.202389 
        1.84692        0.277567         0.20075 
        1.85306        0.276102        0.199127 
         1.8592         0.27392        0.197525 
        1.86533        0.272228        0.195942 
        1.87147        0.270102        0.194374 
        1.87761        0.268272        0.192823 
        1.88375        0.265696         0.19129 
        1.88988        0.264377        0.189775 
        1.89601        0.262104        0.188277 
        1.90215        0.260767        0.186793 
        1.90829        0.258593        0.185326 
        1.91442        0.256988        0.183875 
        1.92056        0.255199         0.18244 
         1.9267        0.253143         0.18102 
        1.93284         0.25151        0.179613 
        1.93897        0.249705        0.178225 
        1.94509        0.248393        0.176854 
        1.95123        0.246319        0.175494 
        1.95737        0.245048        0.174147 
        1.96349        0.242978        0.172818 
        1.96964        0.241484        0.171499 
        1.97578        0.239634        0.170193 
        1.98192        0.238314        0.168904 
        1.98805        0.236906        0.167627 
        1.99419        0.235026        0.166364 
        2.00033        0.233611        0.165114 
        2.00647         0.23238        0.163876 
         2.0126        0.230277        0.162653 
        2.01874        0.229043        0.161441 
        2.02488        0.227711         0.16024 
        2.03101        0.225834        0.159054 
        2.03714        0.224201        0.157881 
        2.04328        0.223203        0.156718 
        2.04941         0.22162        0.155568 
        2.05554         0.22017        0.154431 
        2.06167        0.219006        0.153303 
        2.06781        0.216737        0.152186 
        2.07396         0.21562        0.151079 
        2.08009        0.214245        0.149985 
        2.08622        0.213054        0.148903 
        2.09237        0.212033         0.14783 
        2.09851        0.210564        0.146767 
        2.10464         0.20915        0.145716 
        2.11077        0.207903        0.144677 
        2.11691        0.206397        0.143645 
        2.12305        0.205073        0.142624 
        2.12918        0.204091        0.141615 
        2.13531        0.202477        0.140615 
        2.14145        0.201346        0.139623 
         2.1476        0.200186         0.13864 
        2.15372        0.199256        0.137671 
        2.15985        0.197585         0.13671 
        2.16599        0.196104        0.135755 
        2.17213        0.195392        0.134811 
        2.17827        0.194204        0.133876 
         2.1844        0.193243        0.132951 
        2.19054        0.191686        0.132034 
        2.19666         0.19019        0.131127 
         2.2028        0.189529        0.130228 
        2.20893        0.188531        0.129336 
        2.21508        0.186937        0.128453 
        2.22122        0.185585        0.127577 
        2.22736        0.184874        0.126711 
        2.23349        0.183698        0.125853 
        2.23962        0.182923        0.125003 
        2.24577        0.181337         0.12416 
         2.2519        0.180695        0.123326 
        2.25802         0.17931        0.122501 
        2.26417        0.178405        0.121681 
        2.27031         0.17719        0.120868 
        2.27644        0.176294        0.120065 
        2.28257        0.175269        0.119269 
        2.28872        0.174186        0.118479 
        2.29486         0.17324        0.117696 
        2.30099        0.172228        0.116921 
        2.30712        0.171343        0.116154 
        2.31326         0.17008        0.115392 
         2.3194        0.169896        0.114637 
        2.32553        0.168754        0.113891 
        2.33166        0.167835        0.113151 
         2.3378        0.166773        0.112417 
        2.34394        0.165319        0.111689 
        2.35007        0.164652        0.110969 
        2.35619        0.163648        0.110256 
        2.36233        0.162441        0.109547 
        2.36848        0.161822        0.108843 
        2.37462        0.160753        0.108147 
        2.38075        0.160278        0.107458 
        2.38689        0.159177        0.106774 
        2.39303        0.158632        0.106096 
        2.39916        0.157158        0.105425 
        2.40529        0.156582         0.10476 
        2.41143        0.155745          0.1041 
        2.41757        0.154841        0.103445 
         2.4237        0.154093        0.102797 
        2.42983         0.15308        0.102155 
        2.43598        0.152648        0.101517 
        2.44211        0.151664        0.100885 
        2.44823        0.151043         0.10026 
        2.45437        0.149733        0.099638 
        2.46052        0.149214       0.0990213 
        2.46665         0.14824       0.0984108 
        2.47279        0.147512       0.0978057 
        2.47892        0.146705       0.0972053 
        2.48507        0.145813       0.0966093 
         2.4912        0.145233       0.0960195 
