# k  (h/Mpc)    P(k)  (Mpc/h)^3    P_linear(k)  (Mpc/h)^3
     0.00783031         21620.6         21830.5 
       0.013688         23364.5           24096 
       0.019231         21828.4         22217.1 
      0.0249154         18914.3         18797.4 
      0.0312784         14854.8         14943.8 
      0.0375637         11841.7         11987.4 
      0.0433917         10153.2         10146.2 
      0.0492413         8937.85         8985.17 
      0.0555754         8195.45         8177.64 
      0.0619321         7299.47         7512.17 
       0.067871         6750.49         6832.75 
      0.0738098         6069.83          6054.4 
      0.0800417         5272.04         5201.32 
      0.0862327         4504.26         4431.55 
      0.0921407         3979.95         3848.77 
      0.0982031         3612.05         3428.46 
       0.104506         3256.35         3153.05 
       0.110769         3088.56         2979.68 
       0.116806         2973.26         2841.42 
       0.122832         2787.05          2682.9 
       0.129052         2574.81         2477.42 
       0.135211         2427.75         2242.86 
       0.141259         2177.53         2011.18 
       0.147318         1978.12         1806.49 
       0.153489          1833.8         1643.64 
       0.159709         1758.82         1527.92 
       0.165845         1625.82         1450.34 
       0.171974         1593.07         1391.78 
       0.178125         1538.33         1334.94 
       0.184229         1415.59         1269.32 
        0.19034         1377.84         1191.86 
       0.196428         1319.06         1107.74 
       0.202534         1218.47         1024.82 
       0.208729          1187.5         950.115 
       0.214876         1121.59         889.699 
       0.220989         1061.89          843.14 
       0.227147         1031.82          806.52 
        0.23329         991.164         775.344 
       0.239377         983.564         745.174 
       0.245482         931.076         712.816 
       0.251667         894.758         677.398 
       0.257832         874.218         640.836 
       0.263955         828.468         605.561 
       0.270079          798.39         573.413 
        0.27624         764.769         545.338 
       0.282372          751.69          521.65 
        0.28843         737.448          501.49 
       0.294538         701.402         483.083 
       0.300721         685.663         465.146 
        0.30691         667.732         447.057 
       0.313033         638.553         428.871 
       0.319153         629.836         410.708 
       0.325316         619.134         393.035 
        0.33145         602.499         376.601 
       0.337538         579.882         361.733 
       0.343633         565.523         348.304 
       0.349808         552.017         335.926 
       0.355968         541.281         324.445 
       0.362074         520.372          313.54 
       0.368217         517.253         302.829 
       0.374374         509.258         292.257 
       0.380519         488.578         281.929 
       0.386598         483.705         272.076 
       0.392688         470.597         262.689 
        0.39888         459.934         253.729 
       0.405048         448.579         245.406 
       0.411186         448.288         237.635 
       0.417313         441.562         230.298 
       0.423458         430.182         223.259 
       0.429607         416.482         216.444 
       0.435692         411.082         209.898 
       0.441815         403.276         203.517 
       0.447964         395.606          197.33 
       0.454126         390.877         191.382 
       0.460267         384.412         185.734 
       0.466387         375.323         180.381 
        0.47254         371.746         175.248 
       0.478662         363.765         170.365 
       0.484765         357.991         165.692 
       0.490885         355.452         161.174 
       0.497035         346.385         156.779 
       0.503198         345.724          152.52 
       0.509342         338.669         148.421 
       0.515458         331.834         144.491 
       0.521598         328.761         140.694 
       0.527764         322.576         137.026 
       0.533884          318.73         133.527 
           0.54         315.448         130.163 
       0.546137         309.106         126.908 
       0.552299         307.154         123.751 
       0.558452         302.047         120.701 
       0.564573         300.691         117.763 
       0.570708          294.86         114.915 
       0.576825         289.956         112.169 
       0.582926         288.914         109.521 
       0.589034         283.011         106.959 
       0.595184         281.206         104.463 
       0.601379         276.369         102.032 
       0.607522         270.662         99.6993 
       0.613639         269.983         97.4501 
       0.619772         268.718         95.2653 
       0.625918         262.996         93.1432 
       0.632068         261.407         91.0842 
       0.638161         258.896         89.1052 
         0.6443         254.686         87.1705 
       0.650464         252.551         85.2864 
       0.656582         249.489         83.4718 
       0.662703         248.774         81.7103 
       0.668861          243.37         79.9905 
       0.675024         242.664         78.3196 
       0.681124         238.202         76.7136 
       0.687237         237.505         75.1499 
       0.693381         233.448         73.6225 
       0.699536         233.021         72.1349 
       0.705665         229.905         70.6948 
       0.711789         227.193         69.2954 
       0.717957         225.828         67.9244 
        0.72409         222.674         66.5983 
       0.730186         223.226         65.3158 
       0.736317          219.55         64.0603 
       0.742472         217.665         62.8335 
       0.748622          216.03         61.6401 
        0.75476         214.412         60.4804 
       0.760888         212.155         59.3525 
       0.767043         209.313          58.249 
       0.773185         207.228         57.1759 
       0.779291          206.02          56.136 
       0.785407         204.425         55.1206 
       0.791564         203.072          54.124 
       0.797719         199.878         53.1526 
       0.803834         199.944         52.2113 
       0.809972          197.08         51.2894 
       0.816124         194.916         50.3879 
       0.822261         193.474         49.5106 
       0.828378         192.599         48.6568 
       0.834502         190.078         47.8225 
       0.840667         189.969         47.0024 
       0.846816         186.884         46.2039 
       0.852925         186.843         45.4291 
       0.859047         184.317         44.6704 
       0.865192         183.706         43.9267 
       0.871341         182.068         43.1994 
       0.877463         180.516         42.4919 
       0.883569         179.881         41.8021 
       0.889708         178.456         41.1242 
       0.895864         175.884         40.4595 
       0.902008         174.769         39.8111 
       0.908149         173.058         39.1772 
       0.914301          172.23         38.5562 
       0.920448         171.035         37.9492 
       0.926574         169.457         37.3575 
       0.932687         169.261         36.7797 
       0.938823         167.568          36.212 
       0.944975         167.217         35.6551 
       0.951105         165.163         35.1119 
       0.957225         163.828          34.581 
       0.963368         163.772         34.0593 
       0.969511         161.651         33.5484 
       0.975621         159.449         33.0507 
       0.981748         159.504         32.5619 
       0.987916          158.51         32.0799 
        0.99406         157.127         31.6095 
        1.00019         156.335         31.1494 
        1.00632         155.252          30.699 
        1.01246         154.107         30.2567 
        1.01859         152.525          29.824 
        1.02471         151.461         29.4002 
        1.03085         150.773         28.9832 
        1.03698         150.148         28.5752 
        1.04314         149.319         28.1734 
        1.04929         148.211         27.7802 
        1.05541         147.934         27.3961 
        1.06154         146.391         27.0183 
        1.06769         145.505         26.6471 
        1.07382         143.961          26.284 
        1.07993         143.479         25.9286 
        1.08607         143.143         25.5782 
        1.09222         141.532          25.234 
        1.09836         140.762         24.8965 
        1.10449         140.165         24.5656 
        1.11063         138.815         24.2404 
        1.11677         138.015         23.9212 
         1.1229         137.578         23.6082 
        1.12903         135.953         23.3006 
        1.13518         135.416         22.9983 
        1.14131          134.95         22.7015 
        1.14745         133.684           22.41 
        1.15359         133.038         22.1237 
        1.15973         132.342         21.8423 
        1.16584          131.56          21.567 
        1.17197         130.978          21.296 
        1.17811         129.647         21.0289 
        1.18424         129.146         20.7672 
        1.19038         128.426         20.5092 
        1.19652         127.142         20.2556 
        1.20267         126.494         20.0064 
        1.20881         125.808         19.7614 
        1.21495         125.497         19.5208 
        1.22108         124.422         19.2844 
         1.2272         124.156         19.0524 
        1.23334          122.92         18.8237 
        1.23949         122.453         18.5981 
        1.24562         121.604         18.3769 
        1.25174          121.34         18.1597 
        1.25789         120.315         17.9453 
        1.26402          119.64         17.7347 
        1.27014         118.986          17.528 
        1.27628         118.619          17.324 
        1.28244          117.58         17.1229 
        1.28858         116.937         16.9252 
        1.29471          116.01          16.731 
        1.30084         115.617         16.5401 
        1.30697         114.841         16.3519 
        1.31312         114.485         16.1663 
        1.31925         113.293         15.9842 
        1.32537         113.076         15.8051 
        1.33151         112.128         15.6281 
        1.33765         111.866         15.4539 
        1.34378         111.292         15.2827 
        1.34992         110.452         15.1139 
        1.35606         110.056         14.9474 
         1.3622         109.389         14.7836 
        1.36833         108.795         14.6227 
        1.37445          108.11         14.4643 
        1.38059         107.473         14.3077 
        1.38675         106.945         14.1531 
        1.39288         106.328         14.0014 
        1.39901          105.56         13.8519 
        1.40515         105.104         13.7043 
         1.4113         104.663          13.559 
        1.41742         104.272         13.4162 
        1.42355         103.382         13.2753 
         1.4297         102.891          13.136 
        1.43585         102.576         12.9987 
        1.44198         101.889         12.8639 
        1.44809         101.279         12.7313 
        1.45423         100.923            12.6 
        1.46036         100.142         12.4708 
        1.46649         99.4776         12.3434 
        1.47263          99.211         12.2177 
        1.47877         98.6567         12.0938 
        1.48491         97.9516         11.9714 
        1.49104         97.4959          11.851 
        1.49718         96.9343         11.7321 
        1.50333         96.2477         11.6146 
        1.50947         96.2054         11.4991 
         1.5156         95.4237         11.3852 
        1.52172         94.8623         11.2729 
        1.52787         94.4966         11.1619 
          1.534         94.0338         11.0525 
        1.54013         93.5176         10.9446 
        1.54627         92.9913          10.838 
        1.55241         92.6102         10.7328 
        1.55855         91.8969         10.6292 
        1.56467         91.4655         10.5272 
         1.5708         90.9709         10.4262 
        1.57695         90.6623         10.3265 
        1.58308         89.8925         10.2282 
        1.58922         89.5685         10.1312 
        1.59535         89.2953         10.0354 
         1.6015         88.5805         9.94079 
        1.60764         88.2269         9.84741 
        1.61376         88.0293         9.75549 
        1.61989         87.3947         9.66466 
        1.62604         87.0731         9.57479 
        1.63218         86.3801         9.48611 
        1.63831         86.1363         9.39876 
        1.64444         85.4422         9.31248 
        1.65059         85.0718         9.22707 
        1.65673         84.7811         9.14283 
        1.66285         84.5575         9.05987 
        1.66898         83.7537         8.97791 
        1.67512         83.1293          8.8968 
        1.68127         83.0548         8.81663 
         1.6874         82.7466         8.73761 
        1.69353         82.0656         8.65962 
        1.69967         81.7422         8.58238 
        1.70581         81.2823         8.50613 
        1.71193         80.9635         8.43108 
        1.71806         80.2241         8.35678 
        1.72421         79.9197         8.28323 
        1.73035         79.5849         8.21065 
        1.73649         79.2895         8.13894 
        1.74262         78.6658         8.06816 
        1.74876         78.2835         7.99816 
        1.75489         78.2306         7.92913 
        1.76101         77.7281         7.86094 
        1.76715         77.2448         7.79346 
        1.77329         76.8541         7.72668 
        1.77943         76.3911         7.66065 
        1.78557         76.1149         7.59549 
        1.79171           75.68         7.53107 
        1.79785         75.3054         7.46739 
        1.80399         74.8092         7.40445 
        1.81012         74.4817         7.34232 
        1.81625         74.0341         7.28093 
        1.82239          73.789         7.22015 
        1.82853         73.2781         7.16009 
        1.83466         72.9452         7.10077 
        1.84078         72.6681         7.04218 
        1.84692         72.3315         6.98416 
        1.85306         72.0952         6.92671 
         1.8592         71.7692         6.87001 
        1.86533          71.246         6.81397 
        1.87147          70.873         6.75849 
        1.87761         70.5013          6.7036 
        1.88375         70.1413         6.64938 
        1.88988         69.7676         6.59582 
        1.89601         69.5202         6.54282 
        1.90215         69.3105         6.49036 
        1.90829         68.7407          6.4385 
        1.91442         68.3385         6.38719 
        1.92056         68.1314          6.3365 
         1.9267         67.7232          6.2863 
        1.93284         67.4789         6.23661 
        1.93897         67.1293         6.18755 
        1.94509         66.7928         6.13913 
        1.95123          66.432         6.09109 
        1.95737         66.1297         6.04354 
        1.96349         66.0005         5.99662 
        1.96964         65.7776         5.95006 
        1.97578         65.1196         5.90397 
        1.98192         64.7893         5.85846 
        1.98805         64.6803         5.81342 
        1.99419         64.3696         5.76886 
        2.00033         63.9482         5.72474 
        2.00647         63.6268         5.68109 
         2.0126         63.4142         5.63797 
        2.01874         63.0408         5.59523 
        2.02488         62.7793          5.5529 
        2.03101         62.3539         5.51107 
        2.03714         62.1603         5.46972 
        2.04328         61.9289         5.42875 
        2.04941         61.5207         5.38822 
        2.05554         61.3295         5.34814 
        2.06167         61.0248         5.30841 
        2.06781         60.7317         5.26908 
        2.07396         60.2058         5.23008 
        2.08009         60.0421         5.19155 
        2.08622         59.6797         5.15345 
        2.09237         59.5264         5.11566 
        2.09851         59.0928         5.07823 
        2.10464         58.8927         5.04125 
        2.11077         58.6614         5.00467 
        2.11691         58.3173         4.96838 
        2.12305         58.0063         4.93244 
        2.12918         57.6853         4.89694 
        2.13531         57.5466         4.86179 
        2.14145         57.2153          4.8269 
         2.1476         56.9809         4.79232 
        2.15372         56.6455         4.75824 
        2.15985         56.4092         4.72446 
        2.16599         56.1813         4.69092 
        2.17213         55.8485         4.65773 
        2.17827         55.4765         4.62487 
         2.1844          55.314         4.59235 
        2.19054         55.0851         4.56014 
        2.19666         54.7416         4.52828 
         2.2028         54.5739          4.4967 
        2.20893         54.2036         4.46539 
        2.21508          54.077         4.43436 
        2.22122           53.73          4.4036 
        2.22736         53.3848          4.3732 
        2.23349         53.2139         4.34309 
        2.23962         53.0221         4.31326 
        2.24577         52.8063         4.28367 
         2.2519         52.4023          4.2544 
        2.25802         52.2208         4.22545 
        2.26417         52.0107         4.19669 
        2.27031         51.7178         4.16817 
        2.27644         51.4451            4.14 
        2.28257          51.258         4.11209 
        2.28872         51.0164         4.08438 
        2.29486         50.7595         4.05693 
        2.30099         50.5024         4.02979 
        2.30712         50.3404         4.00289 
        2.31326         50.0087         3.97618 
         2.3194         49.7337         3.94974 
        2.32553         49.5563         3.92357 
        2.33166         49.3511         3.89766 
         2.3378         49.0685         3.87194 
        2.34394         48.9604         3.84645 
        2.35007         48.6066         3.82122 
        2.35619         48.4459         3.79625 
        2.36233         48.1375         3.77144 
        2.36848         48.0112          3.7468 
        2.37462         47.7135         3.72243 
        2.38075         47.3897          3.6983 
        2.38689         47.3041         3.67437 
        2.39303         47.0582         3.65065 
        2.39916         46.8683         3.62716 
        2.40529         46.6637         3.60388 
        2.41143         46.4639         3.58079 
        2.41757          46.199         3.55789 
         2.4237          46.015         3.53523 
        2.42983         45.8147         3.51277 
        2.43598          45.619         3.49044 
        2.44211         45.3235         3.46835 
        2.44823         45.1199         3.44649 
        2.45437          44.878         3.42477 
        2.46052         44.7261         3.40321 
        2.46665          44.518         3.38188 
        2.47279         44.2537         3.36073 
        2.47892         44.0963         3.33975 
        2.48507         43.9193         3.31893 
         2.4912         43.7217         3.29833 
