# k  (h/Mpc)    P(k)  (Mpc/h)^3    P_linear(k)  (Mpc/h)^3
     0.00783031         11550.6         11601.1 
       0.013688         14481.1         14833.7 
       0.019231         15314.5         15538.2 
      0.0249154         14904.5         14915.3 
      0.0312784         13316.6         13490.7 
      0.0375637         11706.3         11958.6 
      0.0433917         10607.2         10725.1 
      0.0492413         9554.71          9753.8 
      0.0555754         8832.25         8963.27 
      0.0619321         7964.57         8333.87 
       0.067871         7549.28         7791.56 
      0.0738098         7055.95         7229.36 
      0.0800417         6456.88         6601.09 
      0.0862327         5814.67          5965.6 
      0.0921407         5286.15         5393.84 
      0.0982031         4852.73         4883.44 
       0.104506         4375.43         4457.27 
       0.110769         4079.74         4135.76 
       0.116806         3914.69         3899.27 
       0.122832         3676.98         3703.84 
       0.129052         3487.61         3513.68 
       0.135211         3363.54         3315.94 
       0.141259         3117.81         3106.68 
       0.147318         2881.19         2888.86 
       0.153489         2717.05         2672.79 
       0.159709            2603         2475.84 
       0.165845         2383.07         2311.34 
       0.171974         2326.61         2178.38 
       0.178125         2251.16         2071.45 
       0.184229         2084.41         1982.58 
        0.19034         2051.25            1901 
       0.196428         1990.36          1819.4 
       0.202534         1869.17         1733.41 
       0.208729         1829.95          1642.3 
       0.214876         1751.28         1551.53 
       0.220989         1658.23         1465.49 
       0.227147         1617.01            1387 
        0.23329         1556.22         1318.88 
       0.239377         1543.45          1261.2 
       0.245482         1471.54         1211.15 
       0.251667          1418.1         1165.52 
       0.257832         1399.17         1122.26 
       0.263955         1334.67         1079.45 
       0.270079         1299.09         1036.03 
        0.27624         1245.47         992.138 
       0.282372         1228.84         949.312 
        0.28843         1211.83         909.138 
       0.294538         1155.22         871.727 
       0.300721         1130.99         837.492 
        0.30691         1107.66          806.63 
       0.313033         1065.18         778.815 
       0.319153         1052.82         752.831 
       0.325316         1039.42         727.718 
        0.33145         1018.47         703.209 
       0.337538         984.707         679.212 
       0.343633         960.957         655.595 
       0.349808          942.04         632.421 
       0.355968         924.753         610.364 
       0.362074         896.838          589.81 
       0.368217         893.931         570.521 
       0.374374         880.649         552.487 
       0.380519          849.45         535.595 
       0.386598         843.945         519.699 
       0.392688         825.468         504.377 
        0.39888         805.837         489.258 
       0.405048         792.449         474.582 
       0.411186         789.936           460.4 
       0.417313         786.184         446.718 
       0.423458         761.448         433.548 
       0.429607         741.094         420.989 
       0.435692         734.438         409.172 
       0.441815         721.449         397.853 
       0.447964         711.643         387.014 
       0.454126         702.871         376.597 
       0.460267         693.052         366.582 
       0.466387         682.901         356.924 
        0.47254         671.193         347.514 
       0.478662         661.528         338.439 
       0.484765          655.36         329.689 
       0.490885         648.188          321.23 
       0.497035         636.574         313.054 
       0.503198         636.065         305.179 
       0.509342         623.536          297.63 
       0.515458         611.988         290.399 
       0.521598         607.583         283.396 
       0.527764         595.495         276.595 
       0.533884          591.66         270.054 
           0.54          585.67         263.719 
       0.546137         576.457         257.559 
       0.552299         574.424         251.567 
       0.558452         567.123         245.775 
       0.564573         561.406         240.199 
       0.570708         556.732         234.794 
       0.576825         545.734         229.584 
       0.582926         543.714         224.553 
       0.589034         536.161         219.672 
       0.595184         531.655         214.905 
       0.601379         523.572         210.246 
       0.607522         515.512         205.761 
       0.613639         514.321         201.426 
       0.619772         511.857         197.205 
       0.625918         502.923         193.097 
       0.632068         499.605         189.106 
       0.638161         494.513         185.265 
         0.6443         489.586         181.507 
       0.650464          484.85         177.842 
       0.656582         480.986         174.308 
       0.662703         476.411         170.871 
       0.668861         470.686         167.507 
       0.675024         467.497         164.232 
       0.681124         461.156         161.078 
       0.687237         459.524             158 
       0.693381         453.226         154.989 
       0.699536          451.24         152.053 
       0.705665         446.438         149.206 
       0.711789         445.258         146.436 
       0.717957         438.681         143.719 
        0.72409         434.726         141.088 
       0.730186         436.221         138.539 
       0.736317         428.845          136.04 
       0.742472         424.461         133.594 
       0.748622         421.501         131.211 
        0.75476         418.808         128.892 
       0.760888         415.607         126.633 
       0.767043         412.767          124.42 
       0.773185         410.411         122.264 
       0.779291         404.736         120.173 
       0.785407         402.844         118.129 
       0.791564         399.591         116.119 
       0.797719         393.869         114.159 
       0.803834         396.417         112.256 
       0.809972         390.305          110.39 
       0.816124          386.64         108.564 
       0.822261         383.746         106.784 
       0.828378          382.38         105.049 
       0.834502         376.747         103.353 
       0.840667         376.886         101.683 
       0.846816         370.909         100.055 
       0.852925         371.395         98.4729 
       0.859047         367.921         96.9224 
       0.865192         366.486         95.4005 
       0.871341         361.423         93.9107 
       0.877463         359.117         92.4597 
       0.883569         356.776         91.0434 
       0.889708         353.705         89.6498 
       0.895864          350.96          88.282 
       0.902008         349.363          86.946 
       0.908149         346.506         85.6387 
       0.914301         344.867         84.3565 
       0.920448         342.308          83.102 
       0.926574         340.164         81.8776 
       0.932687         338.268         80.6808 
       0.938823         334.688         79.5038 
       0.944975           333.7         78.3479 
       0.951105         330.848         77.2193 
       0.957225         326.907         76.1151 
       0.963368         327.533          75.029 
       0.969511         321.517         73.9642 
       0.975621         321.476         72.9261 
       0.981748         319.544         71.9054 
       0.987916         317.838          70.898 
        0.99406         314.998         69.9139 
        1.00019         312.177         68.9506 
        1.00632         312.058         68.0066 
        1.01246         309.482         67.0789 
        1.01859          305.85         66.1702 
        1.02471         304.022         65.2797 
        1.03085         303.356         64.4026 
        1.03698         301.329         63.5436 
        1.04314         300.597         62.6968 
        1.04929         298.278         61.8676 
        1.05541         294.997         61.0568 
        1.06154         293.662         60.2586 
        1.06769         290.872         59.4736 
        1.07382         290.435         58.7053 
        1.07993         287.589         57.9524 
        1.08607         285.762         57.2098 
        1.09222         284.139         56.4795 
        1.09836         283.178         55.7629 
        1.10449         280.996         55.0596 
        1.11063         278.662         54.3679 
        1.11677         276.574         53.6883 
         1.1229         275.702         53.0217 
        1.12903         273.989         52.3658 
        1.13518         271.867         51.7206 
        1.14131         271.232         51.0867 
        1.14745         267.834         50.4639 
        1.15359         266.003         49.8514 
        1.15973         265.279         49.2489 
        1.16584         264.045         48.6592 
        1.17197         262.059         48.0784 
        1.17811          259.91         47.5053 
        1.18424         258.503         46.9433 
        1.19038         257.212         46.3889 
        1.19652          254.44         45.8437 
        1.20267         254.061         45.3073 
        1.20881         252.106         44.7797 
        1.21495         251.499         44.2614 
        1.22108         249.625         43.7514 
         1.2272         246.839         43.2508 
        1.23334          246.16         42.7569 
        1.23949         245.216         42.2696 
        1.24562         243.412         41.7913 
        1.25174         241.851         41.3212 
        1.25789         239.841         40.8569 
        1.26402         239.726         40.4007 
        1.27014         238.532         39.9526 
        1.27628         235.805           39.51 
        1.28244         235.014         39.0733 
        1.28858         233.473         38.6438 
        1.29471         232.425         38.2218 
        1.30084         231.071         37.8065 
        1.30697         228.847         37.3968 
        1.31312         227.658         36.9926 
        1.31925         226.462         36.5957 
        1.32537         225.746          36.205 
        1.33151         224.102         35.8187 
        1.33765          222.43         35.4383 
        1.34378         221.293         35.0641 
        1.34992           219.8         34.6952 
        1.35606         218.821         34.3308 
         1.3622         217.515         33.9723 
        1.36833          215.69         33.6199 
        1.37445         215.505         33.2726 
        1.38059         213.456         32.9292 
        1.38675         212.045         32.5899 
        1.39288         211.032         32.2568 
        1.39901         209.697         31.9285 
        1.40515         208.896          31.604 
         1.4113         207.192         31.2842 
        1.41742         205.491         30.9701 
        1.42355         205.995         30.6597 
         1.4297         203.938         30.3527 
        1.43585         202.846         30.0501 
        1.44198         200.982         29.7527 
        1.44809         200.325           29.46 
        1.45423         199.361         29.1701 
        1.46036         198.062         28.8847 
        1.46649         196.969          28.603 
        1.47263         196.265         28.3249 
        1.47877         194.725         28.0507 
        1.48491         193.121         27.7796 
        1.49104         191.579         27.5127 
        1.49718         191.022         27.2492 
        1.50333         189.715         26.9887 
        1.50947         188.904         26.7322 
         1.5156         187.797         26.4794 
        1.52172         186.819         26.2299 
        1.52787         185.698         25.9831 
          1.534         184.742         25.7398 
        1.54013         183.681         25.4999 
        1.54627         182.637         25.2626 
        1.55241         181.795         25.0283 
        1.55855          180.96         24.7974 
        1.56467         179.504           24.57 
         1.5708         178.116         24.3448 
        1.57695         177.561         24.1221 
        1.58308         176.281         23.9028 
        1.58922         175.574          23.686 
        1.59535         174.085         23.4721 
         1.6015          173.36         23.2605 
        1.60764         172.387         23.0516 
        1.61376         171.117         22.8458 
        1.61989         170.284         22.6424 
        1.62604         169.086         22.4411 
        1.63218         168.432         22.2423 
        1.63831         167.569         22.0465 
        1.64444         166.323         21.8529 
        1.65059         165.571         21.6612 
        1.65673         164.457          21.472 
        1.66285         163.897         21.2856 
        1.66898         162.705         21.1014 
        1.67512         161.876          20.919 
        1.68127         160.999         20.7386 
         1.6874         159.981         20.5607 
        1.69353         159.478         20.3851 
        1.69967         158.093         20.2111 
        1.70581         157.687         20.0392 
        1.71193         156.367           19.87 
        1.71806         155.263         19.7024 
        1.72421         154.804         19.5364 
        1.73035         153.802         19.3725 
        1.73649         152.695         19.2105 
        1.74262          152.24         19.0505 
        1.74876         151.342         18.8923 
        1.75489         150.513         18.7361 
        1.76101         149.372         18.5818 
        1.76715          148.48          18.429 
        1.77329         147.845         18.2778 
        1.77943         146.685         18.1282 
        1.78557         146.329         17.9805 
        1.79171         145.502         17.8345 
        1.79785         144.337           17.69 
        1.80399         143.638         17.5472 
        1.81012         142.573         17.4061 
        1.81625         142.234         17.2667 
        1.82239         141.169         17.1286 
        1.82853         140.639         16.9921 
        1.83466          139.53         16.8572 
        1.84078         139.056         16.7239 
        1.84692         138.551         16.5919 
        1.85306         137.388         16.4611 
         1.8592          136.86          16.332 
        1.86533         135.663         16.2043 
        1.87147         135.337         16.0778 
        1.87761         134.221         15.9526 
        1.88375         133.344          15.829 
        1.88988         132.784         15.7067 
        1.89601         132.475         15.5857 
        1.90215         131.824         15.4659 
        1.90829         130.522         15.3474 
        1.91442         129.688         15.2302 
        1.92056         129.066         15.1143 
         1.9267         128.344         14.9994 
        1.93284         127.727         14.8857 
        1.93897         126.985         14.7734 
        1.94509         126.292         14.6625 
        1.95123         125.652         14.5525 
        1.95737         125.101         14.4435 
        1.96349         124.312          14.336 
        1.96964         123.554         14.2292 
        1.97578         122.946         14.1234 
        1.98192         122.403          14.019 
        1.98805         121.682         13.9156 
        1.99419         120.698         13.8133 
        2.00033         120.303         13.7119 
        2.00647          119.73         13.6116 
         2.0126         118.997         13.5124 
        2.01874         118.586         13.4141 
        2.02488           117.5         13.3167 
        2.03101          117.15         13.2204 
        2.03714         116.326         13.1252 
        2.04328         115.939         13.0308 
        2.04941         115.399         12.9375 
        2.05554         114.768         12.8451 
        2.06167         113.799         12.7535 
        2.06781         113.175         12.6628 
        2.07396          112.79         12.5728 
        2.08009         111.884         12.4839 
        2.08622         111.487         12.3959 
        2.09237         110.745         12.3086 
        2.09851         110.277         12.2222 
        2.10464         109.763         12.1367 
        2.11077         109.097         12.0521 
        2.11691         108.651         11.9682 
        2.12305         107.985          11.885 
        2.12918         107.372         11.8029 
        2.13531         106.859         11.7215 
        2.14145         106.139         11.6407 
         2.1476         105.591         11.5606 
        2.15372          105.02         11.4817 
        2.15985         104.454         11.4034 
        2.16599         103.729         11.3256 
        2.17213         103.364         11.2486 
        2.17827         102.605         11.1724 
         2.1844         102.441         11.0969 
        2.19054         101.652         11.0221 
        2.19666         101.076         10.9481 
         2.2028         100.697         10.8747 
        2.20893         100.173          10.802 
        2.21508         99.4699         10.7299 
        2.22122         99.0806         10.6583 
        2.22736         98.6403         10.5876 
        2.23349          97.968         10.5176 
        2.23962          97.431         10.4481 
        2.24577         97.0128         10.3793 
         2.2519         96.3504         10.3111 
        2.25802         95.9176         10.2437 
        2.26417         95.3787         10.1766 
        2.27031         94.7415         10.1102 
        2.27644         94.4152         10.0445 
        2.28257          93.881         9.97938 
        2.28872          93.493         9.91473 
        2.29486         93.2469         9.85068 
        2.30099         92.2958         9.78732 
        2.30712         92.0852         9.72449 
        2.31326         91.5766         9.66211 
         2.3194         90.9451         9.60032 
        2.32553         90.4445         9.53917 
        2.33166         89.9533         9.47858 
         2.3378         89.8115         9.41844 
        2.34394         89.1664          9.3588 
        2.35007         88.4199         9.29977 
        2.35619         88.1724         9.24131 
        2.36233         87.7877         9.18323 
        2.36848         87.2069         9.12552 
        2.37462         86.7889         9.06843 
        2.38075         86.3307         9.01189 
        2.38689         85.9939         8.95578 
        2.39303         85.5487         8.90017 
        2.39916         85.0758         8.84508 
        2.40529         84.6939         8.79047 
        2.41143         84.2782         8.73628 
        2.41757         83.7483         8.68253 
         2.4237         83.2192         8.62932 
        2.42983         82.8373         8.57657 
        2.43598         82.6044         8.52413 
        2.44211         82.0224         8.47221 
        2.44823         81.6494         8.42084 
        2.45437         81.2711         8.36976 
        2.46052         80.7762         8.31906 
        2.46665          80.267         8.26887 
        2.47279         79.9761         8.21911 
        2.47892         79.5037         8.16973 
        2.48507         79.1958         8.12071 
         2.4912         78.6461         8.07219 
