# k  (h/Mpc)    Pcb(k)  (Mpc/h)^3    Pcb_linear(k)  (Mpc/h)^3
     0.00783031         9133.39         9174.24 
       0.013688         11511.5         11766.2 
       0.019231         12238.3         12396.2 
      0.0249154         11971.5         11977.4 
      0.0312784         10790.8         10910.7 
      0.0375637         9552.07         9729.92 
      0.0433917         8684.89         8762.64 
      0.0492413         7850.72         7990.46 
      0.0555754         7268.01         7354.82 
      0.0619321         6579.79         6845.82 
       0.067871         6238.67          6408.1 
      0.0738098         5833.55         5956.19 
      0.0800417         5352.58         5451.76 
      0.0862327         4831.21         4939.99 
      0.0921407         4394.01         4476.76 
      0.0982031         4033.13         4059.92 
       0.104506         3640.77         3708.62 
       0.110769         3392.03         3441.26 
       0.116806         3252.39         3243.63 
       0.122832         3052.84         3080.81 
       0.129052         2901.57         2923.88 
       0.135211         2792.48         2762.05 
       0.141259         2593.21         2591.15 
       0.147318         2394.72         2412.72 
       0.153489         2255.94         2234.64 
       0.159709         2152.91         2071.09 
       0.165845         1970.45          1933.5 
       0.171974         1922.32         1821.72 
       0.178125         1854.11         1731.74 
       0.184229         1721.93         1657.33 
        0.19034         1690.31         1589.61 
       0.196428         1637.51         1522.29 
       0.202534            1535         1451.38 
       0.208729         1501.86         1375.92 
       0.214876         1438.25         1300.27 
       0.220989         1353.44         1228.09 
       0.227147            1321         1161.93 
        0.23329         1271.28         1104.38 
       0.239377         1255.03         1055.75 
       0.245482         1194.92         1013.82 
       0.251667          1150.7          975.88 
       0.257832         1137.09         940.097 
       0.263955         1081.03         904.707 
       0.270079         1049.43         868.642 
        0.27624         1005.38         831.937 
       0.282372         988.356         795.881 
        0.28843         977.682         761.897 
       0.294538         929.573         730.195 
       0.300721         906.001         701.231 
        0.30691         889.903         675.261 
       0.313033         853.934         652.005 
       0.319153         841.985         630.411 
       0.325316         829.284         609.584 
        0.33145           812.5         589.226 
       0.337538         784.295         569.187 
       0.343633         763.274         549.352 
       0.349808         746.321         529.792 
       0.355968         732.787         511.115 
       0.362074          710.24         493.719 
       0.368217         706.653         477.428 
       0.374374         694.907         462.273 
       0.380519         669.002         448.145 
       0.386598         662.759         434.894 
       0.392688         649.239         422.139 
        0.39888          632.17         409.523 
       0.405048         622.126         397.237 
       0.411186         619.431         385.319 
       0.417313         613.794         373.778 
       0.423458         594.957         362.657 
       0.429607         579.585         352.056 
       0.435692         571.941         342.098 
       0.441815         562.766         332.591 
       0.447964          552.39         323.516 
       0.454126         545.744         314.807 
       0.460267         537.222         306.439 
       0.466387         529.328         298.363 
        0.47254          520.91         290.477 
       0.478662         510.712         282.852 
       0.484765         505.866          275.49 
       0.490885         500.604         268.368 
       0.497035         491.213         261.485 
       0.503198         490.541          254.86 
       0.509342          479.16         248.522 
       0.515458         471.472         242.462 
       0.521598         464.975         236.598 
       0.527764         457.523         230.902 
       0.533884         455.642         225.423 
           0.54         449.421         220.114 
       0.546137          440.69         214.945 
       0.552299         439.843         209.912 
       0.558452          433.27         205.045 
       0.564573         428.462         200.359 
       0.570708         423.989         195.822 
       0.576825         416.121         191.451 
       0.582926          413.29         187.234 
       0.589034         407.656         183.143 
       0.595184         404.811         179.149 
       0.601379         398.093         175.245 
       0.607522         391.531         171.487 
       0.613639         389.726         167.853 
       0.619772         388.066         164.314 
       0.625918         381.843         160.868 
       0.632068         377.344          157.52 
       0.638161         373.936         154.299 
         0.6443         370.882         151.149 
       0.650464         365.848         148.079 
       0.656582         362.543         145.119 
       0.662703         359.927          142.24 
       0.668861         354.568         139.424 
       0.675024         352.384         136.682 
       0.681124         348.486         134.039 
       0.687237         345.684         131.461 
       0.693381         341.964         128.939 
       0.699536         338.775         126.479 
       0.705665         335.396         124.096 
       0.711789         333.632         121.777 
       0.717957         329.162         119.502 
        0.72409         326.005           117.3 
       0.730186         327.648         115.166 
       0.736317         321.621         113.075 
       0.742472         317.956         111.028 
       0.748622         314.517         109.034 
        0.75476         314.367         107.093 
       0.760888         310.782         105.203 
       0.767043         307.722         103.351 
       0.773185         306.168         101.548 
       0.779291         301.273         99.7983 
       0.785407         300.497          98.088 
       0.791564         297.304         96.4074 
       0.797719         292.906         94.7675 
       0.803834         295.194         93.1765 
       0.809972         291.216         91.6166 
       0.816124         287.677         90.0894 
       0.822261         284.869         88.6013 
       0.828378         284.767         87.1515 
       0.834502          280.37         85.7332 
       0.840667         280.186         84.3374 
       0.846816         275.743         82.9769 
       0.852925         275.157         81.6552 
       0.859047          272.32         80.3597 
       0.865192         271.993         79.0882 
       0.871341          268.13         77.8437 
       0.877463         265.827         76.6317 
       0.883569         265.153         75.4488 
       0.889708         262.801         74.2851 
       0.895864         260.762          73.143 
       0.902008         258.561         72.0276 
       0.908149         256.423         70.9362 
       0.914301         255.233         69.8659 
       0.920448         253.872         68.8188 
       0.926574         251.651          67.797 
       0.932687         250.079         66.7982 
       0.938823          247.99         65.8161 
       0.944975         246.607         64.8516 
       0.951105           244.3         63.9101 
       0.957225         242.532         62.9889 
       0.963368         241.764         62.0829 
       0.969511          237.93         61.1948 
       0.975621         237.042          60.329 
       0.981748         235.568         59.4778 
       0.987916         234.555         58.6378 
        0.99406         232.463         57.8172 
        1.00019         230.999          57.014 
        1.00632         230.237         56.2269 
        1.01246          228.41         55.4536 
        1.01859         226.002         54.6962 
        1.02471         224.295         53.9539 
        1.03085         223.426         53.2229 
        1.03698         221.708         52.5071 
        1.04314         221.396         51.8014 
        1.04929         219.748         51.1105 
        1.05541         217.929          50.435 
        1.06154         216.415         49.7701 
        1.06769         214.446         49.1162 
        1.07382         214.247         48.4763 
        1.07993         211.873         47.8493 
        1.08607          210.26         47.2308 
        1.09222         209.364         46.6227 
        1.09836         208.285         46.0261 
        1.10449         206.328         45.4407 
        1.11063         205.077         44.8649 
        1.11677         204.218         44.2993 
         1.1229         202.532         43.7445 
        1.12903         201.834         43.1987 
        1.13518         200.268         42.6619 
        1.14131         199.225         42.1345 
        1.14745         197.321         41.6164 
        1.15359          195.54          41.107 
        1.15973         195.227         40.6059 
        1.16584         194.401         40.1154 
        1.17197         192.976         39.6324 
        1.17811         191.178         39.1559 
        1.18424           190.2         38.6887 
        1.19038         188.958         38.2278 
        1.19652         187.449         37.7745 
        1.20267         186.626         37.3287 
        1.20881         185.223         36.8902 
        1.21495         184.875         36.4594 
        1.22108         183.347         36.0357 
         1.2272         181.877         35.6196 
        1.23334         181.178         35.2092 
        1.23949         180.592         34.8043 
        1.24562           179.1          34.407 
        1.25174         177.741         34.0164 
        1.25789         176.616         33.6308 
        1.26402         176.305         33.2518 
        1.27014         175.144         32.8796 
        1.27628         173.007          32.512 
        1.28244         172.641         32.1494 
        1.28858         171.493         31.7928 
        1.29471         170.563         31.4424 
        1.30084         169.427         31.0977 
        1.30697          168.45         30.7576 
        1.31312         167.339         30.4221 
        1.31925         166.078         30.0927 
        1.32537         165.679         29.7685 
        1.33151          164.58         29.4479 
        1.33765         162.989         29.1323 
        1.34378         162.918         28.8219 
        1.34992         161.958         28.5159 
        1.35606         160.756         28.2136 
         1.3622         160.272         27.9163 
        1.36833          158.41          27.624 
        1.37445         158.281          27.336 
        1.38059         156.993         27.0513 
        1.38675         156.159           26.77 
        1.39288         155.057         26.4938 
        1.39901         154.179         26.2216 
        1.40515         153.468         25.9527 
         1.4113         152.628         25.6876 
        1.41742         151.346         25.4273 
        1.42355         151.236         25.1701 
         1.4297         149.814         24.9157 
        1.43585         148.922         24.6649 
        1.44198          147.63         24.4186 
        1.44809         146.783         24.1761 
        1.45423         146.547          23.936 
        1.46036         145.419         23.6996 
        1.46649          144.45         23.4663 
        1.47263         144.048          23.236 
        1.47877         142.757         23.0088 
        1.48491          141.97         22.7844 
        1.49104         140.421         22.5634 
        1.49718         140.529         22.3453 
        1.50333         139.778         22.1296 
        1.50947         138.839         21.9173 
         1.5156          137.91          21.708 
        1.52172         137.171         21.5015 
        1.52787         136.436         21.2972 
          1.534         135.779         21.0959 
        1.54013         135.004         20.8974 
        1.54627         134.004         20.7011 
        1.55241         133.414         20.5072 
        1.55855         132.673         20.3162 
        1.56467         131.654         20.1281 
         1.5708         130.903         19.9418 
        1.57695         130.419         19.7577 
        1.58308         129.542         19.5763 
        1.58922         129.324          19.397 
        1.59535         128.559         19.2201 
         1.6015         127.169         19.0451 
        1.60764         126.474         18.8724 
        1.61376         125.915         18.7023 
        1.61989         125.321         18.5342 
        1.62604         124.489         18.3678 
        1.63218         124.016         18.2035 
        1.63831         123.047         18.0416 
        1.64444         122.314         17.8817 
        1.65059         121.515         17.7233 
        1.65673         121.183          17.567 
        1.66285         120.647          17.413 
        1.66898         119.529         17.2608 
        1.67512         119.151         17.1102 
        1.68127         118.358         16.9612 
         1.6874         117.532         16.8143 
        1.69353         116.847         16.6692 
        1.69967         116.405         16.5256 
        1.70581         115.943         16.3836 
        1.71193         115.048         16.2439 
        1.71806         114.331         16.1056 
        1.72421         113.757         15.9685 
        1.73035         113.281         15.8332 
        1.73649         112.439         15.6995 
        1.74262         111.971         15.5675 
        1.74876         111.113         15.4369 
        1.75489         110.726         15.3081 
        1.76101         110.018         15.1807 
        1.76715         109.198         15.0547 
        1.77329         108.845         14.9299 
        1.77943         107.953         14.8065 
        1.78557         107.608         14.6847 
        1.79171          107.13         14.5642 
        1.79785         106.177          14.445 
        1.80399         105.905         14.3272 
        1.81012         105.059         14.2109 
        1.81625         104.652         14.0959 
        1.82239         104.169          13.982 
        1.82853         103.566         13.8695 
        1.83466         102.708         13.7583 
        1.84078         102.289         13.6484 
        1.84692          102.02         13.5396 
        1.85306         101.279         13.4318 
         1.8592           100.9         13.3253 
        1.86533         100.193         13.2201 
        1.87147         99.6256         13.1159 
        1.87761          98.986         13.0127 
        1.88375         98.3738         12.9108 
        1.88988         97.6506         12.8101 
        1.89601         97.5141         12.7104 
        1.90215         96.8394         12.6117 
        1.90829         96.1686         12.5141 
        1.91442          95.832         12.4175 
        1.92056         95.3318         12.3221 
         1.9267         94.7083         12.2275 
        1.93284         94.2596         12.1339 
        1.93897         93.8838         12.0414 
        1.94509         93.0956         11.9501 
        1.95123         92.7014         11.8595 
        1.95737         92.2661         11.7698 
        1.96349         91.7452         11.6813 
        1.96964         91.3396         11.5934 
        1.97578         90.6646         11.5063 
        1.98192         90.1283         11.4204 
        1.98805         89.7131         11.3353 
        1.99419          89.215         11.2511 
        2.00033         88.5604         11.1676 
        2.00647         88.3494         11.0851 
         2.0126         87.8684         11.0035 
        2.01874         87.5358         10.9227 
        2.02488          86.854         10.8425 
        2.03101         86.5316         10.7633 
        2.03714         86.0429          10.685 
        2.04328         85.5399         10.6074 
        2.04941         84.9701         10.5306 
        2.05554         84.6716         10.4546 
        2.06167         83.9738         10.3793 
        2.06781         83.5281         10.3047 
        2.07396         83.2966         10.2308 
        2.08009         82.7617         10.1576 
        2.08622         82.3885         10.0853 
        2.09237         81.9942         10.0136 
        2.09851         81.3143         9.94252 
        2.10464         81.1117         9.87226 
        2.11077         80.6324         9.80277 
        2.11691          80.335         9.73379 
        2.12305         79.8141         9.66547 
        2.12918          79.344         9.59798 
        2.13531         78.9852         9.53112 
        2.14145         78.3126         9.46475 
         2.1476          78.083         9.39893 
        2.15372         77.7012         9.33407 
        2.15985         77.1896         9.26975 
        2.16599         76.8162         9.20586 
        2.17213         76.4885         9.14264 
        2.17827         75.8677         9.08002 
         2.1844         75.5389         9.01805 
        2.19054         75.3188         8.95663 
        2.19666         74.7528         8.89588 
         2.2028         74.3944         8.83563 
        2.20893         73.9629         8.77592 
        2.21508         73.5482         8.71668 
        2.22122         73.1207         8.65798 
        2.22736          72.818         8.59994 
        2.23349         72.4452         8.54244 
        2.23962         72.1789         8.48544 
        2.24577         71.6323         8.42891 
         2.2519         71.2949         8.37298 
        2.25802         70.8978         8.31764 
        2.26417         70.4445         8.26265 
        2.27031          70.099          8.2081 
        2.27644         69.8349         8.15421 
        2.28257         69.4872          8.1008 
        2.28872         69.1408         8.04777 
        2.29486         68.8141         7.99523 
        2.30099         68.2521         7.94326 
        2.30712          68.127         7.89174 
        2.31326         67.7389         7.84058 
         2.3194          67.249         7.78991 
        2.32553         67.0237         7.73976 
        2.33166         66.5192         7.69008 
         2.3378         66.2938         7.64077 
        2.34394         66.0067         7.59188 
        2.35007         65.6378         7.54348 
        2.35619          65.255         7.49556 
        2.36233         64.9474         7.44795 
        2.36848          64.566         7.40065 
        2.37462         64.1763         7.35386 
        2.38075         63.9179         7.30752 
        2.38689         63.6172         7.26155 
        2.39303         63.2314         7.21597 
        2.39916         63.0074         7.17084 
        2.40529         62.6002         7.12609 
        2.41143         62.3183         7.08169 
        2.41757         61.9162         7.03766 
         2.4237         61.7649         6.99407 
        2.42983          61.279         6.95086 
        2.43598         61.0623         6.90791 
        2.44211         60.6225         6.86538 
        2.44823         60.3971         6.82331 
        2.45437         60.0892         6.78148 
        2.46052         59.7396         6.73996 
        2.46665         59.3624         6.69886 
        2.47279         59.1431         6.65812 
        2.47892          58.876         6.61769 
        2.48507         58.4654         6.57756 
         2.4912         58.2662         6.53784 
