# k  (h/Mpc)    P(k)  (Mpc/h)^3    P_linear(k)  (Mpc/h)^3
     0.00783031         10193.5         10271.9 
       0.013688         12693.2         13005.5 
       0.019231         13221.8         13410.9 
      0.0249154         12564.5         12563.4 
      0.0312784         10863.3         10967.5 
      0.0375637         9208.47         9355.92 
      0.0433917          8085.6         8127.45 
      0.0492413         7137.46         7227.39 
      0.0555754         6541.86         6573.72 
      0.0619321         5925.27          6125.8 
       0.067871         5658.36         5771.93 
      0.0738098         5317.29          5392.8 
      0.0800417         4873.09         4928.48 
      0.0862327         4350.66          4415.6 
      0.0921407         3894.64         3925.57 
      0.0982031         3504.16         3474.71 
       0.104506         3097.43         3099.86 
       0.110769         2852.81         2832.66 
       0.116806         2726.83         2660.27 
       0.122832         2573.98         2543.01 
       0.129052         2466.48         2444.43 
       0.135211          2397.3          2338.9 
       0.141259         2235.08         2210.85 
       0.147318         2064.59         2057.36 
       0.153489         1927.54         1887.21 
       0.159709         1818.73         1720.29 
       0.165845         1646.91         1576.53 
       0.171974         1593.37         1462.96 
       0.178125         1527.32         1379.96 
       0.184229         1419.74         1322.19 
        0.19034          1398.9         1278.74 
       0.196428         1360.97         1238.88 
       0.202534         1278.65         1193.71 
       0.208729          1254.8         1138.28 
       0.214876         1198.79         1074.56 
       0.220989         1123.29          1007.2 
       0.227147         1090.33         941.486 
        0.23329         1043.45         883.404 
       0.239377         1027.08         836.177 
       0.245482         974.858         799.301 
       0.251667         939.208         770.517 
       0.257832         928.648         746.899 
       0.263955         883.216          724.69 
       0.270079         856.255          700.83 
        0.27624         821.098         673.818 
       0.282372         805.674         644.143 
        0.28843         796.605         613.634 
       0.294538         755.485         583.636 
       0.300721         734.763         555.933 
        0.30691          720.89         531.958 
       0.313033         689.762         512.125 
       0.319153         680.074         495.517 
       0.325316         669.465         480.862 
        0.33145         655.039         467.058 
       0.337538         632.094         453.131 
       0.343633         615.026         438.392 
       0.349808         600.501         422.704 
       0.355968         589.424         406.686 
       0.362074         569.962         391.156 
       0.368217         567.161         376.471 
       0.374374         556.847          363.14 
       0.380519         535.123         351.337 
       0.386598         529.917         340.941 
       0.392688         518.008         331.487 
        0.39888         504.647         322.381 
       0.405048         495.752         313.443 
       0.411186         494.028         304.482 
       0.417313         488.372         295.367 
       0.423458         473.982         286.208 
       0.429607         461.422         277.224 
       0.435692         454.899           268.7 
       0.441815         447.152         260.658 
       0.447964         438.346         253.211 
       0.454126         433.208         246.305 
       0.460267         426.324         239.885 
       0.466387         419.158         233.817 
        0.47254         413.188         227.895 
       0.478662         404.331         222.068 
       0.484765          400.03         216.314 
       0.490885         395.734         210.615 
       0.497035         388.229         204.992 
       0.503198         387.623         199.533 
       0.509342         378.258         194.335 
       0.515458         372.336         189.441 
       0.521598         366.676         184.783 
       0.527764         361.266         180.334 
       0.533884         359.648         176.113 
           0.54         354.426         172.042 
       0.546137         347.091         168.062 
       0.552299         346.267         164.134 
       0.558452         340.641         160.284 
       0.564573         337.714         156.546 
       0.570708          332.82         152.909 
       0.576825         327.047         149.407 
       0.582926          324.78         146.039 
       0.589034         320.014         142.793 
       0.595184         317.969         139.655 
       0.601379         312.875         136.615 
       0.607522         306.986         133.702 
       0.613639          305.72         130.883 
       0.619772         304.305         128.123 
       0.625918         299.614         125.417 
       0.632068         295.651         122.775 
       0.638161         293.622         120.227 
         0.6443         290.721         117.736 
       0.650464         286.453         115.315 
       0.656582         284.004         112.987 
       0.662703         282.214         110.727 
       0.668861         277.266         108.521 
       0.675024          276.19         106.376 
       0.681124         272.941         104.311 
       0.687237         270.715         102.298 
       0.693381         267.406         100.328 
       0.699536         265.311         98.4055 
       0.705665         262.762         96.5405 
       0.711789         260.611         94.7239 
       0.717957         257.687         92.9404 
        0.72409         254.799         91.2124 
       0.730186          256.33          89.539 
       0.736317         251.775         87.8996 
       0.742472         248.978         86.2969 
       0.748622         245.989         84.7376 
        0.75476         246.368         83.2218 
       0.760888         243.255         81.7464 
       0.767043         240.305         80.3018 
       0.773185         238.974         78.8955 
       0.779291         235.601         77.5308 
       0.785407         234.883         76.1962 
       0.791564         232.602         74.8843 
       0.797719         229.038         73.6038 
       0.803834         230.665         72.3614 
       0.809972         227.884         71.1432 
       0.816124         224.624         69.9507 
       0.822261           222.9          68.789 
       0.828378         222.776         67.6575 
       0.834502         219.534         66.5509 
       0.840667         219.552         65.4623 
       0.846816         215.869         64.4014 
       0.852925         215.279          63.371 
       0.859047         213.234         62.3613 
       0.865192         212.947         61.3706 
       0.871341         210.149         60.4009 
       0.877463         208.383         59.4568 
       0.883569         208.141         58.5355 
       0.889708         206.166         57.6291 
       0.895864         204.446         56.7398 
       0.902008          202.61         55.8714 
       0.908149         200.915         55.0217 
       0.914301         199.982         54.1886 
       0.920448         199.418         53.3736 
       0.926574         197.118         52.5783 
       0.932687         196.474         51.8011 
       0.938823         194.957         51.0369 
       0.944975         193.831         50.2865 
       0.951105         191.919         49.5541 
       0.957225         190.891         48.8375 
       0.963368         189.933         48.1329 
       0.969511         187.431         47.4422 
       0.975621         186.222         46.7689 
       0.981748         185.326          46.107 
       0.987916         184.507         45.4539 
        0.99406         183.143          44.816 
        1.00019         182.055         44.1916 
        1.00632          181.08         43.5798 
        1.01246         179.813         42.9788 
        1.01859         178.371         42.3902 
        1.02471         177.064         41.8134 
        1.03085         176.074         41.2454 
        1.03698         174.881         40.6892 
        1.04314         174.546         40.1411 
        1.04929         173.589         39.6043 
        1.05541         172.384         39.0797 
        1.06154         170.867         38.5633 
        1.06769         169.889         38.0555 
        1.07382         169.264         37.5586 
        1.07993         167.729         37.0717 
        1.08607         166.825         36.5915 
        1.09222         165.738         36.1195 
        1.09836         164.965         35.6563 
        1.10449         163.553         35.2019 
        1.11063         162.715          34.755 
        1.11677         161.981          34.316 
         1.1229         160.701         33.8854 
        1.12903         159.951         33.4619 
        1.13518         158.871         33.0454 
        1.14131         158.126         32.6362 
        1.14745         157.028         32.2342 
        1.15359         155.577          31.839 
        1.15973         155.265         31.4503 
        1.16584         154.422         31.0698 
        1.17197         153.573         30.6952 
        1.17811         152.194         30.3256 
        1.18424         151.699         29.9632 
        1.19038         150.776         29.6057 
        1.19652         149.777         29.2543 
        1.20267         148.906         28.9085 
        1.20881         147.879         28.5685 
        1.21495         147.551         28.2345 
        1.22108         146.488         27.9059 
         1.2272         145.445         27.5834 
        1.23334         145.041         27.2652 
        1.23949         144.442         26.9514 
        1.24562         143.384         26.6433 
        1.25174         142.556         26.3406 
        1.25789         141.577         26.0417 
        1.26402         141.345          25.748 
        1.27014         140.444         25.4595 
        1.27628         138.994         25.1747 
        1.28244         138.777         24.8936 
        1.28858         137.749         24.6173 
        1.29471         136.986         24.3458 
        1.30084         136.158         24.0787 
        1.30697         135.484         23.8152 
        1.31312         134.677         23.5552 
        1.31925         133.716            23.3 
        1.32537         133.365         23.0489 
        1.33151         132.862         22.8005 
        1.33765         131.602          22.556 
        1.34378         131.499         22.3156 
        1.34992         130.868         22.0785 
        1.35606         129.966         21.8444 
         1.3622         129.652         21.6141 
        1.36833         128.215         21.3877 
        1.37445          128.13         21.1647 
        1.38059         127.343         20.9442 
        1.38675         126.548         20.7263 
        1.39288          125.72         20.5125 
        1.39901         125.074         20.3017 
        1.40515         124.668         20.0935 
         1.4113         123.928         19.8882 
        1.41742         123.152         19.6866 
        1.42355         122.929         19.4875 
         1.4297         121.908         19.2905 
        1.43585         121.324         19.0964 
        1.44198         120.361         18.9056 
        1.44809         119.726         18.7179 
        1.45423         119.578          18.532 
        1.46036         118.519          18.349 
        1.46649         117.913         18.1684 
        1.47263          117.54         17.9901 
        1.47877         116.658         17.8143 
        1.48491         116.317         17.6405 
        1.49104         115.046         17.4695 
        1.49718         114.969         17.3006 
        1.50333          114.55         17.1337 
        1.50947         113.881         16.9693 
         1.5156         113.357         16.8074 
        1.52172         112.587         16.6475 
        1.52787         112.105         16.4895 
          1.534          111.53         16.3336 
        1.54013         111.011           16.18 
        1.54627          110.18         16.0281 
        1.55241         109.946         15.8781 
        1.55855         109.193         15.7302 
        1.56467         108.436         15.5846 
         1.5708         107.815         15.4405 
        1.57695         107.603          15.298 
        1.58308         106.915         15.1576 
        1.58922          106.88         15.0189 
        1.59535         106.391          14.882 
         1.6015         105.399         14.7466 
        1.60764         104.786          14.613 
        1.61376         104.371         14.4814 
        1.61989          103.91         14.3513 
        1.62604         103.293         14.2226 
        1.63218         102.948         14.0955 
        1.63831         102.322         13.9702 
        1.64444         101.667         13.8465 
        1.65059         101.145         13.7239 
        1.65673         100.906          13.603 
        1.66285         100.289         13.4839 
        1.66898         99.6187         13.3661 
        1.67512         99.2097         13.2496 
        1.68127         98.8108         13.1343 
         1.6874         98.0788         13.0207 
        1.69353         97.5716         12.9085 
        1.69967         97.2463         12.7974 
        1.70581         96.9285         12.6876 
        1.71193         96.3171         12.5795 
        1.71806         95.8159         12.4725 
        1.72421         95.2667         12.3664 
        1.73035         94.9777         12.2618 
        1.73649         94.3151         12.1584 
        1.74262         93.9014         12.0562 
        1.74876         93.3441         11.9552 
        1.75489         92.9716         11.8556 
        1.76101         92.4323         11.7571 
        1.76715         91.9686         11.6596 
        1.77329         91.5709         11.5631 
        1.77943         91.1729         11.4676 
        1.78557         90.7914         11.3734 
        1.79171         90.3036         11.2802 
        1.79785         89.6281          11.188 
        1.80399         89.5287         11.0969 
        1.81012         88.8455         11.0069 
        1.81625         88.4189          10.918 
        1.82239         88.1037         10.8299 
        1.82853           87.51         10.7429 
        1.83466         87.0041         10.6569 
        1.84078         86.8074         10.5719 
        1.84692         86.5758         10.4877 
        1.85306         86.0502         10.4043 
         1.8592         85.6306          10.322 
        1.86533         85.1666         10.2406 
        1.87147         84.7156           10.16 
        1.87761         84.0783         10.0802 
        1.88375         83.8362         10.0014 
        1.88988         83.1731         9.92355 
        1.89601         83.1499         9.84645 
        1.90215         82.4728         9.77012 
        1.90829         82.0912         9.69463 
        1.91442         81.7988         9.61994 
        1.92056         81.5506          9.5461 
         1.9267         80.9572         9.47297 
        1.93284         80.7062         9.40056 
        1.93897          80.296         9.32905 
        1.94509         79.8411         9.25844 
        1.95123         79.5088         9.18838 
        1.95737         79.1345           9.119 
        1.96349         78.8041         9.05052 
        1.96964           78.42         8.98254 
        1.97578         77.9066         8.91524 
        1.98192         77.4756         8.84876 
        1.98805         76.9936         8.78296 
        1.99419         76.8775         8.71782 
        2.00033         76.2578         8.65331 
        2.00647         76.0413         8.58948 
         2.0126          75.659          8.5264 
        2.01874         75.5251         8.46386 
        2.02488         75.1108         8.40189 
        2.03101          74.613         8.34065 
        2.03714         74.3936         8.28009 
        2.04328         74.0036         8.22006 
        2.04941         73.4731         8.16068 
        2.05554         73.2769         8.10193 
        2.06167         72.8508         8.04367 
        2.06781         72.4499         7.98599 
        2.07396         72.2248         7.92879 
        2.08009         71.7894         7.87224 
        2.08622         71.5369         7.81632 
        2.09237         71.1875         7.76083 
        2.09851         70.5896         7.70588 
        2.10464         70.4956         7.65154 
        2.11077         70.2519          7.5978 
        2.11691         69.8763         7.54446 
        2.12305         69.3918         7.49162 
        2.12918          69.111         7.43943 
        2.13531         68.8256         7.38772 
        2.14145         68.3808         7.33639 
         2.1476         68.2618         7.28549 
        2.15372         67.8244         7.23533 
        2.15985         67.4435         7.18559 
        2.16599         67.1465         7.13618 
        2.17213         66.7922         7.08729 
        2.17827         66.4332         7.03886 
         2.1844         66.1677         6.99094 
        2.19054         65.9591         6.94344 
        2.19666         65.6865         6.89645 
         2.2028         65.1813         6.84986 
        2.20893         64.9133         6.80368 
        2.21508         64.5229         6.75787 
        2.22122         64.2427         6.71247 
        2.22736         63.9795         6.66758 
        2.23349         63.6998         6.62311 
        2.23962         63.5041         6.57903 
        2.24577         63.0426         6.53531 
         2.2519          62.775         6.49205 
        2.25802         62.4947         6.44925 
        2.26417          62.144         6.40672 
        2.27031         61.8967         6.36454 
        2.27644         61.7192         6.32285 
        2.28257         61.3071         6.28155 
        2.28872         61.0968         6.24054 
        2.29486          60.864          6.1999 
        2.30099         60.3753         6.15971 
        2.30712         60.2773         6.11985 
        2.31326         60.0179         6.08029 
         2.3194         59.6423         6.04109 
        2.32553         59.4067         6.00231 
        2.33166         59.0732         5.96389 
         2.3378         58.7839         5.92575 
        2.34394         58.5226         5.88793 
        2.35007          58.274          5.8505 
        2.35619          57.978         5.81344 
        2.36233         57.7375         5.77661 
        2.36848         57.4507         5.74002 
        2.37462         57.1123         5.70383 
        2.38075         56.9268         5.66799 
        2.38689         56.6041         5.63243 
        2.39303          56.391         5.59718 
        2.39916         56.1311         5.56227 
        2.40529         55.9077         5.52766 
        2.41143         55.6349         5.49332 
        2.41757          55.347         5.45925 
         2.4237         55.2301         5.42554 
        2.42983         54.8581         5.39212 
        2.43598          54.683         5.35889 
        2.44211         54.2647           5.326 
        2.44823         54.1279         5.29345 
        2.45437         53.8384         5.26109 
        2.46052         53.5014         5.22898 
        2.46665         53.2821         5.19719 
        2.47279         53.0706         5.16567 
        2.47892         52.8771          5.1344 
        2.48507          52.648         5.10336 
         2.4912         52.3388         5.07263 
