# k  (h/Mpc)    Pcb(k)  (Mpc/h)^3    Pcb_linear(k)  (Mpc/h)^3
     0.00783031         7275.54          7314.1 
       0.013688         9095.89         9275.82 
       0.019231         9469.48         9571.54 
      0.0249154         8981.29         8970.23 
      0.0312784         7783.01         7832.92 
      0.0375637         6605.46         6683.07 
      0.0433917         5793.13          5806.2 
      0.0492413         5118.42         5163.63 
      0.0555754         4690.36         4696.93 
      0.0619321         4264.27         4377.11 
       0.067871         4067.94         4124.42 
      0.0738098         3816.97         3853.62 
      0.0800417         3499.41         3521.92 
      0.0862327         3123.73         3155.48 
      0.0921407          2790.3         2805.34 
      0.0982031         2503.25         2483.18 
       0.104506         2212.17         2215.33 
       0.110769         2034.01          2024.4 
       0.116806         1941.33         1901.21 
       0.122832         1832.75         1817.42 
       0.129052         1761.48         1746.98 
       0.135211         1706.58         1671.58 
       0.141259         1594.61         1580.07 
       0.147318          1471.4         1470.38 
       0.153489         1369.75         1348.78 
       0.159709         1283.19         1229.48 
       0.165845         1160.29         1126.75 
       0.171974         1118.56         1045.58 
       0.178125          1066.8         986.264 
       0.184229         997.095         944.977 
        0.19034         979.677         913.927 
       0.196428         951.783         885.443 
       0.202534         894.482          853.16 
       0.208729         876.019         813.543 
       0.214876         837.211         768.001 
       0.220989         779.099         719.859 
       0.227147         755.016         672.896 
        0.23329          721.12         631.387 
       0.239377         703.826         597.632 
       0.245482         667.342         571.276 
       0.251667         641.991         550.704 
       0.257832         635.846         533.823 
       0.263955          603.38         517.951 
       0.270079          583.67         500.899 
        0.27624         559.513          481.59 
       0.282372         545.988         460.384 
        0.28843          540.26          438.58 
       0.294538          511.85          417.14 
       0.300721         494.033         397.338 
        0.30691         485.351         380.204 
       0.313033         463.982          366.03 
       0.319153         456.398         354.159 
       0.325316         446.615         343.684 
        0.33145         436.192          333.82 
       0.337538         421.179         323.865 
       0.343633          408.63         313.331 
       0.349808          397.77         302.118 
       0.355968         389.531          290.67 
       0.362074         378.139         279.571 
       0.368217         373.887         269.075 
       0.374374         365.503         259.547 
       0.380519         350.746         251.111 
       0.386598         345.968         243.682 
       0.392688         337.757         236.924 
        0.39888          329.61         230.415 
       0.405048         323.567         224.028 
       0.411186         321.072         217.621 
       0.417313         315.265         211.109 
       0.423458         306.646         204.562 
       0.429607         299.282         198.141 
       0.435692         294.102         192.048 
       0.441815         288.609         186.302 
       0.447964         281.307         180.977 
       0.454126         277.274         176.042 
       0.460267         273.691         171.453 
       0.466387         268.372         167.117 
        0.47254          265.07         162.883 
       0.478662         257.601          158.72 
       0.484765          254.63         154.607 
       0.490885         251.123         150.534 
       0.497035         247.711         146.514 
       0.503198         245.211         142.613 
       0.509342         238.697         138.898 
       0.515458         235.874           135.4 
       0.521598         230.726         132.071 
       0.527764         228.171         128.891 
       0.533884         227.496         125.874 
           0.54         222.441         122.965 
       0.546137         217.583          120.12 
       0.552299         216.044         117.312 
       0.558452         212.341         114.561 
       0.564573         211.028         111.889 
       0.570708         206.377          109.29 
       0.576825         203.577         106.786 
       0.582926         201.479         104.379 
       0.589034         198.684          102.06 
       0.595184         197.188         99.8159 
       0.601379         193.238         97.6434 
       0.607522         189.819         95.5613 
       0.613639         188.512         93.5464 
       0.619772          186.61         91.5738 
       0.625918          185.06         89.6397 
       0.632068         181.027         87.7513 
       0.638161         179.404         85.9308 
         0.6443         178.374         84.1505 
       0.650464         175.075         82.4198 
       0.656582         174.091         80.7555 
       0.662703         172.416         79.1407 
       0.668861         169.074         77.5638 
       0.675024         169.046         76.0304 
       0.681124         166.484         74.5548 
       0.687237         164.338         73.1158 
       0.693381          162.97         71.7079 
       0.699536         161.086          70.334 
       0.705665         159.286          69.001 
       0.711789         157.485         67.7026 
       0.717957         155.751         66.4279 
        0.72409         154.505         65.1928 
       0.730186         154.302         63.9968 
       0.736317         151.709         62.8251 
       0.742472         149.737         61.6796 
       0.748622         147.549         60.5651 
        0.75476          148.01         59.4816 
       0.760888         146.456         58.4272 
       0.767043         144.007         57.3946 
       0.773185         142.589         56.3895 
       0.779291         140.958         55.4141 
       0.785407         139.934         54.4602 
       0.791564         139.061         53.5225 
       0.797719         137.252         52.6073 
       0.803834         137.019         51.7193 
       0.809972         136.035         50.8487 
       0.816124         134.116         49.9963 
       0.822261         132.846          49.166 
       0.828378         132.677         48.3573 
       0.834502         130.629         47.5664 
       0.840667         130.142         46.7883 
       0.846816         128.928           46.03 
       0.852925         127.553         45.2936 
       0.859047         126.688         44.5719 
       0.865192         125.705         43.8638 
       0.871341         124.349         43.1708 
       0.877463         123.475          42.496 
       0.883569         123.343         41.8375 
       0.889708         122.236         41.1897 
       0.895864         121.114         40.5541 
       0.902008         120.017         39.9333 
       0.908149         118.527         39.3261 
       0.914301         118.577         38.7306 
       0.920448         118.022         38.1481 
       0.926574           115.9         37.5797 
       0.932687         115.828         37.0242 
       0.938823         114.947          36.478 
       0.944975         113.726         35.9417 
       0.951105         112.822         35.4181 
       0.957225         112.679          34.906 
       0.963368          111.41         34.4024 
       0.969511         110.649         33.9087 
       0.975621         109.669         33.4275 
       0.981748         108.857         32.9544 
       0.987916         108.218         32.4876 
        0.99406         107.807         32.0316 
        1.00019           106.6         31.5854 
        1.00632         105.965         31.1481 
        1.01246         105.342         30.7186 
        1.01859         104.861         30.2978 
        1.02471         104.029         29.8856 
        1.03085          103.08         29.4796 
        1.03698         102.484         29.0821 
        1.04314         101.806         28.6903 
        1.04929         101.448         28.3067 
        1.05541         100.728         27.9317 
        1.06154         100.098         27.5626 
        1.06769         99.2846         27.1997 
        1.07382         98.4856         26.8445 
        1.07993         98.1746         26.4965 
        1.08607         97.3705         26.1533 
        1.09222         97.0718         25.8159 
        1.09836         96.0892         25.4849 
        1.10449          95.622         25.1601 
        1.11063          95.039         24.8407 
        1.11677         94.4202         24.5269 
         1.1229         93.7296         24.2192 
        1.12903         93.4165         23.9165 
        1.13518          92.957         23.6188 
        1.14131         92.2493         23.3263 
        1.14745         91.7127          23.039 
        1.15359         90.6656         22.7565 
        1.15973         90.5771         22.4787 
        1.16584         89.9772         22.2068 
        1.17197         89.4164          21.939 
        1.17811           88.81         21.6748 
        1.18424         88.1167         21.4158 
        1.19038         88.0735         21.1603 
        1.19652         87.4461         20.9091 
        1.20267         86.8472          20.662 
        1.20881         86.3535          20.419 
        1.21495         85.8918         20.1803 
        1.22108         85.5687         19.9454 
         1.2272         84.7217         19.7149 
        1.23334         84.5509         19.4875 
        1.23949         83.9923         19.2632 
        1.24562         83.3372          19.043 
        1.25174         82.9189         18.8266 
        1.25789         82.8332          18.613 
        1.26402         82.1642         18.4031 
        1.27014         81.8184         18.1969 
        1.27628         81.0828         17.9933 
        1.28244         80.9659         17.7924 
        1.28858         80.3886         17.5949 
        1.29471         79.9387         17.4009 
        1.30084         79.2839         17.2099 
        1.30697         79.3331         17.0216 
        1.31312         78.6763         16.8358 
        1.31925         78.1997         16.6534 
        1.32537         77.8147         16.4739 
        1.33151         77.5824         16.2964 
        1.33765         77.0398         16.1216 
        1.34378         76.7077         15.9498 
        1.34992         76.3686         15.7804 
        1.35606         75.8538          15.613 
         1.3622         75.5896         15.4484 
        1.36833         75.0107         15.2866 
        1.37445         74.4445         15.1272 
        1.38059         74.3237         14.9696 
        1.38675         73.5897         14.8139 
        1.39288         73.6089          14.661 
        1.39901         72.9246         14.5104 
        1.40515         72.6975         14.3616 
         1.4113         72.4545         14.2149 
        1.41742         71.9851         14.0708 
        1.42355         71.6799         13.9285 
         1.4297         71.2468         13.7877 
        1.43585         70.8239         13.6489 
        1.44198         70.4818         13.5126 
        1.44809         70.0507         13.3784 
        1.45423         69.7966         13.2455 
        1.46036         69.3239         13.1147 
        1.46649         69.1203         12.9856 
        1.47263          68.764         12.8582 
        1.47877         68.5204         12.7325 
        1.48491         68.1117         12.6084 
        1.49104         67.6012         12.4861 
        1.49718         67.3814         12.3654 
        1.50333          67.045         12.2461 
        1.50947         66.8053         12.1286 
         1.5156         66.5363         12.0129 
        1.52172         66.0368         11.8986 
        1.52787         65.6513         11.7856 
          1.534          65.418         11.6743 
        1.54013         65.2502         11.5645 
        1.54627         64.6516         11.4559 
        1.55241         64.3799         11.3487 
        1.55855          64.188          11.243 
        1.56467         63.6229         11.1389 
         1.5708         63.5635         11.0359 
        1.57695         63.1821         10.9341 
        1.58308         62.8482         10.8337 
        1.58922          62.598         10.7346 
        1.59535         62.4363         10.6368 
         1.6015         62.3059           10.54 
        1.60764         61.8725         10.4445 
        1.61376         61.5004         10.3504 
        1.61989         61.0528         10.2575 
        1.62604         60.8789         10.1654 
        1.63218         60.5818         10.0746 
        1.63831         60.4202         9.98507 
        1.64444         60.1429         9.89661 
        1.65059         59.7928         9.80902 
        1.65673          59.408         9.72259 
        1.66285         59.2333         9.63744 
        1.66898         58.7583          9.5533 
        1.67512         58.6626         9.46999 
        1.68127         58.4031         9.38761 
         1.6874         58.0471          9.3064 
        1.69353         57.8589          9.2262 
        1.69967         57.6225         9.14676 
        1.70581         57.2594         9.06829 
        1.71193         57.0401         8.99105 
        1.71806         56.7296         8.91454 
        1.72421         56.5696         8.83877 
        1.73035         56.2811         8.76397 
        1.73649         55.9174         8.69006 
        1.74262         55.5368         8.61706 
        1.74876         55.5271         8.54485 
        1.75489         55.1306         8.47363 
        1.76101         54.9097         8.40323 
        1.76715         54.8652         8.33354 
        1.77329         54.3011         8.26456 
        1.77943         54.3002         8.19634 
        1.78557         54.0474         8.12898 
        1.79171         53.7466         8.06237 
        1.79785         53.5012          7.9965 
        1.80399          53.226         7.93138 
        1.81012         53.0292         7.86708 
        1.81625          52.712         7.80352 
        1.82239         52.4948         7.74057 
        1.82853          52.288         7.67834 
        1.83466         52.0508         7.61687 
        1.84078         51.8144         7.55613 
        1.84692         51.5674         7.49596 
        1.85306         51.3067         7.43637 
         1.8592           51.16         7.37753 
        1.86533         50.8738         7.31936 
        1.87147         50.6456         7.26175 
        1.87761          50.384         7.20474 
        1.88375         50.1957         7.14841 
        1.88988         50.0144         7.09274 
        1.89601          49.728         7.03764 
        1.90215          49.493         6.98308 
        1.90829          49.327         6.92913 
        1.91442          49.048         6.87574 
        1.92056         48.8797         6.82297 
         1.9267          48.716          6.7707 
        1.93284         48.4543         6.71894 
        1.93897         48.2958         6.66783 
        1.94509         47.9189         6.61736 
        1.95123         47.7743         6.56729 
        1.95737         47.5075          6.5177 
        1.96349         47.4159         6.46875 
        1.96964         47.1313         6.42017 
        1.97578         46.9297         6.37206 
        1.98192         46.6947         6.32455 
        1.98805         46.5049         6.27752 
        1.99419         46.3255         6.23096 
        2.00033         46.1628         6.18486 
        2.00647         45.9908         6.13923 
         2.0126          45.692         6.09414 
        2.01874         45.5182         6.04944 
        2.02488         45.2766         6.00515 
        2.03101         45.1495         5.96139 
        2.03714         44.9198          5.9181 
        2.04328         44.7647         5.87519 
        2.04941         44.5195         5.83275 
        2.05554         44.3937         5.79076 
        2.06167         44.2186         5.74912 
        2.06781         43.9118         5.70789 
        2.07396         43.7437         5.66701 
        2.08009         43.5963          5.6266 
        2.08622         43.4096         5.58663 
        2.09237          43.202         5.54697 
        2.09851         43.0202         5.50769 
        2.10464         42.8327         5.46885 
        2.11077         42.6775         5.43044 
        2.11691         42.3796         5.39231 
        2.12305         42.1871         5.35455 
        2.12918         42.0816         5.31725 
        2.13531         41.9328         5.28029 
        2.14145         41.7263          5.2436 
         2.1476         41.5517         5.20722 
        2.15372         41.4536         5.17137 
        2.15985         41.1334         5.13582 
        2.16599         40.9741          5.1005 
        2.17213         40.8235         5.06556 
        2.17827         40.6227         5.03095 
         2.1844         40.4418         4.99669 
        2.19054         40.2887         4.96274 
        2.19666         40.0694         4.92916 
         2.2028         39.8985         4.89586 
        2.20893         39.7726         4.86285 
        2.21508          39.618         4.83011 
        2.22122         39.4283         4.79766 
        2.22736         39.1758         4.76558 
        2.23349          39.091         4.73379 
        2.23962         38.9138         4.70229 
        2.24577         38.7503         4.67104 
         2.2519         38.5286         4.64012 
        2.25802         38.4327         4.60953 
        2.26417         38.2373         4.57913 
        2.27031         38.1063         4.54898 
        2.27644         38.0286         4.51919 
        2.28257         37.6764         4.48967 
        2.28872         37.7012         4.46035 
        2.29486         37.4729         4.43131 
        2.30099         37.2513         4.40258 
        2.30712         37.1733          4.3741 
        2.31326         36.9613         4.34582 
         2.3194         36.7762          4.3178 
        2.32553         36.6701         4.29008 
        2.33166         36.4927         4.26262 
         2.3378          36.344         4.23536 
        2.34394         36.1907         4.20833 
        2.35007         36.0748         4.18158 
        2.35619         35.9556         4.15509 
        2.36233          35.703         4.12877 
        2.36848         35.6136         4.10262 
        2.37462         35.4753         4.07675 
        2.38075         35.3015         4.05113 
        2.38689         35.1795         4.02572 
        2.39303         35.0818         4.00052 
        2.39916         34.7825         3.97557 
        2.40529         34.6732         3.95083 
        2.41143         34.5595         3.92629 
        2.41757         34.4623         3.90194 
         2.4237         34.2933         3.87784 
        2.42983         34.1253         3.85396 
        2.43598         34.0042         3.83021 
        2.44211         33.8658          3.8067 
        2.44823         33.6575         3.78344 
        2.45437         33.6311         3.76031 
        2.46052         33.4107         3.73735 
        2.46665         33.2664         3.71463 
        2.47279         33.0651         3.69211 
        2.47892         33.0088         3.66975 
        2.48507         32.8841         3.64757 
         2.4912         32.7656          3.6256 
