# k  (h/Mpc)    P(k)  (Mpc/h)^3    P_linear(k)  (Mpc/h)^3
     0.00783031         5246.99         5314.15 
       0.013688         6911.54          6892.2 
       0.019231         7295.91         7296.71 
      0.0249154         6955.75         7051.91 
      0.0312784         6337.21         6382.62 
      0.0375637         5609.77         5614.68 
      0.0433917         4910.92         4969.94 
      0.0492413         4430.89         4452.34 
      0.0555754         3964.25          4041.4 
      0.0619321         3754.12         3746.68 
       0.067871         3467.39         3528.48 
      0.0738098         3259.78          3322.4 
      0.0800417         3003.88         3089.48 
      0.0862327         2775.54         2832.84 
      0.0921407         2543.37         2574.78 
      0.0982031         2278.39         2316.91 
       0.104506         2089.28         2078.11 
       0.110769         1898.74         1884.83 
       0.116806         1746.88         1743.26 
       0.122832         1655.55         1639.89 
       0.129052         1552.24          1560.8 
       0.135211          1487.8         1495.58 
       0.141259         1436.74         1431.72 
       0.147318         1371.33         1360.03 
       0.153489         1275.99         1276.98 
       0.159709         1201.22         1186.48 
       0.165845         1136.05         1097.16 
       0.171974         1050.65         1014.89 
       0.178125         987.892         944.344 
       0.184229         939.443         888.246 
        0.19034         877.337         844.991 
       0.196428         861.332         811.559 
       0.202534         838.669         783.433 
       0.208729          803.58         756.116 
       0.214876         766.286         727.063 
       0.220989         746.192         694.878 
       0.227147         703.947         659.585 
        0.23329         672.863         623.253 
       0.239377         652.252         588.385 
       0.245482         607.401         556.537 
       0.251667          597.14         528.704 
       0.257832         575.402         505.636 
       0.263955         555.964         486.735 
       0.270079         538.075         470.604 
        0.27624         531.733          455.75 
       0.282372          511.23         441.107 
        0.28843         496.764         425.981 
       0.294538         475.609          409.87 
       0.300721         470.612         392.958 
        0.30691         448.503         376.048 
       0.313033         437.833         360.038 
       0.319153         421.161         345.325 
       0.325316         409.886         332.109 
        0.33145         397.546         320.553 
       0.337538         392.471         310.407 
       0.343633         380.192          301.17 
       0.349808         369.122           292.3 
       0.355968         363.996         283.587 
       0.362074         355.158         274.849 
       0.368217         345.976         265.943 
       0.374374         334.635         256.981 
       0.380519         328.945         248.209 
       0.386598         321.026         239.901 
       0.392688          317.36         232.095 
        0.39888         308.882         224.783 
       0.405048         302.691         218.095 
       0.411186         296.225         211.946 
       0.417313          290.58         206.183 
       0.423458         285.298         200.633 
       0.429607         278.727         195.205 
       0.435692         271.094         189.902 
       0.441815         269.401         184.605 
       0.447964         264.726         179.371 
       0.454126          254.14         174.265 
       0.460267         251.408         169.367 
       0.466387         248.293          164.72 
        0.47254         243.436         160.311 
       0.478662         241.449         156.169 
       0.484765         235.013         152.252 
       0.490885         231.671         148.503 
       0.497035         228.585         144.872 
       0.503198         222.862         141.329 
       0.509342         220.147         137.871 
       0.515458         217.217         134.506 
       0.521598         214.467         131.207 
       0.527764         211.109         127.982 
       0.533884          207.92         124.887 
           0.54         204.984         121.915 
       0.546137         203.715         119.055 
       0.552299         200.248           116.3 
       0.558452         196.819         113.656 
       0.564573         193.431         111.121 
       0.570708         190.817         108.663 
       0.576825          188.37         106.282 
       0.582926         185.649         103.966 
       0.589034         182.784         101.702 
       0.595184         181.148         99.4824 
       0.601379         179.472         97.3103 
       0.607522         175.349         95.2212 
       0.613639         175.042         93.2052 
       0.619772         171.136         91.2478 
       0.625918         169.671         89.3499 
       0.632068         167.787         87.5128 
       0.638161         166.459         85.7491 
         0.6443         164.107         84.0234 
       0.650464         162.365         82.3378 
       0.656582         160.695         80.7066 
       0.662703         158.063         79.1155 
       0.668861         156.404         77.5561 
       0.675024         154.701         76.0368 
       0.681124         153.517         74.5743 
       0.687237         150.847         73.1489 
       0.693381         149.132         71.7557 
       0.699536          147.83         70.3979 
       0.705665         148.411         69.0823 
       0.711789          144.58         67.8026 
       0.717957           144.1         66.5476 
        0.72409         142.148          65.332 
       0.730186         139.811         64.1544 
       0.736317         139.534         62.9996 
       0.742472         138.278         61.8688 
       0.748622         137.271         60.7664 
        0.75476         135.936         59.6929 
       0.760888         134.103          58.647 
       0.767043         132.982         57.6221 
       0.773185          131.64         56.6243 
       0.779291         130.352         55.6563 
       0.785407         129.503         54.7104 
       0.791564         128.051         53.7811 
       0.797719         126.482         52.8744 
       0.803834         125.968         51.9949 
       0.809972         124.107         51.1324 
       0.816124         123.741         50.2879 
       0.822261         122.572         49.4648 
       0.828378         121.458         48.6626 
       0.834502          120.65         47.8775 
       0.840667         119.426         47.1048 
       0.846816         118.344         46.3514 
       0.852925         117.144         45.6194 
       0.859047         115.877         44.9019 
       0.865192         115.607         44.1976 
       0.871341         114.504         43.5081 
       0.877463         113.157         42.8367 
       0.883569         112.388         42.1814 
       0.889708         111.825         41.5366 
       0.895864         110.824         40.9037 
       0.902008         110.029         40.2855 
       0.908149         109.393         39.6806 
       0.914301         108.185         39.0873 
       0.920448         107.577         38.5067 
       0.926574         106.843           37.94 
       0.932687         106.242         37.3861 
       0.938823         104.733         36.8413 
       0.944975         104.333         36.3063 
       0.951105         103.449         35.7838 
       0.957225         102.213         35.2727 
       0.963368         101.916         34.7699 
       0.969511         101.389         34.2769 
       0.975621         100.868         33.7963 
       0.981748         99.9142         33.3238 
       0.987916         99.1954         32.8573 
        0.99406         98.6942         32.4017 
        1.00019         97.5157         31.9557 
        1.00632         97.2281         31.5186 
        1.01246         96.2779         31.0891 
        1.01859         95.1849         30.6683 
        1.02471         95.6367          30.256 
        1.03085          94.555         29.8499 
        1.03698         93.7459         29.4521 
        1.04314         92.8668           29.06 
        1.04929         92.5246         28.6761 
        1.05541         91.7903         28.3006 
        1.06154          91.445         27.9311 
        1.06769         90.7963         27.5676 
        1.07382         90.4292         27.2119 
        1.07993         89.9685         26.8633 
        1.08607          89.138         26.5195 
        1.09222         88.7035         26.1813 
        1.09836          88.078         25.8495 
        1.10449         87.5358         25.5239 
        1.11063          86.883         25.2036 
        1.11677         86.3591         24.8889 
         1.1229         85.8909         24.5802 
        1.12903         84.8852         24.2765 
        1.13518         85.0509         23.9777 
        1.14131         84.5214         23.6842 
        1.14745         83.5007         23.3957 
        1.15359         83.2831         23.1121 
        1.15973         82.7107          22.833 
        1.16584         82.1635         22.5599 
        1.17197         81.7111         22.2909 
        1.17811         81.2934         22.0254 
        1.18424         80.5341         21.7651 
        1.19038         80.2986         21.5083 
        1.19652         79.9169         21.2558 
        1.20267         79.3086         21.0073 
        1.20881         78.8469         20.7629 
        1.21495         78.2821         20.5227 
        1.22108         77.8417         20.2865 
         1.2272         77.2785         20.0545 
        1.23334          76.971         19.8257 
        1.23949          76.659         19.5999 
        1.24562         76.3311         19.3783 
        1.25174         75.8475         19.1605 
        1.25789         75.4297         18.9454 
        1.26402         74.8843          18.734 
        1.27014         74.2878         18.5264 
        1.27628         74.1078         18.3214 
        1.28244         73.4317          18.119 
        1.28858         73.1589           17.92 
        1.29471          72.918         17.7245 
        1.30084         72.4609         17.5321 
        1.30697         71.8776         17.3423 
        1.31312         71.5017          17.155 
        1.31925         71.3841         16.9711 
        1.32537         70.9142         16.7901 
        1.33151          70.415         16.6112 
        1.33765         70.1768         16.4349 
        1.34378         69.7708         16.2616 
        1.34992         69.1437         16.0907 
        1.35606         68.8581         15.9219 
         1.3622         68.3884         15.7558 
        1.36833         68.2715         15.5925 
        1.37445         67.9472         15.4316 
        1.38059         67.4572         15.2725 
        1.38675         67.1112         15.1152 
        1.39288          66.729         14.9609 
        1.39901         66.4637         14.8087 
        1.40515         66.1521         14.6584 
         1.4113          65.859         14.5102 
        1.41742         65.3605         14.3646 
        1.42355         65.1292         14.2208 
         1.4297          64.696         14.0785 
        1.43585         64.4626         13.9382 
        1.44198         64.2019         13.8004 
        1.44809         63.7563         13.6647 
        1.45423         63.5852         13.5304 
        1.46036         63.1833         13.3981 
        1.46649          62.846         13.2675 
        1.47263         62.5472         13.1386 
        1.47877         62.3476         13.0115 
        1.48491         61.9926         12.8859 
        1.49104         61.6067         12.7622 
        1.49718         61.1814           12.64 
        1.50333         61.0065         12.5193 
        1.50947         60.6196         12.4004 
         1.5156         60.3575         12.2832 
        1.52172         60.1285         12.1675 
        1.52787         59.9731         12.0531 
          1.534         59.5913         11.9404 
        1.54013         59.2133         11.8292 
        1.54627         59.0949         11.7192 
        1.55241         58.6978         11.6106 
        1.55855         58.3102         11.5035 
        1.56467         57.9346         11.3981 
         1.5708         57.8667         11.2938 
        1.57695         57.5366         11.1906 
        1.58308           57.38         11.0889 
        1.58922         57.1626         10.9884 
        1.59535         56.8336         10.8892 
         1.6015         56.4515         10.7911 
        1.60764         56.3499         10.6943 
        1.61376         56.0261         10.5989 
        1.61989         55.5329         10.5046 
        1.62604         55.4673         10.4113 
        1.63218         55.2175         10.3192 
        1.63831         54.9154         10.2284 
        1.64444         54.7558         10.1386 
        1.65059         54.2404         10.0497 
        1.65673          54.082         9.96204 
        1.66285         53.9127         9.87563 
        1.66898         53.5384         9.79023 
        1.67512         53.3089         9.70567 
        1.68127         52.9906         9.62204 
         1.6874         52.9157         9.53959 
        1.69353         52.5504         9.45815 
        1.69967         52.3902         9.37748 
        1.70581          52.252         9.29779 
        1.71193         51.8543         9.21933 
        1.71806         51.5514         9.14161 
        1.72421         51.3453         9.06464 
        1.73035         51.1053         8.98864 
        1.73649         50.8515         8.91354 
        1.74262         50.6467         8.83936 
        1.74876          50.611         8.76598 
        1.75489          50.158         8.69359 
        1.76101         49.9959         8.62204 
        1.76715         49.7346          8.5512 
        1.77329         49.4941         8.48107 
        1.77943         49.3736         8.41171 
        1.78557         49.1521         8.34323 
        1.79171         48.8157          8.2755 
        1.79785         48.6107         8.20851 
        1.80399         48.4166         8.14228 
        1.81012         48.2456         8.07688 
        1.81625         47.8936         8.01223 
        1.82239         47.7538         7.94819 
        1.82853         47.4017         7.88488 
        1.83466         47.2809         7.82233 
        1.84078         46.9301         7.76053 
        1.84692         46.8282          7.6993 
        1.85306         46.6003         7.63865 
         1.8592         46.4213         7.57876 
        1.86533          46.118         7.51955 
        1.87147         45.9904          7.4609 
        1.87761         45.8753         7.40286 
        1.88375         45.6131         7.34551 
        1.88988         45.5395         7.28883 
        1.89601         45.2001         7.23271 
        1.90215         45.0424         7.17715 
        1.90829         44.9163          7.1222 
        1.91442          44.608         7.06783 
        1.92056         44.4853         7.01407 
         1.9267         44.1408         6.96082 
        1.93284          43.918         6.90809 
        1.93897         43.8432         6.85601 
        1.94509         43.6102         6.80459 
        1.95123         43.4404         6.75356 
        1.95737         43.2168         6.70302 
        1.96349         43.0052         6.65313 
        1.96964         42.7547          6.6036 
        1.97578         42.6835         6.55456 
        1.98192          42.448         6.50612 
        1.98805         42.3141         6.45816 
        1.99419          41.997         6.41069 
        2.00033          41.806         6.36367 
        2.00647         41.6877         6.31714 
         2.0126         41.4926         6.27116 
        2.01874         41.3661         6.22556 
        2.02488         41.2307         6.18038 
        2.03101         40.9695         6.13574 
        2.03714         40.7361         6.09157 
        2.04328         40.5614          6.0478 
        2.04941         40.3995         6.00449 
        2.05554         40.2035         5.96164 
        2.06167         40.0532         5.91915 
        2.06781         39.8777         5.87707 
        2.07396         39.6398         5.83535 
        2.08009         39.5589          5.7941 
        2.08622          39.348          5.7533 
        2.09237         39.2128         5.71281 
        2.09851         38.9733         5.67271 
        2.10464         38.8873         5.63306 
        2.11077         38.6148         5.59383 
        2.11691          38.556          5.5549 
        2.12305         38.3063         5.51634 
        2.12918         38.2404         5.47823 
        2.13531         38.0594         5.44049 
        2.14145         37.9048         5.40301 
         2.1476         37.6536         5.36584 
        2.15372         37.5076         5.32922 
        2.15985         37.4009          5.2929 
        2.16599         37.2674         5.25681 
        2.17213          37.176          5.2211 
        2.17827         36.7855         5.18574 
         2.1844         36.7123         5.15073 
        2.19054         36.5639         5.11604 
        2.19666         36.4004         5.08171 
         2.2028         36.2987         5.04767 
        2.20893         36.1388         5.01393 
        2.21508         35.9653         4.98046 
        2.22122         35.7603         4.94729 
        2.22736         35.6374         4.91449 
        2.23349         35.5043         4.88199 
        2.23962          35.329         4.84977 
        2.24577         35.1357         4.81782 
         2.2519         35.0035          4.7862 
        2.25802         34.9191         4.75491 
        2.26417          34.731         4.72382 
        2.27031         34.6247         4.69298 
        2.27644         34.4491          4.6625 
        2.28257         34.3434          4.6323 
        2.28872         34.1303         4.60231 
        2.29486          34.012         4.57259 
        2.30099          33.908          4.5432 
        2.30712         33.7777         4.51405 
        2.31326         33.6352         4.48511 
         2.3194         33.4789         4.45644 
        2.32553         33.3156         4.42807 
        2.33166         33.1491         4.39996 
         2.3378         33.0417         4.37206 
        2.34394         32.8804         4.34439 
        2.35007         32.7233           4.317 
        2.35619         32.6539         4.28988 
        2.36233            32.5         4.26293 
        2.36848         32.2884         4.23616 
        2.37462         32.1992         4.20968 
        2.38075         32.0352         4.18344 
        2.38689         31.9323         4.15741 
        2.39303         31.7922         4.13161 
        2.39916         31.6442         4.10605 
        2.40529         31.4987         4.08071 
        2.41143         31.4031         4.05557 
        2.41757         31.2446         4.03063 
         2.4237         31.1331         4.00595 
        2.42983         31.0168         3.98147 
        2.43598         30.8775         3.95714 
        2.44211         30.7596         3.93305 
        2.44823         30.5899         3.90921 
        2.45437         30.4914         3.88551 
        2.46052         30.3438         3.86199 
        2.46665         30.2632          3.8387 
        2.47279         30.1033         3.81561 
        2.47892         29.9512          3.7927 
        2.48507         29.8432         3.76995 
         2.4912         29.7486         3.74744 
