# k  (h/Mpc)    P(k)  (Mpc/h)^3    P_linear(k)  (Mpc/h)^3
     0.00783031         13302.9         13508.6 
       0.013688           14747         14647.4 
       0.019231           13181         13132.3 
      0.0249154         10517.4         10662.6 
      0.0312784         7974.68         7986.38 
      0.0375637         6079.23         6014.48 
      0.0433917         4853.27         4858.04 
      0.0492413         4234.58         4207.54 
      0.0555754         3801.92         3853.64 
      0.0619321         3680.81         3634.54 
       0.067871          3357.9          3396.3 
      0.0738098         3031.33         3058.72 
      0.0800417         2588.76         2618.05 
      0.0862327         2183.11         2169.87 
      0.0921407         1859.04         1805.21 
      0.0982031         1576.54         1534.87 
       0.104506         1445.12         1367.18 
       0.110769         1351.29         1288.13 
       0.116806         1302.38         1256.08 
       0.122832         1269.83         1228.68 
       0.129052         1189.27         1175.07 
       0.135211         1106.69         1085.73 
       0.141259          1018.1         972.161 
       0.147318         914.472         853.024 
       0.153489         806.337         746.624 
       0.159709          738.74         667.098 
       0.165845         695.916          617.85 
       0.171974         660.616         591.683 
       0.178125         640.024         578.188 
       0.184229         620.407         566.343 
        0.19034         584.564           547.5 
       0.196428         566.453         518.285 
       0.202534         538.627         480.379 
       0.208729         498.431         438.652 
       0.214876         463.204         400.136 
       0.220989         437.541         368.969 
       0.227147          414.93         346.297 
        0.23329         396.697         331.375 
       0.239377         388.089         321.474 
       0.245482         362.897         313.143 
       0.251667          360.03         303.519 
       0.257832         346.296         291.181 
       0.263955         331.784         276.217 
       0.270079         315.021         259.823 
        0.27624         307.211         243.611 
       0.282372         294.574         229.271 
        0.28843         282.849         217.658 
       0.294538         268.678         208.522 
       0.300721         265.346         201.327 
        0.30691         253.342         195.196 
       0.313033         247.524         189.287 
       0.319153         237.798         182.869 
       0.325316         231.655         175.725 
        0.33145         222.665         168.095 
       0.337538         218.203         160.474 
       0.343633          209.88         153.251 
       0.349808         202.145         146.699 
       0.355968         198.685         141.065 
       0.362074         194.082         136.269 
       0.368217         188.307         132.022 
       0.374374         180.748         128.036 
       0.380519         178.306         124.102 
       0.386598         173.479         120.121 
       0.392688         170.408         116.018 
        0.39888         165.926         111.836 
       0.405048         161.197         107.778 
       0.411186         157.618         103.968 
       0.417313         154.021         100.483 
       0.423458         150.324         97.2961 
       0.429607         147.145         94.3756 
       0.435692         142.374          91.683 
       0.441815         140.867         89.0825 
       0.447964         137.825         86.5134 
       0.454126         132.467         83.9679 
       0.460267         130.502         81.4599 
       0.466387         128.587         79.0082 
        0.47254         125.372         76.6315 
       0.478662          124.76         74.3895 
       0.484765         120.233         72.2828 
       0.490885         118.371           70.29 
       0.497035         116.491         68.3972 
       0.503198         113.507         66.5895 
       0.509342         111.841         64.8498 
       0.515458         109.968         63.1588 
       0.521598         107.602          61.499 
       0.527764         106.399         59.8764 
       0.533884         104.739         58.3154 
           0.54         102.623         56.8094 
       0.546137         101.614          55.356 
       0.552299         99.6039         53.9584 
       0.558452         98.0262         52.6257 
       0.564573         96.3668         51.3539 
       0.570708         94.3615         50.1243 
       0.576825         93.2646         48.9354 
       0.582926          91.178          47.782 
       0.589034         90.0354         46.6596 
       0.595184         88.7993         45.5631 
       0.601379         87.2047         44.4935 
       0.607522         85.6894         43.4671 
       0.613639         84.9466         42.4783 
       0.619772         83.2413         41.5195 
       0.625918         82.1059         40.5904 
       0.632068         81.0604         39.6917 
       0.638161         80.2363         38.8298 
         0.6443         79.1417          37.988 
       0.650464         78.3309         37.1679 
       0.656582         76.7736         36.3767 
       0.662703         75.8393         35.6068 
       0.668861         74.5528         34.8539 
       0.675024         73.6897         34.1217 
       0.681124         73.0026          33.418 
       0.687237         71.5602         32.7335 
       0.693381         70.5532          32.066 
       0.699536         70.0134         31.4169 
       0.705665         69.6371         30.7891 
       0.711789         68.2207         30.1794 
       0.717957         67.8897          29.582 
        0.72409         66.5828          29.004 
       0.730186         65.6211         28.4446 
       0.736317         65.2645         27.8967 
       0.742472         64.5969         27.3611 
       0.748622           63.73           26.84 
        0.75476         63.0929         26.3337 
       0.760888         62.2534         25.8413 
       0.767043         61.7673         25.3599 
       0.773185         61.0457         24.8919 
       0.779291          60.122         24.4385 
       0.785407         59.7017         23.9959 
       0.791564         59.3489         23.5617 
       0.797719          58.026         23.1385 
       0.803834         57.7505         22.7284 
       0.809972         56.9234         22.3268 
       0.816124         56.5413         21.9341 
       0.822261         56.0753         21.5518 
       0.828378         55.6805         21.1799 
       0.834502         55.0787         20.8165 
       0.840667          54.371         20.4592 
       0.846816         53.6445         20.1114 
       0.852925         53.2429         19.7739 
       0.859047         52.5479         19.4435 
       0.865192         52.2567         19.1195 
       0.871341          51.765         18.8028 
       0.877463         50.9755         18.4947 
       0.883569            50.8         18.1943 
       0.889708          50.243         17.8991 
       0.895864         49.8802         17.6097 
       0.902008         49.4061         17.3273 
       0.908149          49.024         17.0514 
       0.914301         48.5042          16.781 
       0.920448         48.1618         16.5167 
       0.926574         47.6071         16.2591 
       0.932687         47.5035         16.0076 
       0.938823         46.8337         15.7605 
       0.944975         46.3272          15.518 
       0.951105         45.9627         15.2816 
       0.957225         45.5131         15.0505 
       0.963368         45.2015         14.8235 
       0.969511          44.958         14.6011 
       0.975621         44.7135         14.3845 
       0.981748         44.1632         14.1718 
       0.987916         43.7164          13.962 
        0.99406         43.5102         13.7573 
        1.00019         43.1487         13.5572 
        1.00632         42.7509         13.3612 
        1.01246         42.5141         13.1688 
        1.01859         42.0023         12.9805 
        1.02471         41.7576         12.7962 
        1.03085         41.4313         12.6148 
        1.03698         41.1152         12.4374 
        1.04314         40.8083         12.2626 
        1.04929         40.4675         12.0915 
        1.05541         40.0286         11.9245 
        1.06154         40.0475         11.7602 
        1.06769          39.626         11.5987 
        1.07382         39.4211         11.4408 
        1.07993         39.1603         11.2863 
        1.08607         38.8531         11.1339 
        1.09222         38.6073         10.9842 
        1.09836         38.1976         10.8375 
        1.10449         38.0933         10.6936 
        1.11063         37.6551         10.5522 
        1.11677         37.4228         10.4134 
         1.1229         37.1233         10.2773 
        1.12903         36.7246         10.1435 
        1.13518         36.8018          10.012 
        1.14131         36.5147         9.88297 
        1.14745         36.1425         9.75624 
        1.15359         35.9645         9.63172 
        1.15973         35.5644         9.50933 
        1.16584         35.3983         9.38962 
        1.17197         35.1669          9.2718 
        1.17811         35.0436         9.15565 
        1.18424         34.6949         9.04183 
        1.19038         34.4676         8.92963 
        1.19652         34.3702         8.81938 
        1.20267         34.0051         8.71099 
        1.20881         33.8753         8.60445 
        1.21495         33.5833         8.49987 
        1.22108         33.5491         8.39705 
         1.2272          33.077         8.29618 
        1.23334         32.9252         8.19673 
        1.23949         32.8942         8.09869 
        1.24562          32.506         8.00253 
        1.25174         32.4194         7.90807 
        1.25789         32.2828         7.81486 
        1.26402          31.934         7.72332 
        1.27014         31.7793         7.63348 
        1.27628         31.5196         7.54479 
        1.28244         31.4302         7.45735 
        1.28858         31.2486         7.37142 
        1.29471         31.1123         7.28703 
        1.30084         30.9234         7.20404 
        1.30697         30.7138         7.12221 
        1.31312         30.5212         7.04155 
        1.31925         30.3157         6.96239 
        1.32537         30.1702         6.88452 
        1.33151          29.967         6.80757 
        1.33765         29.8089         6.73184 
        1.34378         29.6652         6.65742 
        1.34992         29.4501         6.58407 
        1.35606         29.3022         6.51167 
         1.3622         29.1733         6.44049 
        1.36833          28.966         6.37054 
        1.37445          28.809         6.30167 
        1.38059         28.6299          6.2336 
        1.38675          28.413         6.16638 
        1.39288          28.348         6.10042 
        1.39901          28.214         6.03546 
        1.40515         27.9966         5.97129 
         1.4113         27.8323         5.90809 
        1.41742         27.7791         5.84603 
        1.42355         27.5537         5.78476 
         1.4297         27.4452         5.72418 
        1.43585         27.3627          5.6645 
        1.44198         27.0824         5.60589 
        1.44809         27.0288         5.54822 
        1.45423         26.8637         5.49116 
        1.46036         26.7643           5.435 
        1.46649         26.6025         5.37961 
        1.47263         26.4327         5.32494 
        1.47877         26.3004         5.27107 
        1.48491         26.3032         5.21785 
        1.49104         26.0236         5.16548 
        1.49718         25.8331         5.11379 
        1.50333         25.8832         5.06273 
        1.50947         25.6699         5.01247 
         1.5156         25.5352         4.96297 
        1.52172         25.4719         4.91414 
        1.52787         25.3208         4.86587 
          1.534         25.1882          4.8183 
        1.54013          25.021         4.77142 
        1.54627         24.9556         4.72508 
        1.55241         24.7201         4.67935 
        1.55855         24.6925         4.63429 
        1.56467         24.4516         4.58995 
         1.5708         24.5035         4.54606 
        1.57695          24.312         4.50269 
        1.58308         24.1622         4.45997 
        1.58922         24.0759         4.41778 
        1.59535         23.9875         4.37616 
         1.6015         23.8111         4.33501 
        1.60764         23.6732         4.29441 
        1.61376         23.5737         4.25444 
        1.61989         23.4756         4.21494 
        1.62604         23.3658         4.17586 
        1.63218         23.3173          4.1373 
        1.63831         23.1404         4.09931 
        1.64444         23.0396         4.06179 
        1.65059         22.9764         4.02465 
        1.65673         22.8315         3.98801 
        1.66285         22.7361         3.95193 
        1.66898         22.6144         3.91629 
        1.67512          22.525         3.88101 
        1.68127         22.4015         3.84614 
         1.6874         22.2498         3.81178 
        1.69353         22.2024         3.77785 
        1.69967         22.0759         3.74426 
        1.70581         22.0336          3.7111 
        1.71193         21.9523         3.67846 
        1.71806         21.7425         3.64614 
        1.72421         21.6829         3.61415 
        1.73035         21.5728         3.58257 
        1.73649          21.471         3.55139 
        1.74262         21.3909         3.52059 
        1.74876         21.3074         3.49015 
        1.75489         21.2096         3.46012 
        1.76101         21.1301         3.43046 
        1.76715         21.0483         3.40111 
        1.77329         20.9911         3.37206 
        1.77943         20.8954         3.34334 
        1.78557         20.7295           3.315 
        1.79171         20.6478         3.28698 
        1.79785         20.5555         3.25928 
        1.80399         20.5381         3.23191 
        1.81012          20.381         3.20489 
        1.81625         20.3477         3.17818 
        1.82239         20.1953         3.15174 
        1.82853         20.1609         3.12562 
        1.83466          20.041         3.09982 
        1.84078         19.8859         3.07433 
        1.84692         19.8612         3.04909 
        1.85306          19.766          3.0241 
         1.8592         19.6849         2.99943 
        1.86533         19.6058         2.97505 
        1.87147         19.5711         2.95091 
        1.87761          19.447         2.92703 
        1.88375          19.368         2.90344 
        1.88988         19.3041         2.88014 
        1.89601         19.2496         2.85708 
        1.90215         19.1513         2.83425 
        1.90829          19.045         2.81168 
        1.91442         18.9881         2.78936 
        1.92056         18.8938          2.7673 
         1.9267         18.8305         2.74545 
        1.93284         18.6882         2.72383 
        1.93897          18.681         2.70248 
        1.94509         18.5882         2.68141 
        1.95123         18.4983         2.66051 
        1.95737         18.4255         2.63981 
        1.96349         18.3718         2.61939 
        1.96964         18.2847         2.59913 
        1.97578          18.162         2.57907 
        1.98192         18.1041         2.55926 
        1.98805         18.0724         2.53966 
        1.99419         17.9917         2.52027 
        2.00033         17.8915         2.50106 
        2.00647         17.8277         2.48206 
         2.0126         17.7404         2.46329 
        2.01874         17.6943         2.44469 
        2.02488         17.6312         2.42626 
        2.03101         17.5773         2.40806 
        2.03714         17.4872         2.39006 
        2.04328         17.3992         2.37222 
        2.04941         17.3402         2.35458 
        2.05554         17.2749         2.33714 
        2.06167         17.1869         2.31984 
        2.06781         17.1315         2.30272 
        2.07396         17.0818         2.28575 
        2.08009         17.0111         2.26897 
        2.08622         16.8949         2.25239 
        2.09237         16.8741         2.23593 
        2.09851         16.8032         2.21964 
        2.10464         16.7045         2.20354 
        2.11077         16.6766         2.18762 
        2.11691         16.6063         2.17182 
        2.12305         16.5511         2.15617 
        2.12918         16.4539         2.14072 
        2.13531         16.4599         2.12541 
        2.14145         16.3573         2.11023 
         2.1476         16.3083         2.09517 
        2.15372         16.2226         2.08033 
        2.15985         16.1635         2.06562 
        2.16599         16.0979         2.05101 
        2.17213          16.033         2.03656 
        2.17827         15.9616         2.02225 
         2.1844         15.9045         2.00809 
        2.19054         15.8543         1.99406 
        2.19666         15.7852         1.98019 
         2.2028         15.7142         1.96643 
        2.20893         15.6766          1.9528 
        2.21508         15.6178         1.93929 
        2.22122         15.5066         1.92589 
        2.22736         15.4767         1.91265 
        2.23349         15.4346         1.89954 
        2.23962         15.3786         1.88655 
        2.24577         15.3025         1.87366 
         2.2519         15.2688         1.86091 
        2.25802         15.1803          1.8483 
        2.26417         15.1411         1.83578 
        2.27031         15.0476         1.82335 
        2.27644          15.021         1.81108 
        2.28257         14.9526         1.79892 
        2.28872         14.9032         1.78685 
        2.29486         14.8557          1.7749 
        2.30099         14.7767         1.76307 
        2.30712         14.7321         1.75135 
        2.31326         14.7083         1.73972 
         2.3194          14.632          1.7282 
        2.32553         14.5759          1.7168 
        2.33166         14.5158         1.70551 
         2.3378         14.4788          1.6943 
        2.34394         14.3908          1.6832 
        2.35007          14.367          1.6722 
        2.35619         14.3158         1.66132 
        2.36233         14.2498         1.65051 
        2.36848         14.2093         1.63978 
        2.37462         14.1307         1.62916 
        2.38075         14.0993         1.61865 
        2.38689         14.0331         1.60822 
        2.39303         13.9852         1.59788 
        2.39916         13.9465         1.58765 
        2.40529         13.9276          1.5775 
        2.41143         13.8436         1.56744 
        2.41757         13.7797         1.55746 
         2.4237         13.7216         1.54758 
        2.42983         13.6584          1.5378 
        2.43598         13.6339         1.52807 
        2.44211         13.5964         1.51844 
        2.44823         13.5506         1.50891 
        2.45437         13.4814         1.49944 
        2.46052         13.4389         1.49005 
        2.46665         13.4041         1.48075 
        2.47279         13.3652         1.47153 
        2.47892         13.3052         1.46239 
        2.48507         13.2394         1.45331 
         2.4912          13.209         1.44433 
