# k  (h/Mpc)    Pcb(k)  (Mpc/h)^3    Pcb_linear(k)  (Mpc/h)^3
     0.00783031           20196           20498 
       0.013688         22499.5           22262 
       0.019231         20077.1         19973.8 
      0.0249154         15948.8         16224.3 
      0.0312784           12117         12155.6 
      0.0375637         9271.42         9155.93 
      0.0433917         7382.48         7396.32 
      0.0492413         6456.19         6406.49 
      0.0555754         5769.06         5868.02 
      0.0619321         5615.07         5534.68 
       0.067871         5095.94         5172.09 
      0.0738098         4605.38         4658.15 
      0.0800417         3934.06         3987.15 
      0.0862327         3333.17         3304.66 
      0.0921407         2863.06         2749.35 
      0.0982031         2433.66         2337.64 
       0.104506         2243.41         2082.27 
       0.110769         2094.25         1961.91 
       0.116806         2019.25         1913.11 
       0.122832         1959.03         1871.39 
       0.129052         1826.46         1789.75 
       0.135211         1702.57         1653.69 
       0.141259         1578.82         1480.71 
       0.147318         1429.13         1299.26 
       0.153489         1266.12         1137.21 
       0.159709         1167.98         1016.08 
       0.165845         1105.24         941.072 
       0.171974         1052.71         901.221 
       0.178125         1013.38         880.668 
       0.184229         976.705         862.626 
        0.19034         922.077         833.931 
       0.196428         894.129         789.433 
       0.202534         852.081         731.696 
       0.208729         794.335          668.14 
       0.214876         745.958         609.475 
       0.220989          708.21         562.003 
       0.227147         676.293         527.475 
        0.23329         646.231         504.746 
       0.239377         632.718         489.662 
       0.245482         590.332         476.974 
       0.251667         586.979         462.315 
       0.257832         562.421         443.521 
       0.263955         540.839         420.731 
       0.270079         515.435         395.759 
        0.27624          505.72         371.067 
       0.282372         485.374         349.223 
        0.28843         471.455         331.535 
       0.294538         446.404         317.623 
       0.300721         442.121          306.66 
        0.30691         423.111         297.321 
       0.313033         413.908          288.32 
       0.319153         400.197         278.547 
       0.325316         389.206         267.662 
        0.33145         376.059         256.041 
       0.337538         368.492         244.435 
       0.343633         356.533          233.43 
       0.349808         342.645          223.45 
       0.355968         338.531          214.87 
       0.362074         333.167         207.565 
       0.368217         323.096         201.095 
       0.374374         308.864         195.024 
       0.380519         306.553         189.032 
       0.386598         298.065         182.968 
       0.392688         294.378         176.718 
        0.39888         286.315         170.348 
       0.405048         279.708         164.168 
       0.411186         274.562         158.365 
       0.417313          268.71         153.056 
       0.423458         261.953         148.202 
       0.429607         258.134         143.753 
       0.435692         250.753         139.652 
       0.441815         247.886         135.691 
       0.447964         242.279         131.778 
       0.454126         236.266           127.9 
       0.460267         231.545          124.08 
       0.466387         227.993         120.346 
        0.47254         223.783         116.726 
       0.478662         222.619         113.311 
       0.484765         214.175         110.102 
       0.490885         211.694         107.066 
       0.497035         207.645         104.183 
       0.503198         204.267          101.43 
       0.509342         202.613         98.7793 
       0.515458         199.235         96.2042 
       0.521598         194.058         93.6757 
       0.527764         192.267         91.2043 
       0.533884         189.476         88.8265 
           0.54         186.432         86.5327 
       0.546137         185.223         84.3187 
       0.552299          181.39         82.1904 
       0.558452         180.124         80.1598 
       0.564573         177.227         78.2227 
       0.570708          173.18           76.35 
       0.576825         170.866         74.5387 
       0.582926         168.179         72.7821 
       0.589034           166.4         71.0724 
       0.595184         164.937         69.4022 
       0.601379         161.593          67.773 
       0.607522         159.727         66.2095 
       0.613639         158.181         64.7034 
       0.619772         155.233         63.2429 
       0.625918         154.102         61.8279 
       0.632068         151.534         60.4589 
       0.638161         150.485          59.146 
         0.6443         148.126         57.8638 
       0.650464         146.838         56.6145 
       0.656582         144.216         55.4094 
       0.662703         144.035         54.2367 
       0.668861         141.612         53.0898 
       0.675024         139.424         51.9745 
       0.681124         138.382         50.9027 
       0.687237         136.577         49.8601 
       0.693381         134.365         48.8434 
       0.699536         133.299         47.8546 
       0.705665         132.013         46.8983 
       0.711789          130.53         45.9696 
       0.717957         130.298         45.0597 
        0.72409         128.302         44.1793 
       0.730186         126.627         43.3272 
       0.736317         125.188         42.4926 
       0.742472         124.106         41.6768 
       0.748622         123.023         40.8831 
        0.75476         121.784         40.1118 
       0.760888         120.573         39.3619 
       0.767043         119.784         38.6285 
       0.773185         118.891         37.9156 
       0.779291         116.665          37.225 
       0.785407          116.15         36.5509 
       0.791564         115.447         35.8895 
       0.797719         112.997         35.2448 
       0.803834         112.575         34.6202 
       0.809972         111.852         34.0085 
       0.816124         110.955         33.4103 
       0.822261         110.242         32.8281 
       0.828378         109.163         32.2615 
       0.834502         108.524         31.7079 
       0.840667          106.97         31.1638 
       0.846816          105.97          30.634 
       0.852925         105.194         30.1199 
       0.859047         104.384         29.6166 
       0.865192         103.244         29.1231 
       0.871341         102.428         28.6407 
       0.877463         101.452         28.1714 
       0.883569         101.235         27.7138 
       0.889708         99.9745         27.2642 
       0.895864         99.1174         26.8233 
       0.902008         98.3397         26.3933 
       0.908149          98.012         25.9729 
       0.914301         96.8566          25.561 
       0.920448         96.1445         25.1585 
       0.926574         95.3522         24.7661 
       0.932687          95.274          24.383 
       0.938823         93.8818         24.0066 
       0.944975         93.3038         23.6373 
       0.951105          92.423         23.2772 
       0.957225         92.1166         22.9252 
       0.963368         90.6491         22.5793 
       0.969511         90.4447         22.2406 
       0.975621         89.7145         21.9107 
       0.981748         89.5128         21.5867 
       0.987916          88.538         21.2672 
        0.99406         87.9066         20.9554 
        1.00019         87.6077         20.6505 
        1.00632         86.6589          20.352 
        1.01246         86.1644         20.0589 
        1.01859         85.7125         19.7721 
        1.02471         84.8095         19.4914 
        1.03085          84.005         19.2151 
        1.03698         83.7689         18.9448 
        1.04314         82.9723         18.6785 
        1.04929         82.6981          18.418 
        1.05541         81.8211         18.1635 
        1.06154          81.641         17.9133 
        1.06769         81.1852         17.6673 
        1.07382         80.4713         17.4269 
        1.07993         80.1671         17.1914 
        1.08607          79.346         16.9594 
        1.09222         79.1553         16.7314 
        1.09836         78.4787         16.5078 
        1.10449         77.8773         16.2887 
        1.11063          77.544         16.0732 
        1.11677         76.8144         15.8618 
         1.1229          76.405         15.6545 
        1.12903         76.1389         15.4508 
        1.13518         75.7927         15.2505 
        1.14131         75.1231         15.0539 
        1.14745         74.8896         14.8609 
        1.15359         74.2372         14.6712 
        1.15973         73.9994         14.4848 
        1.16584         73.3251         14.3024 
        1.17197         72.7689         14.1229 
        1.17811         72.5173          13.946 
        1.18424         72.0445         13.7727 
        1.19038         71.9664         13.6017 
        1.19652         71.4085         13.4338 
        1.20267         70.6431         13.2687 
        1.20881         70.5761         13.1064 
        1.21495         69.7263         12.9471 
        1.22108         69.7325         12.7905 
         1.2272         69.0345         12.6369 
        1.23334         68.5904         12.4854 
        1.23949         68.4538          12.336 
        1.24562         67.8495         12.1896 
        1.25174         67.7319         12.0457 
        1.25789         67.3348         11.9037 
        1.26402          66.518         11.7643 
        1.27014         66.4724         11.6274 
        1.27628         66.1448         11.4923 
        1.28244         65.7902         11.3592 
        1.28858         65.5097         11.2283 
        1.29471         65.0763         11.0997 
        1.30084         64.8665         10.9733 
        1.30697         64.3013         10.8487 
        1.31312         63.9641         10.7258 
        1.31925         63.6796         10.6052 
        1.32537          63.205         10.4866 
        1.33151         62.8342         10.3694 
        1.33765         62.6045          10.254 
        1.34378         62.3312         10.1407 
        1.34992         61.9954          10.029 
        1.35606         61.6293         9.91867 
         1.3622         61.2948         9.81025 
        1.36833         61.0665          9.7037 
        1.37445         60.6732          9.5988 
        1.38059         60.1251         9.49512 
        1.38675         59.8237         9.39273 
        1.39288         59.8271         9.29226 
        1.39901         59.4139          9.1933 
        1.40515         58.9428         9.09556 
         1.4113         58.7588         8.99929 
        1.41742         58.5028         8.90477 
        1.42355         58.2616         8.81144 
         1.4297         58.0065         8.71916 
        1.43585         57.6942         8.62825 
        1.44198         57.2807         8.53898 
        1.44809         57.1168         8.45114 
        1.45423         56.9036         8.36422 
        1.46036         56.4662         8.27867 
        1.46649         56.2134          8.1943 
        1.47263         55.9066         8.11104 
        1.47877         55.5977         8.02897 
        1.48491         55.3393         7.94791 
        1.49104         55.1173         7.86814 
        1.49718         54.8671         7.78941 
        1.50333         54.8225         7.71163 
        1.50947          54.297         7.63507 
         1.5156          54.244         7.55967 
        1.52172         53.8886         7.48529 
        1.52787          53.582         7.41176 
          1.534         53.2817         7.33931 
        1.54013          52.942          7.2679 
        1.54627         52.8342         7.19732 
        1.55241         52.5015         7.12766 
        1.55855         52.2704         7.05903 
        1.56467         52.1182         6.99148 
         1.5708         51.8588         6.92464 
        1.57695         51.6935         6.85856 
        1.58308         51.4046          6.7935 
        1.58922         51.0236         6.72924 
        1.59535         50.9352         6.66583 
         1.6015         50.5436         6.60315 
        1.60764         50.3904         6.54131 
        1.61376         50.1364         6.48042 
        1.61989         49.9885         6.42027 
        1.62604          49.668         6.36074 
        1.63218         49.5288           6.302 
        1.63831         49.1329         6.24414 
        1.64444         48.8818         6.18698 
        1.65059         48.9049         6.13041 
        1.65673          48.476          6.0746 
        1.66285         48.2577         6.01964 
        1.66898         48.1927         5.96535 
        1.67512         47.7565         5.91162 
        1.68127         47.7111          5.8585 
         1.6874         47.4158         5.80616 
        1.69353         47.2419         5.75449 
        1.69967         47.0139         5.70332 
        1.70581         46.7947          5.6528 
        1.71193         46.6186         5.60308 
        1.71806         46.3404         5.55385 
        1.72421          46.313         5.50512 
        1.73035         46.0345         5.45703 
        1.73649          45.774         5.40953 
        1.74262         45.5076         5.36262 
        1.74876         45.3079         5.31625 
        1.75489          45.207         5.27051 
        1.76101         45.0339         5.22533 
        1.76715         44.7132         5.18062 
        1.77329         44.5095         5.13638 
        1.77943           44.35         5.09263 
        1.78557         44.1053         5.04946 
        1.79171         43.9789         5.00678 
        1.79785         43.6634         4.96459 
        1.80399         43.5936         4.92289 
        1.81012         43.3397         4.88173 
        1.81625         43.1963         4.84106 
        1.82239         42.9204         4.80079 
        1.82853         42.7902         4.76099 
        1.83466         42.6023         4.72169 
        1.84078         42.3078         4.68287 
        1.84692         42.2405         4.64442 
        1.85306         42.0075         4.60636 
         1.8592         41.8767         4.56878 
        1.86533         41.6238         4.53164 
        1.87147         41.3631         4.49487 
        1.87761          41.302          4.4585 
        1.88375         41.1028         4.42257 
        1.88988         40.8097         4.38707 
        1.89601         40.7409         4.35194 
        1.90215         40.5111         4.31717 
        1.90829         40.3836          4.2828 
        1.91442         40.2658         4.24879 
        1.92056         40.0691         4.21519 
         1.9267          39.891         4.18192 
        1.93284         39.6531         4.14898 
        1.93897         39.4912         4.11646 
        1.94509         39.4128         4.08436 
        1.95123         39.2045         4.05253 
        1.95737         38.9661           4.021 
        1.96349         38.8615          3.9899 
        1.96964          38.574         3.95903 
        1.97578         38.4073         3.92848 
        1.98192         38.3988         3.89831 
        1.98805         38.1656         3.86845 
        1.99419          38.018         3.83891 
        2.00033         37.8822         3.80966 
        2.00647         37.6889         3.78072 
         2.0126         37.4936         3.75213 
        2.01874         37.3333         3.72379 
        2.02488           37.23         3.69572 
        2.03101         37.1061         3.66799 
        2.03714         36.9204         3.64057 
        2.04328         36.7469         3.61341 
        2.04941         36.5511         3.58654 
        2.05554         36.4285         3.55996 
        2.06167         36.3225         3.53362 
        2.06781         36.1551         3.50754 
        2.07396          36.037         3.48168 
        2.08009         35.7978         3.45613 
        2.08622         35.5687         3.43087 
        2.09237         35.5679         3.40581 
        2.09851         35.4359           3.381 
        2.10464         35.2099         3.35647 
        2.11077         35.0576         3.33221 
        2.11691         34.8923         3.30815 
        2.12305         34.8144         3.28432 
        2.12918         34.6833         3.26078 
        2.13531         34.4454         3.23746 
        2.14145         34.2781         3.21433 
         2.1476         34.1067         3.19139 
        2.15372         33.9974         3.16879 
        2.15985         33.9546         3.14638 
        2.16599         33.7887         3.12413 
        2.17213         33.6316         3.10212 
        2.17827         33.5108         3.08032 
         2.1844         33.2633         3.05876 
        2.19054         33.2021         3.03739 
        2.19666         33.0222         3.01625 
         2.2028         32.9824          2.9953 
        2.20893          32.755         2.97454 
        2.21508         32.7303         2.95395 
        2.22122         32.5272         2.93355 
        2.22736         32.3607         2.91338 
        2.23349           32.29         2.89341 
        2.23962         32.1474         2.87361 
        2.24577         31.9507         2.85399 
         2.2519          31.841         2.83457 
        2.25802         31.7496         2.81536 
        2.26417         31.5923         2.79628 
        2.27031         31.4942         2.77736 
        2.27644         31.3107         2.75867 
        2.28257         31.1871         2.74015 
        2.28872         31.0666         2.72176 
        2.29486         30.9595         2.70355 
        2.30099         30.8062         2.68554 
        2.30712         30.6865         2.66769 
        2.31326         30.6134         2.64997 
         2.3194         30.4076         2.63242 
        2.32553         30.2901         2.61506 
        2.33166         30.2294         2.59786 
         2.3378         30.1164         2.58079 
        2.34394         29.9841         2.56387 
        2.35007         29.8644         2.54713 
        2.35619         29.7017         2.53055 
        2.36233         29.5986         2.51409 
        2.36848         29.5112         2.49773 
        2.37462         29.3639         2.48156 
        2.38075         29.2949         2.46555 
        2.38689          29.119         2.44966 
        2.39303         28.9618         2.43392 
        2.39916         28.8331         2.41833 
        2.40529         28.7517         2.40287 
        2.41143         28.6687         2.38755 
        2.41757         28.5593         2.37234 
         2.4237         28.4169          2.3573 
        2.42983         28.3411         2.34239 
        2.43598          28.233         2.32757 
        2.44211         28.0693         2.31291 
        2.44823         27.9788          2.2984 
        2.45437         27.8346         2.28397 
        2.46052         27.7565         2.26966 
        2.46665          27.629          2.2555 
        2.47279         27.4892         2.24146 
        2.47892         27.4248         2.22753 
        2.48507         27.3168         2.21371 
         2.4912         27.1955         2.20003 
