# k  (h/Mpc)    Pcb(k)  (Mpc/h)^3    Pcb_linear(k)  (Mpc/h)^3
     0.00783031         178.336         180.192 
       0.013688         195.154         196.044 
       0.019231         175.899         176.011 
      0.0249154         142.884         143.021 
      0.0312784         107.553         107.179 
      0.0375637         81.1384         80.7411 
      0.0433917         65.4712         65.2294 
      0.0492413         56.6928          56.503 
      0.0555754          51.751         51.7561 
      0.0619321         48.8993         48.8176 
       0.067871         45.5343         45.6205 
      0.0738098         41.0158         41.0881 
      0.0800417         35.1172         35.1701 
      0.0862327         29.1885         29.1505 
      0.0921407         24.3218         24.2524 
      0.0982031         20.6737         20.6209 
       0.104506         18.4646         18.3683 
       0.110769         17.3675         17.3066 
       0.116806         16.8792         16.8762 
       0.122832         16.5209         16.5082 
       0.129052         15.7604         15.7881 
       0.135211         14.5664         14.5879 
       0.141259         13.0767         13.0621 
       0.147318         11.5058         11.4615 
       0.153489          10.068         10.0319 
       0.159709         9.00278         8.96346 
       0.165845         8.35944         8.30176 
       0.171974         7.96831         7.95021 
       0.178125         7.79072         7.76889 
       0.184229         7.63136         7.60973 
        0.19034         7.35379         7.35661 
       0.196428         6.97574         6.96407 
       0.202534         6.49172         6.45476 
       0.208729         5.91836          5.8941 
       0.214876         5.39497         5.37659 
       0.220989         4.98905         4.95781 
       0.227147         4.67249         4.65323 
        0.23329         4.46927         4.45272 
       0.239377         4.33523         4.31965 
       0.245482         4.21401         4.20772 
       0.251667         4.09665          4.0784 
       0.257832         3.92466         3.91261 
       0.263955         3.72753         3.71156 
       0.270079         3.50933         3.49127 
        0.27624           3.299         3.27345 
       0.282372         3.10717         3.08075 
        0.28843         2.94412         2.92471 
       0.294538         2.82076         2.80199 
       0.300721         2.72997         2.70527 
        0.30691         2.63886         2.62289 
       0.313033         2.55809         2.54348 
       0.319153         2.46286         2.45727 
       0.325316         2.38099         2.36125 
        0.33145         2.27691         2.25873 
       0.337538         2.17391         2.15634 
       0.343633         2.07285         2.05927 
       0.349808         1.98873         1.97123 
       0.355968         1.91388         1.89553 
       0.362074         1.84703         1.83109 
       0.368217         1.78898         1.77402 
       0.374374         1.73188         1.72046 
       0.380519         1.68188          1.6676 
       0.386598         1.63049          1.6141 
       0.392688         1.57735         1.55897 
        0.39888         1.51899         1.50277 
       0.405048         1.46465         1.44825 
       0.411186          1.4133         1.39706 
       0.417313         1.36523         1.35022 
       0.423458         1.32443         1.30741 
       0.429607         1.28215         1.26816 
       0.435692         1.24591         1.23198 
       0.441815         1.21038         1.19703 
       0.447964         1.17878         1.16252 
       0.454126         1.14114         1.12831 
       0.460267         1.10787         1.09461 
       0.466387         1.07336         1.06166 
        0.47254         1.04184         1.02973 
       0.478662         1.01356        0.999602 
       0.484765        0.982389        0.971295 
       0.490885        0.957391        0.944516 
       0.497035        0.934195        0.919082 
       0.503198        0.907852        0.894792 
       0.509342        0.885464        0.871411 
       0.515458        0.861108        0.848694 
       0.521598        0.838666        0.826388 
       0.527764        0.814988        0.804586 
       0.533884        0.797149        0.783609 
           0.54        0.775915        0.763374 
       0.546137        0.756519        0.743842 
       0.552299        0.737733        0.725067 
       0.558452        0.718358        0.707154 
       0.564573        0.702121        0.690065 
       0.570708        0.685299        0.673544 
       0.576825        0.668496        0.657566 
       0.582926        0.654253        0.642069 
       0.589034        0.636704        0.626986 
       0.595184        0.622147        0.612253 
       0.601379        0.608031         0.59788 
       0.607522        0.595373        0.584088 
       0.613639        0.582736        0.570801 
       0.619772        0.567879        0.557916 
       0.625918        0.556158        0.545434 
       0.632068        0.544673        0.533356 
       0.638161        0.532232        0.521775 
         0.6443        0.520845        0.510463 
       0.650464        0.508496        0.499443 
       0.656582        0.498808        0.488811 
       0.662703        0.488422        0.478466 
       0.668861        0.479534        0.468348 
       0.675024        0.468654        0.458509 
       0.681124         0.45822        0.449054 
       0.687237        0.449886        0.439856 
       0.693381         0.44099        0.430887 
       0.699536        0.430537        0.422164 
       0.705665        0.422388        0.413728 
       0.711789        0.415116        0.405535 
       0.717957        0.406141        0.397509 
        0.72409        0.398504        0.389741 
       0.730186        0.390649        0.382225 
       0.736317        0.384582        0.374862 
       0.742472        0.376945        0.367665 
       0.748622        0.369197        0.360663 
        0.75476        0.362087        0.353859 
       0.760888        0.355065        0.347243 
       0.767043        0.350361        0.340773 
       0.773185        0.342853        0.334484 
       0.779291        0.336682        0.328393 
       0.785407        0.330618        0.322446 
       0.791564         0.32511         0.31661 
       0.797719        0.319644        0.310923 
       0.803834        0.314352        0.305413 
       0.809972        0.308295        0.300017 
       0.816124        0.302803        0.294739 
       0.822261        0.297262        0.289603 
       0.828378          0.2926        0.284605 
       0.834502        0.288138        0.279722 
       0.840667        0.282476        0.274921 
       0.846816        0.277862        0.270248 
       0.852925        0.273971        0.265712 
       0.859047        0.269461        0.261272 
       0.865192        0.264414        0.256919 
       0.871341        0.260132        0.252663 
       0.877463        0.256635        0.248523 
       0.883569        0.252058        0.244487 
       0.889708        0.248268         0.24052 
       0.895864        0.244106        0.236631 
       0.902008        0.240155        0.232837 
       0.908149        0.236369        0.229128 
       0.914301        0.232073        0.225495 
       0.920448        0.228716        0.221944 
       0.926574        0.225125        0.218482 
       0.932687         0.22142        0.215102 
       0.938823        0.218805        0.211782 
       0.944975        0.215515        0.208524 
       0.951105        0.212225        0.205347 
       0.957225        0.209511        0.202242 
       0.963368        0.206149        0.199191 
       0.969511        0.202751        0.196203 
       0.975621        0.199839        0.193292 
       0.981748         0.19753        0.190434 
       0.987916        0.194324        0.187615 
        0.99406        0.191398        0.184865 
        1.00019        0.189053        0.182175 
        1.00632        0.185813        0.179542 
        1.01246        0.183124        0.176956 
        1.01859        0.180881        0.174427 
        1.02471        0.178298         0.17195 
        1.03085        0.176263        0.169512 
        1.03698        0.173396        0.167128 
        1.04314        0.171111        0.164779 
        1.04929        0.168574        0.162481 
        1.05541        0.166617        0.160236 
        1.06154        0.164153        0.158028 
        1.06769        0.161779        0.155858 
        1.07382        0.159675        0.153737 
        1.07993        0.157429         0.15166 
        1.08607        0.155859        0.149613 
        1.09222        0.153458        0.147601 
        1.09836        0.151863        0.145629 
        1.10449        0.149923        0.143696 
        1.11063        0.147512        0.141796 
        1.11677        0.145556         0.13993 
         1.1229         0.14384        0.138102 
        1.12903        0.141951        0.136304 
        1.13518        0.140308        0.134537 
        1.14131        0.138431        0.132803 
        1.14745        0.136217          0.1311 
        1.15359        0.134843        0.129427 
        1.15973        0.132935        0.127782 
        1.16584        0.131636        0.126174 
        1.17197        0.129941         0.12459 
        1.17811        0.128674         0.12303 
        1.18424        0.127166          0.1215 
        1.19038         0.12531        0.119992 
        1.19652        0.123584        0.118511 
        1.20267        0.122496        0.117055 
        1.20881        0.120877        0.115623 
        1.21495        0.119669        0.114218 
        1.22108        0.118067        0.112836 
         1.2272        0.116872         0.11148 
        1.23334        0.115272        0.110144 
        1.23949         0.11405        0.108827 
        1.24562        0.112685        0.107535 
        1.25174        0.111495        0.106265 
        1.25789        0.110384        0.105013 
        1.26402        0.108721        0.103783 
        1.27014        0.107618        0.102575 
        1.27628        0.106494        0.101384 
        1.28244        0.105036        0.100209 
        1.28858        0.104042        0.099054 
        1.29471        0.103133         0.09792 
        1.30084        0.101801       0.0968048 
        1.30697        0.100562       0.0957053 
        1.31312       0.0992567       0.0946214 
        1.31925       0.0982807       0.0935576 
        1.32537       0.0973604       0.0925113 
        1.33151       0.0964071       0.0914773 
        1.33765       0.0953422       0.0904597 
        1.34378        0.094079       0.0894596 
        1.34992       0.0931226        0.088474 
        1.35606       0.0921683       0.0875011 
         1.3622       0.0913056       0.0865446 
        1.36833       0.0902129       0.0856047 
        1.37445       0.0890327       0.0846792 
        1.38059        0.088269       0.0837646 
        1.38675       0.0875686       0.0828613 
        1.39288       0.0865986        0.081975 
        1.39901       0.0856442        0.081102 
        1.40515        0.084901       0.0802398 
         1.4113       0.0838173       0.0793904 
        1.41742       0.0830083       0.0785566 
        1.42355       0.0822994       0.0777332 
         1.4297       0.0812807       0.0769192 
        1.43585       0.0805411       0.0761172 
        1.44198       0.0798357       0.0753297 
        1.44809       0.0789114       0.0745548 
        1.45423        0.078169        0.073788 
        1.46036       0.0773711       0.0730333 
        1.46649       0.0767947        0.072289 
        1.47263       0.0758984       0.0715545 
        1.47877         0.07504       0.0708305 
        1.48491       0.0743941       0.0701154 
        1.49104        0.073566       0.0694117 
        1.49718       0.0728075       0.0687171 
        1.50333       0.0723541        0.068031 
        1.50947       0.0715193       0.0673556 
         1.5156       0.0707801       0.0666904 
        1.52172       0.0701703       0.0660342 
        1.52787       0.0694753       0.0653856 
          1.534       0.0687342       0.0647464 
        1.54013        0.068133       0.0641165 
        1.54627       0.0676313       0.0634938 
        1.55241       0.0668306       0.0628793 
        1.55855       0.0662003       0.0622738 
        1.56467       0.0658425        0.061678 
         1.5708       0.0650707       0.0610882 
        1.57695       0.0644605       0.0605053 
        1.58308       0.0638394       0.0599314 
        1.58922       0.0632845       0.0593645 
        1.59535       0.0627246       0.0588051 
         1.6015       0.0620941       0.0582521 
        1.60764        0.061572       0.0577066 
        1.61376       0.0609455       0.0571695 
        1.61989       0.0604897       0.0566388 
        1.62604       0.0599489       0.0561136 
        1.63218       0.0594144       0.0555954 
        1.63831        0.058925        0.055085 
        1.64444       0.0583368       0.0545808 
        1.65059       0.0578558       0.0540817 
        1.65673        0.057364       0.0535894 
        1.66285       0.0569206       0.0531045 
        1.66898       0.0564039       0.0526256 
        1.67512        0.055828       0.0521516 
        1.68127       0.0553371        0.051683 
         1.6874       0.0549729       0.0512212 
        1.69353       0.0543418       0.0507654 
        1.69967        0.054044        0.050314 
        1.70581       0.0534114       0.0498683 
        1.71193        0.053031       0.0494297 
        1.71806       0.0525168       0.0489954 
        1.72421       0.0522502       0.0485655 
        1.73035       0.0516722       0.0481413 
        1.73649       0.0513333       0.0477222 
        1.74262       0.0508678       0.0473084 
        1.74876       0.0504287       0.0468993 
        1.75489       0.0500643       0.0464959 
        1.76101       0.0496011       0.0460973 
        1.76715       0.0491721       0.0457028 
        1.77329       0.0487074       0.0453125 
        1.77943       0.0483439       0.0449266 
        1.78557       0.0480176       0.0445458 
        1.79171       0.0476465       0.0441693 
        1.79785       0.0472373       0.0437971 
        1.80399        0.046844       0.0434292 
        1.81012       0.0464889       0.0430661 
        1.81625       0.0461216       0.0427073 
        1.82239       0.0457335        0.042352 
        1.82853       0.0453705       0.0420009 
        1.83466       0.0449803       0.0416542 
        1.84078       0.0446334       0.0413117 
        1.84692       0.0442299       0.0409726 
        1.85306       0.0440078       0.0406368 
         1.8592       0.0435695       0.0403053 
        1.86533       0.0433082       0.0399777 
        1.87147        0.042898       0.0396533 
        1.87761       0.0426273       0.0393324 
        1.88375       0.0423196       0.0390154 
        1.88988       0.0419419       0.0387023 
        1.89601       0.0416336       0.0383924 
        1.90215       0.0412997       0.0380856 
        1.90829       0.0409097       0.0377824 
        1.91442       0.0407247       0.0374824 
        1.92056       0.0403846        0.037186 
         1.9267        0.040057       0.0368924 
        1.93284       0.0397411       0.0366019 
        1.93897       0.0394611        0.036315 
        1.94509       0.0392254       0.0360319 
        1.95123       0.0388853        0.035751 
        1.95737       0.0386083       0.0354729 
        1.96349       0.0382713       0.0351985 
        1.96964       0.0379911       0.0349262 
        1.97578       0.0377133       0.0346567 
        1.98192       0.0374729       0.0343905 
        1.98805        0.037217       0.0341271 
        1.99419       0.0368966       0.0338665 
        2.00033       0.0365899       0.0336084 
        2.00647       0.0364591       0.0333531 
         2.0126        0.036066       0.0331009 
        2.01874       0.0358917       0.0328509 
        2.02488       0.0356365       0.0326033 
        2.03101       0.0353925       0.0323587 
        2.03714        0.035061       0.0321168 
        2.04328       0.0348894       0.0318771 
        2.04941       0.0345602       0.0316401 
        2.05554       0.0343815       0.0314057 
        2.06167       0.0341921       0.0311733 
        2.06781       0.0338856       0.0309432 
        2.07396       0.0336564       0.0307151 
        2.08009       0.0334273       0.0304897 
        2.08622       0.0331983       0.0302668 
        2.09237       0.0329634       0.0300458 
        2.09851       0.0327354       0.0298268 
        2.10464       0.0325279       0.0296105 
        2.11077       0.0322966       0.0293965 
        2.11691       0.0320588       0.0291842 
        2.12305       0.0318599        0.028974 
        2.12918       0.0316809       0.0287663 
        2.13531       0.0313844       0.0285606 
        2.14145       0.0311456       0.0283565 
         2.1476       0.0309866       0.0281542 
        2.15372       0.0308203       0.0279548 
        2.15985       0.0305442       0.0277571 
        2.16599       0.0303622       0.0275608 
        2.17213       0.0301769       0.0273666 
        2.17827       0.0299403       0.0271744 
         2.1844       0.0298003       0.0269841 
        2.19054       0.0295783       0.0267956 
        2.19666       0.0293719       0.0266092 
         2.2028       0.0291604       0.0264243 
        2.20893       0.0290331       0.0262412 
        2.21508       0.0288189       0.0260595 
        2.22122       0.0285789       0.0258795 
        2.22736       0.0284409       0.0257016 
        2.23349       0.0282398       0.0255254 
        2.23962       0.0281294       0.0253508 
        2.24577       0.0279037       0.0251777 
         2.2519       0.0277207       0.0250064 
        2.25802       0.0275312       0.0248369 
        2.26417       0.0273584       0.0246686 
        2.27031       0.0271803       0.0245017 
        2.27644       0.0269916       0.0243368 
        2.28257       0.0268451       0.0241734 
        2.28872        0.026677       0.0240112 
        2.29486        0.026556       0.0238505 
        2.30099       0.0263383       0.0236917 
        2.30712       0.0261365       0.0235342 
        2.31326       0.0259923       0.0233778 
         2.3194       0.0258863        0.023223 
        2.32553       0.0256834       0.0230698 
        2.33166       0.0255857       0.0229181 
         2.3378       0.0253881       0.0227676 
        2.34394       0.0252137       0.0226183 
        2.35007       0.0250501       0.0224706 
        2.35619        0.024865       0.0223244 
        2.36233       0.0247827       0.0221791 
        2.36848       0.0246823       0.0220349 
        2.37462       0.0244769       0.0218922 
        2.38075       0.0243208       0.0217509 
        2.38689       0.0241848       0.0216108 
        2.39303       0.0240578       0.0214719 
        2.39916       0.0238795       0.0213343 
        2.40529       0.0237703        0.021198 
        2.41143       0.0235933       0.0210628 
        2.41757       0.0234693       0.0209287 
         2.4237       0.0233564        0.020796 
        2.42983       0.0232232       0.0206645 
        2.43598       0.0230975       0.0205337 
        2.44211       0.0229127       0.0204043 
        2.44823       0.0228001       0.0202764 
        2.45437       0.0226704       0.0201491 
        2.46052       0.0225337       0.0200229 
        2.46665       0.0223738       0.0198979 
        2.47279       0.0222635        0.019774 
        2.47892       0.0221003       0.0196512 
        2.48507       0.0219865       0.0195292 
         2.4912       0.0218738       0.0194085 
