# k  (h/Mpc)    Pcb(k)  (Mpc/h)^3    Pcb_linear(k)  (Mpc/h)^3
     0.00783031         10227.6         10302.8 
       0.013688         10828.8         11049.2 
       0.019231         9737.75         9834.29 
      0.0249154          7991.3         7930.35 
      0.0312784         5908.51         5896.01 
      0.0375637         4401.65         4410.52 
      0.0433917         3571.22         3544.46 
      0.0492413         3066.78         3058.62 
      0.0555754          2821.3         2793.66 
      0.0619321         2591.02         2628.56 
       0.067871         2445.76         2449.89 
      0.0738098         2206.31         2199.19 
      0.0800417         1895.93         1874.69 
      0.0862327         1565.36         1547.14 
      0.0921407         1311.41         1282.53 
      0.0982031         1131.81         1087.81 
       0.104506         992.603         968.125 
       0.110769         938.407          912.41 
       0.116806         920.735         889.979 
       0.122832         887.416         870.079 
       0.129052         846.734         830.515 
       0.135211         793.468         764.928 
       0.141259         705.901         682.261 
       0.147318          620.27         596.346 
       0.153489           551.1         520.437 
       0.159709         504.988          464.46 
       0.165845         459.924         430.454 
       0.171974         451.849         412.912 
       0.178125         438.269         404.099 
       0.184229         418.593         395.945 
        0.19034         408.257         382.273 
       0.196428         389.237         360.864 
       0.202534         353.812         333.215 
       0.208729         336.215         303.089 
       0.214876         312.449         275.661 
       0.220989         286.256         253.852 
       0.227147         275.798         238.346 
        0.23329         264.236         228.428 
       0.239377         259.926         221.988 
       0.245482          248.28         216.453 
       0.251667         238.374         209.726 
       0.257832         234.075         200.848 
       0.263955         218.735         190.001 
       0.270079          206.71         178.161 
        0.27624         196.069         166.593 
       0.282372         188.343         156.518 
        0.28843         184.653         148.533 
       0.294538         175.054         142.389 
       0.300721         168.558         137.635 
        0.30691          165.55         133.569 
       0.313033         157.906         129.552 
       0.319153         154.861         125.062 
       0.325316         149.735         119.979 
        0.33145         144.212         114.525 
       0.337538         137.951         109.107 
       0.343633         133.248         104.021 
       0.349808         128.535         99.4887 
       0.355968         125.178          95.651 
       0.362074         121.554         92.4341 
       0.368217         118.932         89.5973 
       0.374374          115.56         86.9099 
       0.380519         110.683         84.2199 
       0.386598         108.341         81.4487 
       0.392688         104.466         78.5695 
        0.39888         102.525         75.6304 
       0.405048         99.5872         72.7884 
       0.411186         97.6695         70.1485 
       0.417313         95.0939         67.7599 
       0.423458          92.455         65.5966 
       0.429607         89.9277         63.6299 
       0.435692          88.542         61.8166 
       0.441815         85.8072         60.0519 
       0.447964         83.0661         58.2941 
       0.454126         81.4839         56.5408 
       0.460267         80.5312         54.8028 
       0.466387         78.0364         53.1037 
        0.47254         77.1095         51.4638 
       0.478662         74.4144         49.9276 
       0.484765         72.9905         48.4915 
       0.490885         71.1788         47.1405 
       0.497035         70.4044         45.8617 
       0.503198         68.9897         44.6404 
       0.509342         67.1553         43.4593 
       0.515458          65.801          42.306 
       0.521598           64.01         41.1706 
       0.527764         63.3607         40.0598 
       0.533884         62.6578         38.9914 
           0.54         60.8562         37.9624 
       0.546137          59.316         36.9721 
       0.552299         58.0531         36.0239 
       0.558452         57.0918         35.1226 
       0.564573         56.6612         34.2635 
       0.570708         54.9812         33.4323 
       0.576825         54.3368         32.6266 
       0.582926         53.6171         31.8437 
       0.589034         52.5399         31.0813 
       0.595184         51.7037         30.3366 
       0.601379         50.6093         29.6108 
       0.607522         49.3307          28.915 
       0.613639         48.9596         28.2454 
       0.619772         47.8636         27.5968 
       0.625918         47.5377         26.9692 
       0.632068         46.4221         26.3626 
       0.638161          45.749         25.7812 
         0.6443         45.3531         25.2134 
       0.650464          44.165         24.6602 
       0.656582         43.9631         24.1262 
       0.662703         43.2444         23.6066 
       0.668861          42.285         23.0983 
       0.675024         42.0693         22.6041 
       0.681124         41.3771         22.1296 
       0.687237         40.7145         21.6683 
       0.693381          39.975         21.2189 
       0.699536         39.6173         20.7822 
       0.705665         39.0624         20.3601 
       0.711789         38.4141         19.9503 
       0.717957         37.8152          19.549 
        0.72409         37.3375         19.1606 
       0.730186         37.0391         18.7848 
       0.736317         36.4265         18.4168 
       0.742472         35.8414         18.0571 
       0.748622         35.3166         17.7072 
        0.75476         34.9991         17.3673 
       0.760888         34.7327         17.0369 
       0.767043         33.9724         16.7139 
       0.773185         33.4161         16.4002 
       0.779291         33.1044         16.0963 
       0.785407         32.7801         15.7998 
       0.791564         32.5604          15.509 
       0.797719         31.8422         15.2257 
       0.803834          31.689         14.9512 
       0.809972         31.3111         14.6825 
       0.816124         30.8516         14.4198 
       0.822261           30.39         14.1642 
       0.828378           30.26         13.9156 
       0.834502         29.8945         13.6727 
       0.840667         29.5684         13.4341 
       0.846816         29.2227         13.2018 
       0.852925         28.8646         12.9764 
       0.859047         28.6698         12.7559 
       0.865192         28.2499         12.5397 
       0.871341         27.9574         12.3284 
       0.877463         27.5783         12.1229 
       0.883569         27.5018         11.9226 
       0.889708         27.1254         11.7259 
       0.895864         26.8567          11.533 
       0.902008         26.5908         11.3449 
       0.908149         26.1815         11.1612 
       0.914301          25.969         10.9811 
       0.920448         25.8784         10.8053 
       0.926574         25.4601         10.6339 
       0.932687         25.1906         10.4665 
       0.938823         24.8992         10.3022 
       0.944975          24.621         10.1411 
       0.951105         24.4457         9.98391 
       0.957225         24.2239         9.83037 
       0.963368           24.02         9.67953 
       0.969511         23.7619         9.53186 
       0.975621         23.5406         9.38806 
       0.981748         23.3338         9.24686 
       0.987916         23.0678         9.10767 
        0.99406         22.8934         8.97186 
        1.00019         22.6505          8.8391 
        1.00632         22.4966         8.70914 
        1.01246         22.2724         8.58159 
        1.01859         22.0713         8.45681 
        1.02471         21.8847         8.33466 
        1.03085         21.6828          8.2145 
        1.03698         21.5731         8.09695 
        1.04314         21.3433         7.98121 
        1.04929         21.0589         7.86799 
        1.05541         21.0168         7.75742 
        1.06154         20.7699         7.64869 
        1.06769         20.5561         7.54188 
        1.07382         20.3841         7.43746 
        1.07993         20.2818         7.33525 
        1.08607         20.0536         7.23453 
        1.09222         19.9205         7.13561 
        1.09836         19.7475         7.03864 
        1.10449         19.6182         6.94359 
        1.11063         19.4312         6.85018 
        1.11677         19.3701         6.75852 
         1.1229         19.1528         6.66869 
        1.12903         18.9827         6.58042 
        1.13518          18.912         6.49366 
        1.14131         18.7342         6.40852 
        1.14745         18.5815         6.32494 
        1.15359         18.3386         6.24284 
        1.15973         18.3199         6.16216 
        1.16584         18.1293         6.08327 
        1.17197         17.9714         6.00564 
        1.17811         17.8221         5.92912 
        1.18424         17.6486         5.85416 
        1.19038         17.5086         5.78028 
        1.19652         17.4191          5.7077 
        1.20267         17.2923         5.63636 
        1.20881         17.1557         5.56626 
        1.21495         17.1195         5.49745 
        1.22108         17.0003         5.42982 
         1.2272         16.7908         5.36348 
        1.23334         16.7297          5.2981 
        1.23949         16.6034         5.23364 
        1.24562         16.4912         5.17044 
        1.25174          16.372         5.10838 
        1.25789         16.2235         5.04714 
        1.26402         16.1479         4.98701 
        1.27014         16.0408         4.92801 
        1.27628         15.9154         4.86978 
        1.28244         15.9129         4.81237 
        1.28858         15.7027         4.75597 
        1.29471         15.5797         4.70059 
        1.30084         15.4768         4.64614 
        1.30697         15.4027         4.59247 
        1.31312         15.3068         4.53956 
        1.31925         15.1853         4.48765 
        1.32537         15.0459          4.4366 
        1.33151         14.9563         4.38616 
        1.33765          14.929         4.33654 
        1.34378         14.8393         4.28777 
        1.34992         14.6872         4.23972 
        1.35606         14.5467          4.1923 
         1.3622         14.5095         4.14569 
        1.36833         14.4527         4.09989 
        1.37445         14.3306         4.05481 
        1.38059          14.201         4.01027 
        1.38675         14.1916         3.96629 
        1.39288         14.0643         3.92313 
        1.39901         13.9475         3.88064 
        1.40515         13.8698         3.83869 
         1.4113         13.8228         3.79736 
        1.41742         13.7256          3.7568 
        1.42355         13.5952         3.71676 
         1.4297         13.5721         3.67718 
        1.43585         13.4898         3.63818 
        1.44198         13.4208          3.5999 
        1.44809         13.3083         3.56225 
        1.45423         13.2569         3.52499 
        1.46036         13.1843         3.48832 
        1.46649         13.0986         3.45217 
        1.47263         13.0218          3.4165 
        1.47877         12.9116         3.38134 
        1.48491         12.8531         3.34662 
        1.49104         12.7823         3.31246 
        1.49718         12.7621         3.27875 
        1.50333         12.6776         3.24546 
        1.50947          12.533         3.21269 
         1.5156         12.5359         3.18042 
        1.52172         12.4696         3.14859 
        1.52787         12.4065         3.11713 
          1.534         12.3053         3.08614 
        1.54013         12.2865          3.0556 
        1.54627         12.1855         3.02542 
        1.55241         12.1184         2.99564 
        1.55855         12.0418          2.9663 
        1.56467         11.9546         2.93743 
         1.5708         11.9514         2.90886 
        1.57695         11.8457         2.88063 
        1.58308         11.7796         2.85284 
        1.58922         11.7299         2.82539 
        1.59535         11.6761         2.79831 
         1.6015         11.6273         2.77155 
        1.60764         11.5449         2.74515 
        1.61376         11.4783         2.71916 
        1.61989         11.4114         2.69349 
        1.62604         11.3523         2.66809 
        1.63218         11.2586         2.64304 
        1.63831         11.2312         2.61836 
        1.64444         11.1944         2.59398 
        1.65059         11.1239         2.56986 
        1.65673         11.0706         2.54607 
        1.66285         11.0128         2.52265 
        1.66898         10.9616         2.49951 
        1.67512         10.9136         2.47661 
        1.68127         10.8658         2.45398 
         1.6874         10.8176         2.43168 
        1.69353         10.7341         2.40968 
        1.69967         10.6642         2.38789 
        1.70581         10.6544         2.36638 
        1.71193         10.5881         2.34521 
        1.71806         10.5312         2.32426 
        1.72421         10.4992         2.30352 
        1.73035          10.435         2.28305 
        1.73649         10.3464         2.26284 
        1.74262          10.344         2.24288 
        1.74876         10.3057         2.22316 
        1.75489         10.2156         2.20371 
        1.76101         10.1885         2.18449 
        1.76715         10.1041         2.16548 
        1.77329         10.0853         2.14667 
        1.77943         10.0459         2.12808 
        1.78557         10.0135         2.10973 
        1.79171         9.94131         2.09159 
        1.79785         9.89052         2.07367 
        1.80399         9.83203         2.05595 
        1.81012         9.80127         2.03847 
        1.81625         9.74349         2.02119 
        1.82239         9.71148         2.00409 
        1.82853         9.66558          1.9872 
        1.83466         9.61868         1.97051 
        1.84078          9.5691         1.95404 
        1.84692         9.52423         1.93772 
        1.85306         9.50465         1.92157 
         1.8592         9.46372         1.90563 
        1.86533         9.42943         1.88987 
        1.87147         9.36162         1.87428 
        1.87761         9.33175         1.85885 
        1.88375         9.28479         1.84362 
        1.88988         9.23573         1.82857 
        1.89601         9.20579         1.81368 
        1.90215         9.15698         1.79894 
        1.90829         9.12559         1.78438 
        1.91442         9.06729         1.76997 
        1.92056         9.04078         1.75573 
         1.9267         9.00316         1.74164 
        1.93284         8.97749         1.72769 
        1.93897         8.91769         1.71392 
        1.94509         8.88998         1.70033 
        1.95123         8.83014         1.68685 
        1.95737         8.78351         1.67351 
        1.96349         8.77177         1.66034 
        1.96964         8.74279         1.64728 
        1.97578         8.70868         1.63435 
        1.98192         8.65452         1.62159 
        1.98805         8.62476         1.60896 
        1.99419         8.58712         1.59646 
        2.00033         8.54145         1.58409 
        2.00647         8.50585         1.57185 
         2.0126         8.46401         1.55976 
        2.01874         8.43137         1.54778 
        2.02488         8.39351         1.53592 
        2.03101         8.36853          1.5242 
        2.03714         8.32928         1.51261 
        2.04328         8.29614         1.50113 
        2.04941         8.25404         1.48978 
        2.05554         8.23951         1.47855 
        2.06167         8.20605         1.46742 
        2.06781         8.18548         1.45641 
        2.07396         8.13894         1.44549 
        2.08009         8.10452          1.4347 
        2.08622         8.06725         1.42403 
        2.09237         8.03332         1.41346 
        2.09851         7.99471         1.40298 
        2.10464         7.97533         1.39263 
        2.11077         7.94091          1.3824 
        2.11691         7.90472         1.37224 
        2.12305         7.86058         1.36219 
        2.12918         7.83039         1.35226 
        2.13531         7.81248         1.34243 
        2.14145         7.77739         1.33267 
         2.1476         7.73907           1.323 
        2.15372         7.73271         1.31347 
        2.15985         7.68695         1.30402 
        2.16599         7.65714         1.29465 
        2.17213         7.63127         1.28537 
        2.17827         7.59744         1.27618 
         2.1844         7.56453          1.2671 
        2.19054         7.55713          1.2581 
        2.19666         7.51552         1.24919 
         2.2028         7.48356         1.24037 
        2.20893         7.44893         1.23162 
        2.21508          7.4229         1.22295 
        2.22122         7.39611         1.21436 
        2.22736         7.36181         1.20588 
        2.23349         7.34146         1.19747 
        2.23962         7.31238         1.18914 
        2.24577         7.29708         1.18088 
         2.2519         7.25124         1.17271 
        2.25802         7.22759         1.16463 
        2.26417         7.22641          1.1566 
        2.27031          7.1736         1.14864 
        2.27644         7.15483         1.14078 
        2.28257         7.12607         1.13299 
        2.28872         7.10043         1.12526 
        2.29486         7.08735          1.1176 
        2.30099         7.04923         1.11003 
        2.30712         7.01797         1.10253 
        2.31326         6.99585         1.09508 
         2.3194         6.97227          1.0877 
        2.32553         6.93458         1.08041 
        2.33166         6.90285         1.07318 
         2.3378         6.90145         1.06601 
        2.34394         6.86288         1.05891 
        2.35007         6.84263         1.05187 
        2.35619         6.82005         1.04491 
        2.36233         6.78764           1.038 
        2.36848         6.75789         1.03113 
        2.37462         6.73528         1.02434 
        2.38075         6.70261         1.01762 
        2.38689         6.69569         1.01095 
        2.39303         6.66283         1.00434 
        2.39916         6.63987          0.9978 
        2.40529         6.61515        0.991317 
        2.41143         6.59579        0.984886 
        2.41757         6.55745        0.978509 
         2.4237         6.54684        0.972199 
        2.42983         6.51919        0.965946 
        2.43598         6.50199        0.959731 
        2.44211         6.47704        0.953581 
        2.44823         6.44854        0.947497 
        2.45437         6.44014         0.94145 
        2.46052         6.40313        0.935451 
        2.46665         6.39109        0.929514 
        2.47279         6.36696         0.92363 
        2.47892         6.34529        0.917793 
        2.48507         6.32069        0.912001 
         2.4912         6.28734        0.906269 
