# k  (h/Mpc)    Pcb(k)  (Mpc/h)^3    Pcb_linear(k)  (Mpc/h)^3
     0.00783031         10364.5         10501.7 
       0.013688         13134.3         13047.1 
       0.019231         13244.2         13223.3 
      0.0249154         11987.9         12195.4 
      0.0312784         10422.7         10509.2 
      0.0375637         8919.93          8911.8 
      0.0433917          7644.8         7749.09 
      0.0492413         6891.52         6925.27 
      0.0555754         6176.72         6331.05 
      0.0619321         5912.44         5898.91 
       0.067871         5397.38         5520.26 
      0.0738098          4979.9         5094.65 
      0.0800417         4443.57         4585.38 
      0.0862327         3982.17         4055.73 
      0.0921407         3579.11          3584.3 
      0.0982031         3166.46         3181.11 
       0.104506          2939.7         2869.57 
       0.110769          2720.4         2660.18 
       0.116806         2563.41         2524.85 
       0.122832         2460.82         2419.65 
       0.129052         2301.07         2308.97 
       0.135211         2177.82         2176.66 
       0.141259         2063.65         2021.86 
       0.147318         1921.55         1853.53 
       0.153489         1746.93         1686.93 
       0.159709         1634.32         1541.11 
       0.165845         1556.84          1428.2 
       0.171974         1465.83         1346.25 
       0.178125         1400.37         1287.81 
       0.184229         1349.16         1242.51 
        0.19034         1270.38         1198.81 
       0.196428         1246.27         1149.11 
       0.202534         1200.39         1090.31 
       0.208729         1135.77         1023.77 
       0.214876         1073.84         956.394 
       0.220989         1033.31         894.082 
       0.227147         979.884         840.427 
        0.23329         939.559         797.604 
       0.239377         920.512         764.624 
       0.245482         861.724         738.024 
       0.251667         855.843          713.89 
       0.257832         824.629         689.353 
       0.263955         797.115         662.642 
       0.270079         767.318         633.355 
        0.27624         756.776         602.563 
       0.282372         724.219          572.48 
        0.28843         708.059         545.082 
       0.294538         672.686         520.928 
       0.300721         668.936         500.231 
        0.30691         639.089         482.726 
       0.313033         626.752         467.411 
       0.319153         609.101         452.931 
       0.325316          591.11         438.194 
        0.33145          574.48         422.957 
       0.337538         566.397         407.295 
       0.343633         548.708         391.558 
       0.349808          530.04         376.157 
       0.355968         525.426         361.863 
       0.362074         515.961         349.076 
       0.368217         501.603         337.562 
       0.374374         481.068         327.175 
       0.380519         478.129          317.55 
       0.386598         466.086         308.387 
       0.392688         463.277         299.309 
        0.39888         449.868         290.022 
       0.405048         440.718         280.787 
       0.411186          432.85         271.752 
       0.417313         424.681         263.057 
       0.423458         416.836         254.841 
       0.429607         408.973         247.191 
       0.435692         399.021         240.151 
       0.441815         395.922         233.538 
       0.447964         387.792         227.241 
       0.454126         376.868         221.137 
       0.460267         371.317         215.182 
       0.466387         367.064         209.353 
        0.47254         359.563         203.587 
       0.478662         358.548         197.989 
       0.484765         346.959         192.612 
       0.490885         343.298         187.466 
       0.497035         337.458         182.547 
       0.503198         331.512         177.864 
       0.509342          328.87         173.421 
       0.515458         325.023          169.18 
       0.521598         318.246         165.059 
       0.527764         312.971         161.022 
       0.533884         310.373         157.113 
           0.54         305.956         153.309 
       0.546137         304.622         149.602 
       0.552299         298.255         145.996 
       0.558452         296.113         142.522 
       0.564573         291.525         139.199 
       0.570708         286.173         136.002 
       0.576825         281.646         132.934 
       0.582926         279.082         129.977 
       0.589034         276.318         127.103 
       0.595184         273.541         124.286 
       0.601379         270.421         121.527 
       0.607522         265.753         118.867 
       0.613639         264.409         116.296 
       0.619772         258.345         113.794 
       0.625918         257.154         111.362 
       0.632068         253.383         109.003 
       0.638161         252.277         106.738 
         0.6443         248.072         104.526 
       0.650464         245.705         102.374 
       0.656582          244.01         100.301 
       0.662703         242.241         98.2846 
       0.668861         237.948         96.3112 
       0.675024         235.268         94.3873 
       0.681124         234.274         92.5326 
       0.687237         231.174         90.7228 
       0.693381         227.738         88.9527 
       0.699536         226.029         87.2278 
       0.705665         224.589         85.5583 
       0.711789         221.775         83.9365 
       0.717957         220.694         82.3476 
        0.72409         218.109           80.81 
       0.730186         215.471         79.3217 
       0.736317         213.327         77.8628 
       0.742472         212.273         76.4348 
       0.748622          210.42         75.0433 
        0.75476         208.689         73.6891 
       0.760888          205.88         72.3701 
       0.767043         205.627         71.0782 
       0.773185         203.217         69.8207 
       0.779291         199.571         68.6013 
       0.785407         199.092         67.4098 
       0.791564         197.196         66.2397 
       0.797719         194.692         65.0985 
       0.803834         193.717         63.9918 
       0.809972         192.227         62.9073 
       0.816124         192.036         61.8458 
       0.822261         189.362         60.8119 
       0.828378         187.723         59.8049 
       0.834502         187.463           58.82 
       0.840667         184.537          57.851 
       0.846816         183.154         56.9067 
       0.852925         182.388         55.9896 
       0.859047         180.474         55.0909 
       0.865192         178.958         54.2092 
       0.871341         177.332         53.3463 
       0.877463          176.09         52.5063 
       0.883569         175.272         51.6866 
       0.889708         173.635         50.8805 
       0.895864         171.589         50.0895 
       0.902008         170.899         49.3172 
       0.908149         170.201         48.5618 
       0.914301         168.197         47.8211 
       0.920448         166.948         47.0967 
       0.926574         166.075           46.39 
       0.932687         165.693         45.6993 
       0.938823         163.538         45.0204 
       0.944975         162.041         44.3538 
       0.951105         161.454         43.7031 
       0.957225         159.745         43.0668 
       0.963368         158.044          42.441 
       0.969511         157.646         41.8277 
       0.975621          156.63           41.23 
       0.981748         156.154         40.6424 
       0.987916         154.334         40.0627 
        0.99406          153.21         39.4966 
        1.00019         152.965         38.9426 
        1.00632         151.481         38.3998 
        1.01246         150.575         37.8665 
        1.01859         149.594         37.3444 
        1.02471         148.384         36.8328 
        1.03085          146.87          36.329 
        1.03698         146.289         35.8358 
        1.04314         145.012         35.3498 
        1.04929         144.073         34.8739 
        1.05541         143.531         34.4088 
        1.06154         142.506         33.9511 
        1.06769         142.373         33.5011 
        1.07382         141.128         33.0607 
        1.07993         139.922         32.6293 
        1.08607         139.048         32.2039 
        1.09222         138.524         31.7857 
        1.09836         137.289         31.3755 
        1.10449         136.151          30.973 
        1.11063          135.22         30.5772 
        1.11677         134.943         30.1884 
         1.1229         133.542         29.8072 
        1.12903         132.857         29.4323 
        1.13518          132.71         29.0635 
        1.14131         131.315         28.7013 
        1.14745          130.76         28.3455 
        1.15359         129.839         27.9957 
        1.15973         129.423         27.6517 
        1.16584         128.044         27.3151 
        1.17197         127.509         26.9836 
        1.17811         126.811         26.6567 
        1.18424         126.152         26.3361 
        1.19038         125.689         26.0199 
        1.19652         124.766         25.7091 
        1.20267         123.957         25.4033 
        1.20881         123.013         25.1026 
        1.21495         122.431         24.8073 
        1.22108         121.848         24.5168 
         1.2272         120.723         24.2317 
        1.23334         120.249         23.9504 
        1.23949         119.185          23.673 
        1.24562         118.792         23.4008 
        1.25174         117.699         23.1332 
        1.25789         117.295          22.869 
        1.26402         116.626         22.6095 
        1.27014          115.91         22.3546 
        1.27628         115.364          22.103 
        1.28244         114.762         21.8547 
        1.28858         114.365         21.6106 
        1.29471         113.135         21.3708 
        1.30084         112.775         21.1348 
        1.30697         112.029         20.9021 
        1.31312         111.671         20.6726 
        1.31925         110.686         20.4473 
        1.32537         110.275         20.2255 
        1.33151         109.211         20.0063 
        1.33765         108.883         19.7905 
        1.34378          108.21         19.5783 
        1.34992             108          19.369 
        1.35606         107.235         19.1624 
         1.3622         106.359         18.9592 
        1.36833         105.981         18.7594 
        1.37445         105.259         18.5627 
        1.38059         104.787         18.3681 
        1.38675         104.012         18.1759 
        1.39288         103.642         17.9873 
        1.39901          103.25         17.8014 
        1.40515         102.485         17.6177 
         1.4113         101.713         17.4367 
        1.41742         101.566         17.2589 
        1.42355         100.754         17.0833 
         1.4297          100.27         16.9096 
        1.43585         99.4806         16.7384 
        1.44198         99.2125         16.5702 
        1.44809         98.5304         16.4047 
        1.45423         97.9371         16.2408 
        1.46036         97.7354         16.0795 
        1.46649         97.0561         15.9203 
        1.47263         96.4938         15.7632 
        1.47877          96.248         15.6082 
        1.48491         95.3304         15.4551 
        1.49104           95.08         15.3044 
        1.49718         94.3852         15.1556 
        1.50333         93.9537         15.0085 
        1.50947         93.4794         14.8637 
         1.5156         92.9513         14.7211 
        1.52172         92.3897         14.5803 
        1.52787         92.1292          14.441 
          1.534         91.4751         14.3038 
        1.54013         90.9041         14.1685 
        1.54627         90.5771         14.0347 
        1.55241         90.0042         13.9026 
        1.55855         89.7009         13.7724 
        1.56467         89.1919         13.6442 
         1.5708         88.6306         13.5174 
        1.57695          88.502         13.3919 
        1.58308         87.5507         13.2683 
        1.58922         87.4992         13.1462 
        1.59535          87.027         13.0257 
         1.6015         86.4149         12.9066 
        1.60764          86.005          12.789 
        1.61376         85.7352         12.6732 
        1.61989         85.1158         12.5587 
        1.62604         84.8668         12.4454 
        1.63218         84.4002         12.3336 
        1.63831         83.6767         12.2234 
        1.64444         83.4243         12.1145 
        1.65059          82.907         12.0067 
        1.65673         82.3522         11.9003 
        1.66285         82.1258         11.7955 
        1.66898         81.5918         11.6919 
        1.67512         81.1557         11.5894 
        1.68127         80.8012          11.488 
         1.6874          80.402         11.3881 
        1.69353         79.9646         11.2894 
        1.69967         79.4334         11.1917 
        1.70581         79.2878         11.0951 
        1.71193         79.0023         11.0001 
        1.71806         78.3094          10.906 
        1.72421         77.9689         10.8128 
        1.73035         77.5712         10.7208 
        1.73649         77.1997         10.6299 
        1.74262         76.8335         10.5401 
        1.74876         76.4878         10.4513 
        1.75489         75.8876         10.3637 
        1.76101         75.7089         10.2772 
        1.76715         75.2079         10.1915 
        1.77329          74.954         10.1067 
        1.77943         74.3774         10.0228 
        1.78557         74.2408         9.93999 
        1.79171         73.7127         9.85811 
        1.79785         73.3932         9.77714 
        1.80399         73.1177          9.6971 
        1.81012         72.8229         9.61806 
        1.81625         72.2322         9.53994 
        1.82239          71.966         9.46258 
        1.82853         71.6814         9.38611 
        1.83466         71.2797         9.31056 
        1.84078         70.9962         9.23593 
        1.84692         70.4284           9.162 
        1.85306         70.1466         9.08878 
         1.8592         69.7019         9.01649 
        1.86533         69.4583         8.94502 
        1.87147         68.9852         8.87425 
        1.87761         68.7452         8.80421 
        1.88375         68.3806         8.73501 
        1.88988         68.1434         8.66664 
        1.89601         67.6919         8.59896 
        1.90215         67.3956         8.53195 
        1.90829         67.1679         8.46568 
        1.91442         66.7537         8.40012 
        1.92056         66.2472         8.33531 
         1.9267         66.1162         8.27112 
        1.93284         65.6486         8.20756 
        1.93897         65.2954          8.1448 
        1.94509         64.9989         8.08283 
        1.95123         64.7196         8.02135 
        1.95737         64.5203         7.96047 
        1.96349         63.9991         7.90038 
        1.96964         63.8428         7.84073 
        1.97578         63.5434         7.78168 
        1.98192         63.1874         7.72335 
        1.98805         63.0179         7.66562 
        1.99419         62.5003         7.60848 
        2.00033         62.2516         7.55189 
        2.00647         62.0206         7.49589 
         2.0126         61.5143         7.44056 
        2.01874         61.2817          7.3857 
        2.02488         61.0973         7.33135 
        2.03101         60.8049         7.27765 
        2.03714         60.4198         7.22454 
        2.04328         60.2236          7.1719 
        2.04941         59.8365         7.11982 
        2.05554         59.5421          7.0683 
        2.06167         59.2693         7.01723 
        2.06781          59.031         6.96665 
        2.07396         58.6663          6.9165 
        2.08009         58.4744         6.86692 
        2.08622         58.1813          6.8179 
        2.09237         57.8057         6.76925 
        2.09851         57.6757         6.72108 
        2.10464         57.2784         6.67345 
        2.11077         56.9647         6.62634 
        2.11691         56.7098         6.57959 
        2.12305         56.4865         6.53328 
        2.12918         56.2024         6.48753 
        2.13531         55.8755         6.44222 
        2.14145          55.623         6.39724 
         2.1476         55.4303         6.35263 
        2.15372          55.122         6.30868 
        2.15985         54.8155          6.2651 
        2.16599         54.5477          6.2218 
        2.17213         54.3505         6.17896 
        2.17827         54.0556         6.13654 
         2.1844         53.7394         6.09455 
        2.19054         53.4461         6.05294 
        2.19666         53.2239         6.01178 
         2.2028         53.1106         5.97096 
        2.20893         52.8648         5.93051 
        2.21508         52.5385         5.89038 
        2.22122         52.3083         5.85061 
        2.22736         52.0988          5.8113 
        2.23349         51.8568         5.77235 
        2.23962         51.4735         5.73374 
        2.24577         51.2156         5.69545 
         2.2519         50.9279         5.65757 
        2.25802          50.857         5.62009 
        2.26417         50.5156         5.58285 
        2.27031         50.3441          5.5459 
        2.27644         50.0866         5.50941 
        2.28257         49.8047         5.47324 
        2.28872         49.5113         5.43733 
        2.29486          49.374         5.40175 
        2.30099           49.16         5.36656 
        2.30712         48.9132         5.33167 
        2.31326         48.6129         5.29704 
         2.3194         48.3641         5.26273 
        2.32553         48.1279         5.22878 
        2.33166         47.9377         5.19515 
         2.3378         47.6643         5.16176 
        2.34394         47.3807         5.12866 
        2.35007         47.1367          5.0959 
        2.35619         47.0083         5.06346 
        2.36233         46.9075         5.03123 
        2.36848         46.5408         4.99922 
        2.37462         46.3445         4.96755 
        2.38075         46.1399         4.93618 
        2.38689         45.9633         4.90506 
        2.39303         45.7352         4.87422 
        2.39916         45.5258         4.84367 
        2.40529         45.3045         4.81338 
        2.41143         45.1026         4.78334 
        2.41757         44.8393         4.75353 
         2.4237         44.7294         4.72404 
        2.42983         44.4671          4.6948 
        2.43598         44.2034         4.66573 
        2.44211         44.0509         4.63696 
        2.44823         43.8076         4.60849 
        2.45437         43.6382         4.58018 
        2.46052         43.3056         4.55209 
        2.46665         43.1753         4.52428 
        2.47279         43.0354         4.49672 
        2.47892         42.8249         4.46937 
        2.48507         42.5779         4.44222 
         2.4912         42.4424         4.41535 
