#  k  (h/Mpc)          P(k)  (Mpc/h)^3     P_linear(k) (Mpc/h)^3
     0.00783031         1173.24         1183.84 
       0.013688         1532.27         1533.16 
       0.019231          1630.4         1630.54 
      0.0249154         1581.36          1591.5 
      0.0312784         1461.91         1465.14 
      0.0375637         1318.15         1316.63 
      0.0433917         1185.56         1189.96 
      0.0492413         1085.14         1085.51 
      0.0555754           991.3         997.777 
      0.0619321         931.483         928.125 
       0.067871         865.933         870.438 
      0.0738098          808.04         812.967 
      0.0800417         742.293         749.579 
      0.0862327         680.432         684.393 
      0.0921407         621.666         623.598 
      0.0982031         563.461         566.724 
       0.104506         518.505         516.667 
       0.110769         478.573         477.092 
       0.116806         446.027         447.435 
       0.122832         424.556         423.727 
       0.129052         400.547         402.438 
       0.135211         379.902         381.921 
       0.141259         360.898         360.822 
       0.147318         340.199         338.498 
       0.153489         315.678         315.328 
       0.159709         294.263         292.894 
       0.165845         277.286          272.93 
       0.171974         258.096         255.902 
       0.178125          244.62         241.836 
       0.184229         234.077         230.401 
        0.19034         221.588         220.651 
       0.196428         214.704         211.733 
       0.202534         207.553         202.866 
       0.208729         197.215         193.551 
       0.214876         186.477         183.976 
       0.220989         179.412         174.399 
       0.227147         168.118         165.111 
        0.23329         160.056         156.584 
       0.239377         153.607         149.092 
       0.245482         145.585         142.565 
       0.251667         141.723          136.82 
       0.257832         136.503         131.712 
       0.263955         131.692         126.973 
       0.270079         127.191         122.341 
        0.27624         123.776         117.669 
       0.282372         118.892         112.985 
        0.28843         113.836         108.398 
       0.294538         109.416         103.926 
       0.300721          106.32         99.6677 
        0.30691         101.541         95.7492 
       0.313033         98.2888         92.2295 
       0.319153         93.8456         89.0314 
       0.325316         92.3176         86.0617 
        0.33145         89.1277         83.2743 
       0.337538         86.8436         80.6042 
       0.343633          83.958         77.9818 
       0.349808         81.5648         75.3662 
       0.355968         79.1244         72.8075 
       0.362074         76.6028         70.3535 
       0.368217         74.4133         67.9949 
       0.374374         72.0202         65.7659 
       0.380519         70.1753         63.6829 
       0.386598         68.3141         61.7526 
       0.392688         66.8283         59.9328 
        0.39888         64.9306         58.1721 
       0.405048         63.4408         56.4863 
       0.411186         62.0054         54.8604 
       0.417313         59.9405         53.2785 
       0.423458         58.5244         51.7357 
       0.429607         56.9164         50.2404 
       0.435692         55.2138         48.8153 
       0.441815         54.2666         47.4422 
       0.447964         53.3634         46.1281 
       0.454126         51.3696          44.873 
       0.460267         50.4044         43.6795 
       0.466387         48.9816         42.5402 
        0.47254         48.2709         41.4369 
       0.478662          47.381         40.3747 
       0.484765         46.0894         39.3485 
       0.490885         45.0251         38.3501 
       0.497035         44.4527         37.3772 
       0.503198         43.3278         36.4345 
       0.509342         42.2465         35.5282 
       0.515458         41.3964         34.6595 
       0.521598         40.7088         33.8197 
       0.527764         39.8491         33.0076 
       0.533884         39.1625         32.2306 
           0.54          38.398         31.4806 
       0.546137         37.7543         30.7517 
       0.552299         37.1538         30.0418 
       0.558452         36.0139         29.3543 
       0.564573         35.5631         28.6909 
       0.570708         34.9906          28.046 
       0.576825         34.1088         27.4228 
       0.582926         33.5528         26.8206 
       0.589034           32.66         26.2366 
       0.595184         32.2442         25.6675 
       0.601379         31.6776         25.1123 
       0.607522         31.1544         24.5785 
       0.613639          30.852         24.0626 
       0.619772         30.0582         23.5601 
       0.625918          29.899         23.0708 
       0.632068         29.3964          22.595 
       0.638161          28.785         22.1369 
         0.6443          28.219         21.6882 
       0.650464         27.7326         21.2504 
       0.656582         27.5525          20.828 
       0.662703         27.0525         20.4172 
       0.668861         26.5818         20.0154 
       0.675024         26.1153         19.6245 
       0.681124         25.6827         19.2481 
       0.687237          25.292          18.881 
       0.693381         25.0501         18.5219 
       0.699536         24.4031         18.1714 
       0.705665         24.2646         17.8316 
       0.711789         23.8233         17.5007 
       0.717957         23.4986          17.176 
        0.72409         23.1372         16.8614 
       0.730186         22.8442         16.5568 
       0.736317         22.6146         16.2581 
       0.742472         22.2479         15.9659 
       0.748622         21.9758         15.6812 
        0.75476         21.5596         15.4042 
       0.760888         21.3309         15.1343 
       0.767043         21.0829         14.8699 
       0.773185         20.6853         14.6124 
       0.779291         20.5628         14.3625 
       0.785407         20.2731         14.1181 
       0.791564         19.9335         13.8779 
       0.797719         19.5948         13.6435 
       0.803834         19.5074          13.416 
       0.809972         19.3438          13.193 
       0.816124         18.9085         12.9746 
       0.822261         18.7421         12.7618 
       0.828378         18.5162         12.5545 
       0.834502         18.3446         12.3516 
       0.840667         18.0882          12.152 
       0.846816         17.7927         11.9573 
       0.852925         17.6369         11.7682 
       0.859047          17.438         11.5828 
       0.865192         17.2979         11.4009 
       0.871341         17.1401         11.2227 
       0.877463         16.8609         11.0492 
       0.883569         16.6256         10.8798 
       0.889708         16.3826         10.7132 
       0.895864         16.2989         10.5496 
       0.902008         16.1431         10.3898 
       0.908149         15.9699         10.2334 
       0.914301         15.8036         10.0801 
       0.920448          15.537            9.93 
       0.926574         15.3979         9.78355 
       0.932687         15.2692         9.64038 
       0.938823         15.0651         9.49959 
       0.944975         14.8835         9.36131 
       0.951105         14.7748          9.2263 
       0.957225         14.6665          9.0942 
       0.963368         14.4965         8.96426 
       0.969511         14.3685         8.83688 
       0.975621         14.2141         8.71268 
       0.981748         14.0626         8.59057 
       0.987916         13.9555         8.47005 
        0.99406         13.7553         8.35231 
        1.00019         13.5562         8.23706 
        1.00632         13.5575         8.12411 
        1.01246         13.4021         8.01312 
        1.01859         13.2144         7.90441 
        1.02471         13.1311         7.79786 
        1.03085         13.0148         7.69292 
        1.03698         12.8318         7.59014 
        1.04314          12.759         7.48883 
        1.04929         12.5895         7.38961 
        1.05541         12.4683          7.2926 
        1.06154         12.3704         7.19711 
        1.06769         12.3204         7.10319 
        1.07382         12.1369         7.01127 
        1.07993         12.0503         6.92119 
        1.08607         11.9557         6.83234 
        1.09222         11.8511         6.74496 
        1.09836         11.7297         6.65922 
        1.10449         11.6306         6.57509 
        1.11063         11.5408         6.49231 
        1.11677         11.4641           6.411 
         1.1229         11.3756         6.33124 
        1.12903         11.2603         6.25276 
        1.13518          11.133         6.17556 
        1.14131         11.0353         6.09972 
        1.14745         10.9357         6.02519 
        1.15359         10.8747         5.95191 
        1.15973         10.7905         5.87982 
        1.16584         10.6435         5.80926 
        1.17197         10.5782         5.73976 
        1.17811         10.5244         5.67119 
        1.18424         10.4465         5.60394 
        1.19038         10.3872          5.5376 
        1.19652         10.2822         5.47236 
        1.20267         10.1646         5.40819 
        1.20881         10.1453         5.34506 
        1.21495         10.0552         5.28304 
        1.22108         9.94367         5.22202 
         1.2272         9.89953         5.16212 
        1.23334         9.77854         5.10302 
        1.23949         9.71097         5.04472 
        1.24562         9.67323         4.98749 
        1.25174         9.57686         4.93124 
        1.25789         9.51773         4.87569 
        1.26402         9.45888         4.82111 
        1.27014         9.37932         4.76749 
        1.27628         9.29387         4.71453 
        1.28244         9.20203         4.66229 
        1.28858         9.18852          4.6109 
        1.29471         9.09488         4.56041 
        1.30084         9.01123         4.51073 
        1.30697         9.01861         4.46172 
        1.31312         8.85875         4.41336 
        1.31925         8.82856         4.36588 
        1.32537         8.76591         4.31915 
        1.33151         8.73152         4.27294 
        1.33765         8.63256         4.22743 
        1.34378         8.56944         4.18268 
        1.34992         8.52757         4.13855 
        1.35606         8.45922         4.09496 
         1.3622         8.41832         4.05208 
        1.36833         8.35931         4.00992 
        1.37445         8.30767         3.96838 
        1.38059         8.27427         3.92731 
        1.38675          8.2037         3.88672 
        1.39288         8.14745         3.84687 
        1.39901         8.06741         3.80759 
        1.40515         8.03497         3.76878 
         1.4113         7.98891         3.73053 
        1.41742         7.93596         3.69296 
        1.42355         7.86784         3.65583 
         1.4297         7.80997         3.61911 
        1.43585          7.7886         3.58291 
        1.44198         7.76096         3.54734 
        1.44809         7.67552         3.51233 
        1.45423         7.62432         3.47766 
        1.46036         7.58008         3.44352 
        1.46649         7.52118         3.40983 
        1.47263         7.47093         3.37657 
        1.47877          7.4252         3.34377 
        1.48491         7.38312         3.31136 
        1.49104          7.3473         3.27944 
        1.49718          7.3026         3.24792 
        1.50333         7.25912         3.21677 
        1.50947         7.21215          3.1861 
         1.5156         7.17004         3.15587 
        1.52172          7.1331         3.12603 
        1.52787          7.0911         3.09652 
          1.534         7.03776         3.06743 
        1.54013         7.01366         3.03875 
        1.54627         6.94706         3.01038 
        1.55241         6.91495         2.98237 
        1.55855         6.88786         2.95475 
        1.56467          6.8379         2.92757 
         1.5708          6.8054         2.90065 
        1.57695         6.74703         2.87403 
        1.58308         6.70917          2.8478 
        1.58922          6.6923         2.82188 
        1.59535         6.65421          2.7963 
         1.6015         6.60837           2.771 
        1.60764         6.56745         2.74603 
        1.61376         6.53326         2.72143 
        1.61989         6.50444         2.69712 
        1.62604         6.45561         2.67304 
        1.63218         6.44059         2.64928 
        1.63831         6.40388         2.62587 
        1.64444         6.36895         2.60273 
        1.65059         6.30549         2.57981 
        1.65673         6.29295          2.5572 
        1.66285         6.23937         2.53492 
        1.66898         6.22105          2.5129 
        1.67512         6.18212         2.49109 
        1.68127         6.15147         2.46953 
         1.6874         6.12628         2.44828 
        1.69353         6.07895         2.42728 
        1.69967         6.05448         2.40649 
        1.70581         6.02175         2.38594 
        1.71193         5.99699         2.36572 
        1.71806         5.97011         2.34569 
        1.72421         5.92866         2.32585 
        1.73035         5.91063         2.30626 
        1.73649         5.87375         2.28691 
        1.74262         5.83119         2.26779 
        1.74876         5.82457         2.24888 
        1.75489         5.79671         2.23022 
        1.76101         5.74719         2.21178 
        1.76715          5.7287         2.19353 
        1.77329         5.70371         2.17546 
        1.77943          5.6527         2.15759 
        1.78557         5.64722         2.13994 
        1.79171         5.60569         2.12249 
        1.79785          5.5818         2.10523 
        1.80399         5.55316         2.08817 
        1.81012         5.53481         2.07131 
        1.81625         5.49644         2.05466 
        1.82239         5.47415         2.03816 
        1.82853         5.45013         2.02185 
        1.83466         5.43434         2.00573 
        1.84078         5.40177         1.98981 
        1.84692         5.38585         1.97404 
        1.85306         5.34165         1.95841 
         1.8592         5.31397         1.94299 
        1.86533         5.29669         1.92773 
        1.87147         5.27645         1.91263 
        1.87761         5.24658         1.89768 
        1.88375         5.22006          1.8829 
        1.88988         5.18976          1.8683 
        1.89601         5.17869         1.85385 
        1.90215          5.1552         1.83954 
        1.90829         5.12252         1.82539 
        1.91442         5.10593         1.81138 
        1.92056         5.07163         1.79754 
         1.9267         5.05865         1.78383 
        1.93284         5.03518         1.77025 
        1.93897         5.00983         1.75684 
        1.94509         4.97379          1.7436 
        1.95123         4.95674         1.73046 
        1.95737         4.93059         1.71744 
        1.96349         4.91645          1.7046 
        1.96964         4.90489         1.69185 
        1.97578         4.87075         1.67922 
        1.98192         4.85614         1.66675 
        1.98805         4.83602          1.6544 
        1.99419         4.81481         1.64218 
        2.00033         4.79913         1.63008 
        2.00647         4.77192          1.6181 
         2.0126         4.75538         1.60627 
        2.01874          4.7203         1.59453 
        2.02488         4.71043          1.5829 
        2.03101         4.67931         1.57141 
        2.03714         4.66367         1.56004 
        2.04328         4.64469         1.54878 
        2.04941         4.61223         1.53763 
        2.05554         4.60491          1.5266 
        2.06167         4.58914         1.51567 
        2.06781         4.56906         1.50484 
        2.07396         4.55587          1.4941 
        2.08009          4.5307         1.48349 
        2.08622         4.50414         1.47299 
        2.09237         4.50115         1.46257 
        2.09851         4.47278         1.45225 
        2.10464           4.455         1.44205 
        2.11077         4.43474         1.43196 
        2.11691         4.42147         1.42194 
        2.12305         4.40464         1.41202 
        2.12918         4.39518         1.40222 
        2.13531         4.37001         1.39251 
        2.14145         4.35318         1.38287 
         2.1476          4.3278         1.37331 
        2.15372         4.31564         1.36388 
        2.15985         4.29828         1.35454 
        2.16599         4.28047         1.34526 
        2.17213         4.26076         1.33607 
        2.17827         4.24696         1.32698 
         2.1844         4.22787         1.31797 
        2.19054         4.22007         1.30905 
        2.19666         4.19617         1.30022 
         2.2028         4.17779         1.29147 
        2.20893         4.16572         1.28279 
        2.21508         4.14191         1.27418 
        2.22122         4.12909         1.26565 
        2.22736         4.11162         1.25722 
        2.23349         4.10528         1.24886 
        2.23962         4.08128         1.24057 
        2.24577         4.06444         1.23236 
         2.2519         4.05579         1.22423 
        2.25802         4.03758         1.21618 
        2.26417         4.02234         1.20819 
        2.27031         4.00343         1.20026 
        2.27644         3.99384         1.19242 
        2.28257         3.97318         1.18466 
        2.28872         3.96332         1.17695 
        2.29486          3.9459         1.16931 
        2.30099         3.93194         1.16175 
        2.30712         3.91215         1.15426 
        2.31326         3.90009         1.14682 
         2.3194         3.88717         1.13945 
        2.32553         3.86633         1.13216 
        2.33166         3.86064         1.12493 
         2.3378         3.84435         1.11776 
        2.34394         3.83198         1.11065 
        2.35007         3.81433         1.10361 
        2.35619         3.80856         1.09664 
        2.36233         3.79534         1.08972 
        2.36848         3.77283         1.08284 
        2.37462          3.7638         1.07603 
        2.38075         3.75057         1.06929 
        2.38689         3.73452          1.0626 
        2.39303         3.72509         1.05597 
        2.39916         3.70873          1.0494 
        2.40529         3.69519         1.04289 
        2.41143         3.68438         1.03643 
        2.41757          3.6691         1.03002 
         2.4237          3.6572         1.02368 
        2.42983         3.62859         1.01739 
        2.43598         3.63734         1.01114 
        2.44211         3.61351         1.00495 
        2.44823         3.60777        0.998829 
        2.45437         3.58876        0.992741 
        2.46052         3.57901        0.986698 
        2.46665         3.56975        0.980715 
        2.47279         3.55657        0.974785 
        2.47892         3.54518          0.9689 
        2.48507         3.53509        0.963058 
         2.4912         3.51268        0.957275 
