# k  (h/Mpc)    Pcb(k)  (Mpc/h)^3    Pcb_linear(k)  (Mpc/h)^3
     0.00783031         189.872         191.649 
       0.013688          227.49         228.424 
       0.019231         224.191         224.385 
      0.0249154         201.094         201.632 
      0.0312784         169.918         169.807 
      0.0375637         141.965         141.618 
      0.0433917         121.986         121.846 
      0.0492413         108.328          108.11 
      0.0555754         98.1344          98.213 
      0.0619321         91.0906         90.8705 
       0.067871         84.2385          84.347 
      0.0738098         77.0081         77.1125 
      0.0800417          68.569         68.7082 
      0.0862327         60.2718         60.2543 
      0.0921407         53.0213         52.9578 
      0.0982031         46.9093          46.882 
       0.104506         42.4516         42.2835 
       0.110769         39.3332         39.2089 
       0.116806          37.163         37.1653 
       0.122832          35.533         35.4789 
       0.129052         33.6019         33.6389 
       0.135211         31.4344         31.4736 
       0.141259         29.0691         29.0361 
       0.147318         26.5893         26.4905 
       0.153489          24.126         24.0612 
       0.159709         22.0685         21.9963 
       0.165845         20.5718         20.4251 
       0.171974          19.332           19.28 
       0.178125         18.4976         18.4307 
       0.184229         17.8063         17.7249 
        0.19034         17.0252          17.013 
       0.196428         16.2666         16.2136 
       0.202534         15.4204         15.3078 
       0.208729         14.4058         14.3307 
       0.214876         13.4335         13.3809 
       0.220989          12.632         12.5276 
       0.227147         11.8579         11.8025 
        0.23329         11.2729         11.2191 
       0.239377         10.8156         10.7535 
       0.245482         10.3906         10.3557 
       0.251667         10.0533         9.97722 
       0.257832         9.64748         9.59042 
       0.263955          9.2498         9.18234 
       0.270079          8.8252         8.75499 
        0.27624         8.42126         8.32452 
       0.282372         8.01426         7.91676 
        0.28843         7.62631         7.55133 
       0.294538         7.30484          7.2278 
       0.300721         7.04391         6.94399 
        0.30691         6.76351         6.69367 
       0.313033         6.53939         6.46584 
       0.319153         6.28651         6.24588 
       0.325316         6.11208         6.02427 
        0.33145         5.88307         5.80154 
       0.337538          5.6586          5.5809 
       0.343633         5.43219         5.36567 
       0.349808         5.23855         5.15923 
       0.355968         5.04824         4.96842 
       0.362074         4.86932         4.79577 
       0.368217         4.71193         4.63665 
       0.374374         4.55053         4.48882 
       0.380519         4.42154         4.34898 
       0.386598          4.2937         4.21492 
       0.392688         4.16869         4.08338 
        0.39888         4.03085         3.95176 
       0.405048         3.90382         3.82377 
       0.411186         3.78315         3.70098 
       0.417313         3.65865         3.58407 
       0.423458          3.5542         3.47337 
       0.429607          3.4411         3.36932 
       0.435692          3.3432         3.27213 
       0.441815         3.25111         3.17919 
       0.447964         3.17204         3.08978 
       0.454126         3.07271         3.00311 
       0.460267         2.98974         2.91912 
       0.466387          2.9024         2.83783 
        0.47254         2.82727         2.75863 
       0.478662         2.75475         2.68257 
       0.484765         2.67471         2.60976 
       0.490885         2.60715         2.53998 
       0.497035         2.55239         2.47294 
       0.503198         2.48002          2.4086 
       0.509342         2.42053         2.34697 
       0.515458         2.35749         2.28786 
       0.521598         2.30058         2.23045 
       0.527764           2.238         2.17453 
       0.533884         2.19327          2.1207 
           0.54         2.13763         2.06863 
       0.546137         2.08884         2.01813 
       0.552299         2.03909         1.96919 
       0.558452         1.98629         1.92205 
       0.564573         1.94487          1.8768 
       0.570708         1.90028         1.83304 
       0.576825         1.85399         1.79089 
       0.582926         1.81802         1.75021 
       0.589034         1.76895         1.71071 
       0.595184         1.73267         1.67211 
       0.601379         1.69416         1.63439 
       0.607522         1.66204         1.59812 
       0.613639         1.63105         1.56311 
       0.619772         1.58865          1.5291 
       0.625918         1.55882         1.49607 
       0.632068         1.52939         1.46402 
       0.638161         1.49452         1.43322 
         0.6443         1.46341          1.4031 
       0.650464         1.43041         1.37375 
       0.656582         1.40544         1.34546 
       0.662703         1.37785         1.31796 
       0.668861         1.35444         1.29107 
       0.675024         1.32437         1.26492 
       0.681124         1.29559         1.23975 
       0.687237         1.27488         1.21521 
       0.693381         1.25091         1.19123 
       0.699536         1.22036         1.16787 
       0.705665         1.19925         1.14524 
       0.711789          1.1793         1.12325 
       0.717957         1.15506         1.10169 
        0.72409         1.13442         1.08083 
       0.730186          1.1128         1.06064 
       0.736317         1.09809         1.04085 
       0.742472         1.07689         1.02151 
       0.748622         1.05576         1.00267 
        0.75476          1.0354        0.984356 
       0.760888         1.01652        0.966527 
       0.767043          1.0046        0.949073 
       0.773185        0.983177         0.93209 
       0.779291        0.966831        0.915623 
       0.785407        0.950539        0.899535 
       0.791564         0.93537        0.883736 
       0.797719        0.920806        0.868328 
       0.803834        0.905913        0.853389 
       0.809972        0.889894        0.838751 
       0.816124        0.874128        0.824428 
       0.822261        0.858385        0.810481 
       0.828378        0.846298          0.7969 
       0.834502        0.834652        0.783622 
       0.840667        0.817577        0.770563 
       0.846816        0.804985         0.75784 
       0.852925        0.795381        0.745487 
       0.859047        0.782745        0.733385 
       0.865192        0.768811        0.721514 
       0.871341        0.757105        0.709899 
       0.877463        0.747661        0.698595 
       0.883569        0.734217        0.687566 
       0.889708        0.723203        0.676721 
       0.895864         0.71224        0.666084 
       0.902008        0.700527        0.655699 
       0.908149        0.690555        0.645543 
       0.914301        0.677376        0.635587 
       0.920448         0.66883        0.625852 
       0.926574        0.658649        0.616357 
       0.932687        0.648738        0.607079 
       0.938823        0.642241        0.597961 
       0.944975        0.632203        0.589011 
       0.951105        0.623593        0.580277 
       0.957225         0.61612        0.571736 
       0.963368        0.606572         0.56334 
       0.969511        0.596971        0.555113 
       0.975621        0.587769        0.547096 
       0.981748        0.582129        0.539218 
       0.987916        0.573134        0.531447 
        0.99406        0.564599        0.523859 
        1.00019        0.558691        0.516435 
        1.00632        0.548784        0.509163 
        1.01246        0.541527        0.502021 
        1.01859        0.535328        0.495029 
        1.02471        0.527599        0.488179 
        1.03085        0.522458        0.481436 
        1.03698        0.514103        0.474836 
        1.04314        0.507876        0.468332 
        1.04929        0.500331        0.461966 
        1.05541        0.494933        0.455745 
        1.06154        0.487745        0.449623 
        1.06769        0.481014        0.443605 
        1.07382        0.475364        0.437718 
        1.07993        0.468491        0.431951 
        1.08607        0.464617        0.426265 
        1.09222        0.457449        0.420676 
        1.09836        0.453502        0.415194 
        1.10449        0.447489        0.409817 
        1.11063        0.440697        0.404529 
        1.11677        0.434481        0.399338 
         1.1229        0.430229        0.394246 
        1.12903        0.424385         0.38924 
        1.13518        0.420143        0.384317 
        1.14131        0.414519        0.379482 
        1.14745        0.407698        0.374733 
        1.15359        0.404424        0.370065 
        1.15973        0.398402        0.365475 
        1.16584        0.395538        0.360983 
        1.17197          0.3905        0.356561 
        1.17811        0.386428          0.3522 
        1.18424        0.382612        0.347925 
        1.19038        0.377073        0.343709 
        1.19652        0.371816        0.339565 
        1.20267        0.369136         0.33549 
        1.20881        0.364131        0.331482 
        1.21495        0.360969        0.327547 
        1.22108        0.356491        0.323677 
         1.2272        0.352959        0.319878 
        1.23334        0.348378        0.316133 
        1.23949        0.344703        0.312438 
        1.24562        0.340914        0.308813 
        1.25174        0.337475        0.305252 
        1.25789        0.334079        0.301736 
        1.26402         0.32922        0.298282 
        1.27014         0.32607         0.29489 
        1.27628        0.323402        0.291542 
        1.28244        0.318395        0.288239 
        1.28858         0.31571        0.284993 
        1.29471        0.313174        0.281803 
        1.30084        0.309155        0.278666 
        1.30697        0.305826        0.275572 
        1.31312         0.30159         0.27252 
        1.31925        0.298946        0.269525 
        1.32537        0.296407        0.266577 
        1.33151         0.29376        0.263663 
        1.33765          0.2906        0.260795 
        1.34378        0.286728        0.257975 
        1.34992        0.284262        0.255195 
        1.35606        0.281287         0.25245 
         1.3622        0.278494         0.24975 
        1.36833        0.275449        0.247097 
        1.37445        0.271962        0.244483 
        1.38059        0.269607          0.2419 
        1.38675        0.268171        0.239347 
        1.39288        0.264883        0.236842 
        1.39901        0.262334        0.234374 
        1.40515        0.260028        0.231936 
         1.4113        0.256813        0.229533 
        1.41742        0.254397        0.227174 
        1.42355        0.252645        0.224844 
         1.4297        0.249404        0.222539 
        1.43585        0.247317        0.220268 
        1.44198        0.245555        0.218037 
        1.44809        0.242589        0.215842 
        1.45423        0.240377        0.213669 
        1.46036        0.238041        0.211529 
        1.46649        0.236294        0.209419 
        1.47263        0.233778        0.207335 
        1.47877        0.231045        0.205281 
        1.48491        0.229315        0.203252 
        1.49104         0.22662        0.201254 
        1.49718        0.224761        0.199282 
        1.50333        0.223196        0.197333 
        1.50947        0.220849        0.195415 
         1.5156        0.218631        0.193524 
        1.52172        0.216848        0.191659 
        1.52787        0.214785        0.189815 
          1.534          0.2127        0.187997 
        1.54013        0.210725        0.186206 
        1.54627        0.209263        0.184434 
        1.55241        0.206978        0.182685 
        1.55855        0.204923        0.180961 
        1.56467        0.204042        0.179265 
         1.5708        0.201652        0.177585 
        1.57695        0.199944        0.175924 
        1.58308        0.198117        0.174289 
        1.58922        0.196553        0.172673 
        1.59535        0.194711        0.171079 
         1.6015        0.192905        0.169502 
        1.60764        0.191429        0.167946 
        1.61376        0.189299        0.166414 
        1.61989        0.187958          0.1649 
        1.62604        0.186522        0.163401 
        1.63218        0.185013        0.161922 
        1.63831        0.183489        0.160465 
        1.64444         0.18189        0.159025 
        1.65059        0.180299          0.1576 
        1.65673        0.178859        0.156193 
        1.66285        0.177588        0.154808 
        1.66898         0.17611        0.153439 
        1.67512        0.174238        0.152084 
        1.68127        0.172709        0.150744 
         1.6874        0.171777        0.149423 
        1.69353        0.169836        0.148119 
        1.69967        0.169012        0.146827 
        1.70581        0.167144        0.145552 
        1.71193        0.165942        0.144296 
        1.71806        0.164391        0.143053 
        1.72421        0.163492        0.141822 
        1.73035        0.161852        0.140606 
        1.73649        0.160851        0.139406 
        1.74262        0.159476         0.13822 
        1.74876        0.158087        0.137047 
        1.75489        0.157017        0.135891 
        1.76101        0.155523        0.134748 
        1.76715        0.154346        0.133617 
        1.77329        0.152951        0.132497 
        1.77943        0.151822         0.13139 
        1.78557        0.150962        0.130297 
        1.79171        0.149786        0.129216 
        1.79785        0.148497        0.128148 
        1.80399        0.147346        0.127091 
        1.81012        0.146275        0.126048 
        1.81625        0.145106        0.125018 
        1.82239         0.14407        0.123997 
        1.82853        0.142714        0.122988 
        1.83466        0.141795        0.121992 
        1.84078        0.140703        0.121007 
        1.84692        0.139551        0.120032 
        1.85306        0.138796        0.119066 
         1.8592        0.137446        0.118113 
        1.86533        0.136698        0.117171 
        1.87147        0.135627        0.116237 
        1.87761         0.13472        0.115314 
        1.88375        0.133487        0.114402 
        1.88988        0.132588          0.1135 
        1.89601        0.131488        0.112608 
        1.90215        0.130685        0.111725 
        1.90829        0.129532        0.110851 
        1.91442        0.128951        0.109987 
        1.92056        0.127807        0.109133 
         1.9267        0.126763        0.108287 
        1.93284         0.12589         0.10745 
        1.93897        0.124936        0.106623 
        1.94509          0.1243        0.105806 
        1.95123        0.123297        0.104996 
        1.95737        0.122541        0.104194 
        1.96349        0.121521        0.103402 
        1.96964        0.120561        0.102617 
        1.97578        0.119753        0.101839 
        1.98192        0.119048        0.101071 
        1.98805        0.118364         0.10031 
        1.99419        0.117211       0.0995579 
        2.00033        0.116396       0.0988128 
        2.00647        0.115928       0.0980755 
         2.0126        0.114815       0.0973469 
        2.01874        0.114236       0.0966247 
        2.02488         0.11339       0.0959091 
        2.03101         0.11263       0.0952022 
        2.03714        0.111742        0.094503 
        2.04328        0.111186         0.09381 
        2.04941        0.110195       0.0931246 
        2.05554        0.109608       0.0924466 
        2.06167         0.10905       0.0917744 
        2.06781        0.108026       0.0911087 
        2.07396        0.107348       0.0904488 
        2.08009        0.106666       0.0897965 
        2.08622         0.10604       0.0891514 
        2.09237        0.105323       0.0885114 
        2.09851        0.104667       0.0878776 
        2.10464        0.104009       0.0872511 
        2.11077        0.103185       0.0866314 
        2.11691        0.102588       0.0860164 
        2.12305        0.101876       0.0854073 
        2.12918        0.101352       0.0848056 
        2.13531        0.100463       0.0842097 
        2.14145       0.0997451       0.0836181 
         2.1476        0.099244       0.0830316 
        2.15372       0.0987977       0.0824536 
        2.15985       0.0979914       0.0818805 
        2.16599        0.097296       0.0813113 
        2.17213       0.0967736        0.080748 
        2.17827       0.0960334       0.0801903 
         2.1844       0.0956163       0.0796383 
        2.19054       0.0949129       0.0790914 
        2.19666        0.094154       0.0785503 
         2.2028       0.0937159       0.0780139 
        2.20893       0.0932953       0.0774822 
        2.21508       0.0924643       0.0769548 
        2.22122       0.0918261       0.0764322 
        2.22736       0.0915128       0.0759156 
        2.23349       0.0908059       0.0754038 
        2.23962       0.0903828       0.0748965 
        2.24577       0.0896867       0.0743934 
         2.2519       0.0892298       0.0738957 
        2.25802       0.0885995       0.0734033 
        2.26417       0.0881204       0.0729141 
        2.27031       0.0875206       0.0724288 
        2.27644       0.0869932       0.0719494 
        2.28257       0.0864599       0.0714744 
        2.28872        0.085963       0.0710028 
        2.29486       0.0856252       0.0705355 
        2.30099       0.0848755       0.0700734 
        2.30712       0.0844467       0.0696152 
        2.31326        0.083786       0.0691603 
         2.3194       0.0836393       0.0687098 
        2.32553       0.0830257       0.0682641 
        2.33166       0.0826479       0.0678225 
         2.3378       0.0820847       0.0673842 
        2.34394       0.0815083       0.0669496 
        2.35007       0.0810498       0.0665195 
        2.35619       0.0804467       0.0660937 
        2.36233       0.0800671       0.0656706 
        2.36848       0.0797558       0.0652504 
        2.37462       0.0790908       0.0648347 
        2.38075       0.0788074        0.064423 
        2.38689       0.0783547       0.0640146 
        2.39303       0.0779953       0.0636098 
        2.39916       0.0773659       0.0632089 
        2.40529       0.0769873       0.0628115 
        2.41143       0.0764899       0.0624173 
        2.41757       0.0760819       0.0620262 
         2.4237       0.0757665       0.0616392 
        2.42983       0.0752518       0.0612556 
        2.43598       0.0749785       0.0608742 
        2.44211       0.0744179       0.0604967 
        2.44823       0.0741367       0.0601233 
        2.45437       0.0735524       0.0597519 
        2.46052       0.0732543       0.0593835 
        2.46665       0.0727439       0.0590187 
        2.47279       0.0723496       0.0586572 
        2.47892       0.0718349       0.0582984 
        2.48507       0.0714607       0.0579424 
         2.4912       0.0711727       0.0575899 
