# k  (h/Mpc)    Pcb(k)  (Mpc/h)^3    Pcb_linear(k)  (Mpc/h)^3
     0.00783031         15398.6         15619.2 
       0.013688         18746.3           18578 
       0.019231         18281.9         18236.5 
      0.0249154         16062.1         16381.3 
      0.0312784         13664.6         13792.5 
      0.0375637         11524.7         11501.3 
      0.0433917         9752.44         9894.71 
      0.0492413         8742.53         8778.68 
      0.0555754         7757.63          7974.7 
      0.0619321         7411.89         7378.25 
       0.067871         6685.36         6848.41 
      0.0738098         6120.71         6260.89 
      0.0800417          5408.7         5578.43 
      0.0862327         4823.27         4891.98 
      0.0921407         4334.42         4299.54 
      0.0982031         3826.62         3806.22 
       0.104506         3568.62         3432.85 
       0.110769         3301.12         3183.22 
       0.116806         3113.45         3017.29 
       0.122832         2971.83         2880.37 
       0.129052         2756.94         2730.98 
       0.135211         2598.34         2555.17 
       0.141259         2460.58         2357.28 
       0.147318         2290.99         2150.61 
       0.153489         2081.47         1953.38 
       0.159709         1954.31         1785.74 
       0.165845         1868.63         1658.18 
       0.171974         1766.01         1565.21 
       0.178125         1683.78         1496.26 
       0.184229         1613.64         1438.97 
        0.19034         1521.26         1381.17 
       0.196428         1486.73         1316.27 
       0.202534         1427.35         1242.74 
       0.208729         1352.71          1163.4 
       0.214876         1287.26          1086.3 
       0.220989         1238.36         1017.02 
       0.227147         1182.76          958.16 
        0.23329         1134.07         910.795 
       0.239377         1112.57         872.996 
       0.245482         1040.92         840.704 
       0.251667         1034.48         809.974 
       0.257832         993.261         778.572 
       0.263955         959.639         745.443 
       0.270079         923.477         710.749 
        0.27624         911.822         675.802 
       0.282372         873.607         642.699 
        0.28843         860.749         613.032 
       0.294538         816.431         586.768 
       0.300721         811.843         563.728 
        0.30691         777.716         543.406 
       0.313033         762.438          524.91 
       0.319153         744.266         507.053 
       0.325316          721.25         489.062 
        0.33145         702.572          470.98 
       0.337538         690.902         453.068 
       0.343633         672.106         435.595 
       0.349808         648.192         418.836 
       0.355968         643.598         403.345 
       0.362074          635.25         389.329 
       0.368217         616.209         376.412 
       0.374374         590.513          364.41 
       0.380519         589.701         353.058 
       0.386598         573.466         342.175 
       0.392688         571.087         331.496 
        0.39888         554.072          320.81 
       0.405048         544.571          310.42 
       0.411186         536.308         300.452 
       0.417313         525.371         290.961 
       0.423458         515.442         281.974 
       0.429607         507.965         273.527 
       0.435692         495.836         265.637 
       0.441815         491.468         258.092 
       0.447964         481.298         250.833 
       0.454126         472.937         243.798 
       0.460267         463.273         236.979 
       0.466387          457.85         230.379 
        0.47254         451.066          223.95 
       0.478662         448.835         217.775 
       0.484765         433.539         211.864 
       0.490885         430.194           206.2 
       0.497035         421.931         200.757 
       0.503198         417.388         195.533 
       0.509342         414.259         190.531 
       0.515458         410.099         185.732 
       0.521598         399.752         181.071 
       0.527764         393.524         176.532 
       0.533884         391.165         172.162 
           0.54         385.855         167.934 
       0.546137         384.099         163.835 
       0.552299         376.796         159.861 
       0.558452         374.826         156.035 
       0.564573         369.704         152.361 
       0.570708         363.547         148.809 
       0.576825          355.73         145.387 
       0.582926           354.5         142.084 
       0.589034         351.421         138.878 
       0.595184         348.477         135.744 
       0.601379         343.056         132.682 
       0.607522         338.327         129.738 
       0.613639          336.99         126.896 
       0.619772         329.826         124.135 
       0.625918         328.669         121.453 
       0.632068          323.41         118.851 
       0.638161         322.154          116.35 
         0.6443         316.939         113.905 
       0.650464         314.242         111.523 
       0.656582         311.673         109.226 
       0.662703         310.953         106.994 
       0.668861          305.59         104.811 
       0.675024           302.5         102.688 
       0.681124         300.362         100.644 
       0.687237         297.458         98.6525 
       0.693381          293.08         96.7059 
       0.699536         290.207         94.8092 
       0.705665         288.037         92.9723 
       0.711789         286.454         91.1868 
       0.717957         284.482         89.4367 
        0.72409         281.846         87.7429 
       0.730186         278.587         86.1038 
       0.736317         275.743         84.4979 
       0.742472         274.231         82.9273 
       0.748622         271.837         81.3983 
        0.75476         269.035         79.9113 
       0.760888          266.17          78.464 
       0.767043         266.349          77.047 
       0.773185         263.242         75.6683 
       0.779291         258.969         74.3315 
       0.785407         258.522         73.0254 
       0.791564         255.576         71.7428 
       0.797719         253.044          70.492 
       0.803834         251.158         69.2792 
       0.809972         250.419         68.0909 
       0.816124         249.775         66.9281 
       0.822261         246.878         65.7959 
       0.828378         244.606         64.6934 
       0.834502         243.195         63.6154 
       0.840667         240.791         62.5553 
       0.846816         239.287         61.5224 
       0.852925         238.143         60.5196 
       0.859047         236.136         59.5371 
       0.865192         233.363         58.5734 
       0.871341         231.714         57.6305 
       0.877463         230.632         56.7128 
       0.883569         229.755         55.8175 
       0.889708         227.143         54.9371 
       0.895864         225.236         54.0735 
       0.902008         223.917         53.2305 
       0.908149         222.912          52.406 
       0.914301           220.1         51.5978 
       0.920448         218.987         50.8075 
       0.926574         217.189         50.0366 
       0.932687         217.319         49.2835 
       0.938823         214.718         48.5432 
       0.944975         213.617         47.8166 
       0.951105          212.42         47.1076 
       0.957225         210.885         46.4143 
       0.963368         208.158         45.7326 
       0.969511          207.46         45.0648 
       0.975621         205.531          44.414 
       0.981748         205.573         43.7744 
       0.987916         203.777         43.1435 
        0.99406         201.622         42.5275 
        1.00019         201.548         41.9249 
        1.00632         199.894         41.3345 
        1.01246         198.451         40.7547 
        1.01859         198.448          40.187 
        1.02471         195.552          39.631 
        1.03085         194.114         39.0836 
        1.03698         193.297         38.5478 
        1.04314         191.566         38.0198 
        1.04929         190.627          37.503 
        1.05541         190.689         36.9979 
        1.06154         188.344         36.5009 
        1.06769          188.16         36.0124 
        1.07382         186.567         35.5344 
        1.07993         185.181         35.0663 
        1.08607         184.706         34.6047 
        1.09222         183.579         34.1509 
        1.09836         182.132         33.7059 
        1.10449          180.32         33.2694 
        1.11063          178.97         32.8402 
        1.11677         178.629         32.4187 
         1.1229         177.299         32.0054 
        1.12903         176.613         31.5989 
        1.13518         175.572         31.1993 
        1.14131         173.967         30.8068 
        1.14745         173.976         30.4212 
        1.15359         172.517         30.0423 
        1.15973         171.366         29.6696 
        1.16584         170.131          29.305 
        1.17197         169.784         28.9461 
        1.17811         168.297          28.592 
        1.18424          167.57          28.245 
        1.19038         167.216         27.9027 
        1.19652          165.78         27.5663 
        1.20267         165.256         27.2354 
        1.20881         163.895         26.9101 
        1.21495         163.011         26.5906 
        1.22108         162.041         26.2764 
         1.2272         160.863         25.9681 
        1.23334         160.525          25.664 
        1.23949         159.284         25.3641 
        1.24562         158.491         25.0698 
        1.25174         157.453         24.7807 
        1.25789         156.503         24.4952 
        1.26402         155.235         24.2148 
        1.27014         154.223         23.9395 
        1.27628         153.924         23.6677 
        1.28244         153.642         23.3996 
        1.28858         152.257          23.136 
        1.29471         150.965         22.8771 
        1.30084         150.799         22.6224 
        1.30697         149.372         22.3712 
        1.31312         148.683         22.1235 
        1.31925         147.842         21.8803 
        1.32537         147.387          21.641 
        1.33151         146.056         21.4045 
        1.33765         145.326         21.1716 
        1.34378         144.821         20.9427 
        1.34992         144.274          20.717 
        1.35606         143.947         20.4941 
         1.3622         142.449          20.275 
        1.36833         141.412         20.0596 
        1.37445         140.939         19.8474 
        1.38059         140.012         19.6377 
        1.38675          139.45         19.4305 
        1.39288          138.91         19.2271 
        1.39901          138.59         19.0267 
        1.40515         137.127         18.8288 
         1.4113         136.527         18.6338 
        1.41742         135.652         18.4422 
        1.42355         134.994         18.2531 
         1.4297         134.371          18.066 
        1.43585         133.506         17.8816 
        1.44198         132.949         17.7005 
        1.44809         132.393         17.5223 
        1.45423         131.789         17.3458 
        1.46036          130.85         17.1722 
        1.46649         129.997         17.0008 
        1.47263         129.303         16.8317 
        1.47877         128.783         16.6649 
        1.48491         127.602         16.5002 
        1.49104         127.599          16.338 
        1.49718         126.518         16.1779 
        1.50333         125.954         16.0197 
        1.50947         125.444          15.864 
         1.5156         124.728         15.7105 
        1.52172          124.01         15.5591 
        1.52787         123.271         15.4094 
          1.534          122.79         15.2618 
        1.54013         122.117         15.1163 
        1.54627         121.611         14.9725 
        1.55241         120.697         14.8305 
        1.55855         120.004         14.6906 
        1.56467         119.666         14.5529 
         1.5708         118.733         14.4165 
        1.57695         118.448         14.2817 
        1.58308         117.799         14.1489 
        1.58922         117.432         14.0178 
        1.59535         116.616         13.8883 
         1.6015         116.206         13.7603 
        1.60764         115.554          13.634 
        1.61376         114.991         13.5097 
        1.61989         114.291         13.3867 
        1.62604         113.685         13.2651 
        1.63218          113.47          13.145 
        1.63831         112.498         13.0267 
        1.64444         112.085         12.9098 
        1.65059         111.574         12.7941 
        1.65673         110.687         12.6799 
        1.66285         110.378         12.5674 
        1.66898         109.916         12.4563 
        1.67512         109.306         12.3463 
        1.68127         108.735         12.2375 
         1.6874         107.907         12.1303 
        1.69353         107.626         12.0244 
        1.69967         107.244         11.9196 
        1.70581         106.541          11.816 
        1.71193          106.08         11.7141 
        1.71806         105.599         11.6131 
        1.72421         104.842         11.5132 
        1.73035         104.671         11.4145 
        1.73649         104.023         11.3171 
        1.74262          103.31         11.2208 
        1.74876         103.044         11.1256 
        1.75489         102.277         11.0317 
        1.76101         101.724          10.939 
        1.76715         101.196         10.8471 
        1.77329         100.941         10.7562 
        1.77943         100.117         10.6663 
        1.78557         99.9453         10.5776 
        1.79171         99.0456         10.4899 
        1.79785         98.6695         10.4031 
        1.80399         98.1341         10.3174 
        1.81012          97.779         10.2327 
        1.81625         97.3606          10.149 
        1.82239         96.9724         10.0662 
        1.82853         96.3633         9.98427 
        1.83466         95.7928         9.90337 
        1.84078         95.4709         9.82345 
        1.84692         94.8945         9.74429 
        1.85306         94.4867          9.6659 
         1.8592         94.1327          9.5885 
        1.86533         93.4426         9.51199 
        1.87147         93.0554         9.43624 
        1.87761         92.6088         9.36127 
        1.88375         92.0379         9.28721 
        1.88988          91.747         9.21403 
        1.89601         91.2108          9.1416 
        1.90215         90.6673         9.06989 
        1.90829         90.2892         8.99898 
        1.91442         89.9256         8.92883 
        1.92056         89.3318         8.85949 
         1.9267         89.0625         8.79082 
        1.93284         88.5789         8.72284 
        1.93897         88.1717          8.6557 
        1.94509         87.8258         8.58942 
        1.95123         87.3642         8.52366 
        1.95737         86.8132         8.45855 
        1.96349         86.3865         8.39429 
        1.96964         85.9155          8.3305 
        1.97578         85.4995         8.26736 
        1.98192         85.4296           8.205 
        1.98805         84.6487         8.14327 
        1.99419         84.4057         8.08218 
        2.00033         84.0824         8.02169 
        2.00647         83.5811         7.96183 
         2.0126         83.1854         7.90269 
        2.01874         82.5376         7.84406 
        2.02488         82.3344         7.78597 
        2.03101         81.7882         7.72857 
        2.03714         81.2806         7.67181 
        2.04328          81.097         7.61556 
        2.04941         80.7389         7.55992 
        2.05554         80.3758         7.50487 
        2.06167         79.9545          7.4503 
        2.06781         79.4108         7.39627 
        2.07396         79.0572         7.34269 
        2.08009         78.8444         7.28974 
        2.08622         78.3673         7.23737 
        2.09237         78.0335         7.18541 
        2.09851         77.7375         7.13396 
        2.10464         77.2347          7.0831 
        2.11077         76.9461         7.03279 
        2.11691          76.633         6.98286 
        2.12305          76.074         6.93342 
        2.12918          75.738         6.88457 
        2.13531         75.4212         6.83619 
        2.14145         74.9481         6.78817 
         2.1476         74.5686         6.74055 
        2.15372         74.4006         6.69363 
        2.15985         73.9241         6.64711 
        2.16599         73.5573         6.60089 
        2.17213          73.276         6.55517 
        2.17827         72.8514         6.50989 
         2.1844         72.4994         6.46508 
        2.19054         72.3305         6.42068 
        2.19666         71.8963         6.37676 
         2.2028         71.6963         6.33321 
        2.20893         71.2014         6.29004 
        2.21508         70.9508         6.24723 
        2.22122         70.5241         6.20481 
        2.22736         70.2341         6.16287 
        2.23349         69.8274         6.12132 
        2.23962         69.5063         6.08014 
        2.24577         69.1961          6.0393 
         2.2519         68.9264         5.99889 
        2.25802         68.6182         5.95892 
        2.26417         68.1852          5.9192 
        2.27031         67.9242         5.87981 
        2.27644         67.5753         5.84089 
        2.28257         67.2853         5.80233 
        2.28872         66.9367         5.76404 
        2.29486         66.4383         5.72611 
        2.30099         66.1086         5.68859 
        2.30712         66.0191          5.6514 
        2.31326         65.7147         5.61447 
         2.3194         65.3779          5.5779 
        2.32553         65.0269         5.54171 
        2.33166         64.6809         5.50586 
         2.3378         64.3251         5.47028 
        2.34394          64.041           5.435 
        2.35007         63.7908         5.40009 
        2.35619         63.5279         5.36552 
        2.36233         63.2076         5.33117 
        2.36848         62.9503         5.29706 
        2.37462         62.4803         5.26331 
        2.38075         62.3734         5.22989 
        2.38689         62.0251         5.19673 
        2.39303         61.6692         5.16387 
        2.39916         61.4244         5.13133 
        2.40529         61.2067         5.09907 
        2.41143         60.8778         5.06706 
        2.41757         60.5484         5.03531 
         2.4237         60.3878          5.0039 
        2.42983          60.004         4.97275 
        2.43598         59.6598         4.94179 
        2.44211         59.4158         4.91115 
        2.44823         59.1902         4.88083 
        2.45437         58.8394         4.85068 
        2.46052         58.6307         4.82077 
        2.46665         58.4238         4.79116 
        2.47279          57.987         4.76181 
        2.47892          57.832         4.73269 
        2.48507         57.5107         4.70378 
         2.4912         57.2555         4.67517 
