# k  (h/Mpc)    P(k)  (Mpc/h)^3    P_linear(k)  (Mpc/h)^3
     0.00783031          7461.5         7580.39 
       0.013688         9036.57         9009.78 
       0.019231         8846.92          8840.4 
      0.0249154         7830.65         7938.93 
      0.0312784         6649.53         6683.08 
      0.0375637         5588.59          5572.2 
      0.0433917         4755.24         4793.46 
      0.0492413         4248.57         4252.56 
      0.0555754         3799.75         3862.91 
      0.0619321          3597.6         3573.86 
       0.067871         3273.15         3317.13 
      0.0738098         2993.39         3032.49 
      0.0800417         2651.34         2701.89 
      0.0862327         2351.69         2369.38 
      0.0921407         2093.53         2082.41 
      0.0982031         1845.58         1843.46 
       0.104506         1704.52         1662.61 
       0.110769         1577.01         1541.69 
       0.116806         1482.73         1461.32 
       0.122832         1421.05            1395 
       0.129052         1326.18         1322.64 
       0.135211         1246.18         1237.49 
       0.141259         1169.64         1141.65 
       0.147318         1081.05         1041.55 
       0.153489         979.921         946.031 
       0.159709         911.331          864.84 
       0.165845         863.168         803.057 
       0.171974         810.374         758.033 
       0.178125         775.512         724.639 
       0.184229         746.497          696.89 
        0.19034         700.403         668.901 
       0.196428         682.921         637.465 
       0.202534          655.93         601.852 
       0.208729         616.225         563.431 
       0.214876         578.273         526.089 
       0.220989         553.935         492.538 
       0.227147         522.754         464.032 
        0.23329         500.095         441.093 
       0.239377         487.311         422.786 
       0.245482         456.131         407.146 
       0.251667         450.757         392.264 
       0.257832         434.789         377.056 
       0.263955         418.388         361.012 
       0.270079         401.233          344.21 
        0.27624           393.2         327.285 
       0.282372         376.654         311.253 
        0.28843           363.3         296.886 
       0.294538         346.334         284.166 
       0.300721         342.252         273.007 
        0.30691         326.368         263.166 
       0.313033         318.896         254.209 
       0.319153         306.639          245.56 
       0.325316         298.844         236.847 
        0.33145         288.624         228.091 
       0.337538         283.966         219.416 
       0.343633         273.994         210.954 
       0.349808         264.876         202.838 
       0.355968         260.531         195.335 
       0.362074         253.801         188.548 
       0.368217         246.744         182.292 
       0.374374          238.07         176.479 
       0.380519         234.351         170.982 
       0.386598         228.225         165.711 
       0.392688         225.063         160.539 
        0.39888         219.017         155.364 
       0.405048         213.667         150.332 
       0.411186         208.966         145.505 
       0.417313         204.514         140.909 
       0.423458         200.232         136.556 
       0.429607          195.62         132.465 
       0.435692         189.637         128.644 
       0.441815         188.146         124.991 
       0.447964         184.648         121.475 
       0.454126         176.957         118.068 
       0.460267         174.921         114.766 
       0.466387         172.537          111.57 
        0.47254         168.714         108.456 
       0.478662         167.438         105.465 
       0.484765         162.226         102.603 
       0.490885         159.766         99.8597 
       0.497035         157.601          97.224 
       0.503198         153.406         94.6942 
       0.509342         151.133         92.2715 
       0.515458         148.949         89.9472 
       0.521598         146.557         87.6904 
       0.527764         144.444         85.4919 
       0.533884         142.256         83.3755 
           0.54         139.745         81.3283 
       0.546137         138.631         79.3428 
       0.552299          136.15         77.4187 
       0.558452         133.717         75.5653 
       0.564573         131.451         73.7864 
       0.570708          129.25          72.066 
       0.576825          127.66         70.4089 
       0.582926         125.275         68.8095 
       0.589034         123.513         67.2567 
       0.595184         122.001         65.7391 
       0.601379         120.517         64.2562 
       0.607522         117.815         62.8303 
       0.613639         117.352         61.4539 
       0.619772         114.813         60.1166 
       0.625918          113.53         58.8179 
       0.632068         112.276         57.5579 
       0.638161         111.134         56.3469 
         0.6443         109.631         55.1627 
       0.650464         108.427         54.0088 
       0.656582         106.843         52.8965 
       0.662703          105.18         51.8155 
       0.668861         103.778         50.7585 
       0.675024         102.646         49.7301 
       0.681124         101.697         48.7405 
       0.687237         99.8205          47.776 
       0.693381          98.597         46.8333 
       0.699536         97.6868         45.9147 
       0.705665         97.8473         45.0251 
       0.711789         95.3339         44.1604 
       0.717957         94.8894         43.3129 
        0.72409          93.475         42.4926 
       0.730186         91.9687         41.6988 
       0.736317         91.6588         40.9211 
       0.742472         90.7813         40.1605 
       0.748622         89.8274           39.42 
        0.75476         88.9238         38.6999 
       0.760888          87.665         37.9989 
       0.767043         86.9717         37.3127 
       0.773185         85.9726          36.645 
       0.779291         85.0734         35.9976 
       0.785407          84.431         35.3651 
       0.791564          83.593          34.744 
       0.797719         82.2458         34.1382 
       0.803834         81.9056         33.5509 
       0.809972         80.6335         32.9754 
       0.816124         80.2326         32.4123 
       0.822261         79.5324          31.864 
       0.828378         78.8644         31.3301 
       0.834502         78.1558          30.808 
       0.840667         77.3161         30.2946 
       0.846816         76.3584         29.7944 
       0.852925         75.7955         29.3087 
       0.859047         74.8215         28.8329 
       0.865192         74.4463         28.3662 
       0.871341         73.9367         27.9096 
       0.877463         72.8141         27.4652 
       0.883569         72.3763         27.0316 
       0.889708          71.917         26.6052 
       0.895864         71.3264          26.187 
       0.902008         70.6611         25.7787 
       0.908149         70.2115         25.3794 
       0.914301         69.5159          24.988 
       0.920448          69.009         24.6053 
       0.926574         68.3583          24.232 
       0.932687         68.1473         23.8672 
       0.938823          67.046         23.5088 
       0.944975         66.6484         23.1569 
       0.951105         66.1094         22.8135 
       0.957225           65.32         22.4777 
       0.963368         65.1703         22.1476 
       0.969511         64.7764         21.8242 
       0.975621         64.3612          21.509 
       0.981748         63.6706         21.1993 
       0.987916         63.1863         20.8938 
        0.99406         62.7864         20.5954 
        1.00019         62.1563         20.3036 
        1.00632          61.842         20.0177 
        1.01246         61.3391         19.7369 
        1.01859         60.5087          19.462 
        1.02471         60.6259         19.1927 
        1.03085          59.984         18.9276 
        1.03698         59.5394         18.6681 
        1.04314         58.9921         18.4124 
        1.04929         58.6432         18.1621 
        1.05541         58.0666         17.9175 
        1.06154         58.0319         17.6769 
        1.06769         57.5148         17.4403 
        1.07382         57.2485         17.2088 
        1.07993         56.8895         16.9821 
        1.08607          56.382         16.7585 
        1.09222         56.0951         16.5388 
        1.09836         55.6807         16.3233 
        1.10449         55.3155         16.1119 
        1.11063         54.8197          15.904 
        1.11677         54.5049         15.6999 
         1.1229         54.1252         15.4997 
        1.12903         53.4358         15.3029 
        1.13518         53.6742         15.1093 
        1.14131         53.2858         14.9192 
        1.14745         52.6078         14.7325 
        1.15359         52.5309          14.549 
        1.15973         51.9888         14.3686 
        1.16584         51.7109          14.192 
        1.17197         51.4182         14.0181 
        1.17811         51.1858         13.8467 
        1.18424         50.6753         13.6786 
        1.19038         50.4269         13.5129 
        1.19652         50.2759         13.3499 
        1.20267         49.8431         13.1897 
        1.20881         49.5813         13.0322 
        1.21495         49.1614         12.8774 
        1.22108         48.9428         12.7253 
         1.2272         48.4504         12.5759 
        1.23334          48.291         12.4287 
        1.23949         48.2156         12.2834 
        1.24562         47.7499         12.1409 
        1.25174         47.5892         12.0009 
        1.25789         47.3391         11.8627 
        1.26402         46.9319         11.7269 
        1.27014         46.5246         11.5936 
        1.27628         46.3872         11.4619 
        1.28244         46.0686         11.3321 
        1.28858         45.8965         11.2044 
        1.29471          45.709          11.079 
        1.30084         45.4489         10.9557 
        1.30697         45.1182          10.834 
        1.31312         44.7762         10.7141 
        1.31925         44.6874         10.5963 
        1.32537         44.4623         10.4804 
        1.33151         44.0443         10.3659 
        1.33765         43.9721         10.2531 
        1.34378         43.6759         10.1422 
        1.34992         43.3423         10.0329 
        1.35606         43.1099           9.925 
         1.3622         42.8746         9.81886 
        1.36833         42.6535         9.71454 
        1.37445         42.5614         9.61179 
        1.38059         42.2651         9.51022 
        1.38675         41.9507         9.40988 
        1.39288         41.8445         9.31139 
        1.39901         41.5541         9.21436 
        1.40515         41.3512          9.1185 
         1.4113         41.2164         9.02405 
        1.41742         40.9246         8.93129 
        1.42355         40.6864         8.83968 
         1.4297         40.5025         8.74907 
        1.43585         40.3615         8.65978 
        1.44198         40.0648         8.57208 
        1.44809         39.9383         8.48576 
        1.45423         39.7404         8.40032 
        1.46036          39.589         8.31621 
        1.46649         39.3108         8.23323 
        1.47263         39.0939         8.15132 
        1.47877         38.9873         8.07057 
        1.48491         38.8997         7.99078 
        1.49104         38.5575         7.91225 
        1.49718         38.1835         7.83471 
        1.50333         38.1763          7.7581 
        1.50947         38.0336         7.68267 
         1.5156         37.7672         7.60836 
        1.52172         37.6099         7.53503 
        1.52787         37.5498         7.46253 
          1.534          37.285         7.39106 
        1.54013         37.0409         7.32062 
        1.54627         36.9433         7.25096 
        1.55241         36.6666          7.1822 
        1.55855         36.5342         7.11444 
        1.56467         36.2216         7.04773 
         1.5708         36.2847          6.9817 
        1.57695         35.9685         6.91641 
        1.58308         35.8693         6.85212 
        1.58922         35.8107          6.7886 
        1.59535         35.5738         6.72591 
         1.6015         35.3029         6.66392 
        1.60764         35.1602         6.60275 
        1.61376          34.999         6.54252 
        1.61989         34.7569         6.48299 
        1.62604         34.7117         6.42407 
        1.63218         34.5758         6.36592 
        1.63831         34.3844         6.30863 
        1.64444           34.23         6.25202 
        1.65059         33.9977         6.19598 
        1.65673         33.8244         6.14068 
        1.66285         33.7158         6.08621 
        1.66898         33.5238         6.03239 
        1.67512         33.4133         5.97911 
        1.68127         33.2043         5.92644 
         1.6874         33.1009         5.87451 
        1.69353          32.927         5.82324 
        1.69967         32.7661         5.77246 
        1.70581         32.6981         5.72232 
        1.71193         32.5488         5.67295 
        1.71806         32.3002         5.62407 
        1.72421         32.1528         5.57567 
        1.73035         32.0046         5.52789 
        1.73649         31.8655         5.48069 
        1.74262         31.7408         5.43407 
        1.74876         31.7181         5.38797 
        1.75489         31.4966          5.3425 
        1.76101         31.3278         5.29757 
        1.76715         31.2277         5.25309 
        1.77329         31.1045         5.20907 
        1.77943         30.9631         5.16554 
        1.78557         30.7814         5.12257 
        1.79171         30.6562         5.08009 
        1.79785         30.5049         5.03807 
        1.80399         30.4189         4.99655 
        1.81012         30.2982         4.95555 
        1.81625         30.1167         4.91502 
        1.82239          30.039         4.87489 
        1.82853         29.8219         4.83523 
        1.83466         29.7455         4.79605 
        1.84078         29.5185         4.75735 
        1.84692         29.4542         4.71901 
        1.85306         29.3189         4.68105 
         1.8592         29.1802         4.64357 
        1.86533         29.0482         4.60652 
        1.87147         28.9559         4.56983 
        1.87761         28.8888         4.53352 
        1.88375         28.7505         4.49765 
        1.88988         28.6447         4.46222 
        1.89601          28.457         4.42714 
        1.90215         28.3801         4.39241 
        1.90829         28.3263         4.35807 
        1.91442         28.1211          4.3241 
        1.92056         28.0638         4.29052 
         1.9267          27.871         4.25726 
        1.93284         27.7135         4.22434 
        1.93897         27.6793         4.19183 
        1.94509         27.5303         4.15973 
        1.95123         27.4264         4.12788 
        1.95737         27.2715         4.09635 
        1.96349          27.189         4.06523 
        1.96964         27.0496         4.03434 
        1.97578         26.9783         4.00376 
        1.98192         26.8198         3.97356 
        1.98805         26.7604         3.94367 
        1.99419         26.6047         3.91408 
        2.00033         26.4625         3.88478 
        2.00647         26.3913          3.8558 
         2.0126         26.2792         3.82715 
        2.01874         26.1955         3.79876 
        2.02488         26.1395         3.77063 
        2.03101          25.944         3.74283 
        2.03714         25.8558         3.71534 
        2.04328         25.7242          3.6881 
        2.04941         25.6613         3.66116 
        2.05554         25.5486          3.6345 
        2.06167         25.4448         3.60807 
        2.06781         25.3335          3.5819 
        2.07396         25.2608         3.55596 
        2.08009         25.1851         3.53031 
        2.08622         25.0097         3.50495 
        2.09237          24.919         3.47979 
        2.09851         24.8327         3.45487 
        2.10464         24.7817         3.43024 
        2.11077         24.5932         3.40587 
        2.11691         24.5353          3.3817 
        2.12305         24.4568         3.35775 
        2.12918         24.4106          3.3341 
        2.13531         24.2671         3.31067 
        2.14145         24.2227         3.28741 
         2.1476         24.0574         3.26435 
        2.15372         23.9575         3.24162 
        2.15985         23.8349         3.21909 
        2.16599         23.8092         3.19671 
        2.17213          23.734         3.17457 
        2.17827         23.5409         3.15264 
         2.1844         23.4475         3.13094 
        2.19054         23.3753         3.10944 
        2.19666         23.3027         3.08817 
         2.2028         23.2222         3.06708 
        2.20893         23.1429         3.04617 
        2.21508         23.0387         3.02544 
        2.22122         22.8684          3.0049 
        2.22736         22.8812         2.98458 
        2.23349         22.7496         2.96446 
        2.23962         22.6545         2.94452 
        2.24577         22.5455         2.92474 
         2.2519         22.5098         2.90517 
        2.25802         22.3802         2.88582 
        2.26417         22.3403         2.86658 
        2.27031         22.2442          2.8475 
        2.27644         22.1385         2.82866 
        2.28257         22.0369         2.80998 
        2.28872         21.9311         2.79144 
        2.29486         21.9054         2.77307 
        2.30099           21.79          2.7549 
        2.30712         21.7367         2.73689 
        2.31326         21.6723           2.719 
         2.3194         21.5651         2.70129 
        2.32553         21.4516         2.68377 
        2.33166         21.3495         2.66641 
         2.3378         21.2738         2.64918 
        2.34394          21.213         2.63209 
        2.35007         21.1227         2.61518 
        2.35619         21.0175         2.59844 
        2.36233         20.9908         2.58181 
        2.36848         20.8565         2.56529 
        2.37462          20.782         2.54894 
        2.38075         20.7185         2.53276 
        2.38689         20.6729          2.5167 
        2.39303         20.5434         2.50079 
        2.39916         20.4611         2.48503 
        2.40529         20.3862          2.4694 
        2.41143         20.3212          2.4539 
        2.41757         20.2596         2.43853 
         2.4237         20.1494         2.42331 
        2.42983         20.0715         2.40823 
        2.43598         20.0312         2.39324 
        2.44211         19.9315          2.3784 
        2.44823          19.839         2.36371 
        2.45437         19.7706         2.34911 
        2.46052         19.7193         2.33463 
        2.46665         19.6576         2.32029 
        2.47279         19.5353         2.30607 
        2.47892         19.4975         2.29197 
        2.48507         19.4194         2.27797 
         2.4912         19.3757         2.26412 
