# k  (h/Mpc)    Pcb(k)  (Mpc/h)^3    Pcb_linear(k)  (Mpc/h)^3
     0.00783031         153.364         154.804 
       0.013688         170.331         171.634 
       0.019231         157.437         157.799 
      0.0249154         132.794         132.646 
      0.0312784         105.022         104.734 
      0.0375637         84.0488         83.8751 
      0.0433917         71.5335         71.3078 
      0.0492413         63.7082         63.6276 
      0.0555754         58.3494         58.2696 
      0.0619321         53.3744         53.5172 
       0.067871         48.3267         48.3598 
      0.0738098         42.4236         42.4154 
      0.0800417         36.1499         36.0732 
      0.0862327         30.6688         30.6003 
      0.0921407          26.723         26.6776 
      0.0982031         24.0974         24.0197 
       0.104506         22.3661         22.3733 
       0.110769         21.2887         21.3051 
       0.116806         20.3055          20.299 
       0.122832         18.9782         19.0061 
       0.129052         17.3307         17.3256 
       0.135211         15.5313         15.5017 
       0.141259          13.838         13.8202 
       0.147318         12.4496         12.4454 
       0.153489         11.4551          11.439 
       0.159709         10.7909         10.7747 
       0.165845         10.3099         10.3306 
       0.171974         9.95528         9.94333 
       0.178125         9.49379         9.49252 
       0.184229         8.92758         8.93656 
        0.19034         8.31468         8.29795 
       0.196428         7.66265         7.64986 
       0.202534         7.05291         7.06164 
       0.208729         6.58808         6.57565 
       0.214876         6.23373         6.21162 
       0.220989         5.93919           5.941 
       0.227147         5.73316         5.71758 
        0.23329         5.51493         5.50108 
       0.239377         5.28053         5.26525 
       0.245482         5.01638         5.00124 
       0.251667         4.72451         4.71861 
       0.257832         4.46206         4.44326 
       0.263955         4.20785         4.19619 
       0.270079         3.99588         3.98608 
        0.27624         3.81438         3.81132 
       0.282372          3.6683         3.66497 
        0.28843         3.54672         3.53429 
       0.294538         3.41579         3.40527 
       0.300721          3.2733         3.27042 
        0.30691          3.1418         3.13063 
       0.313033         3.00227         2.99165 
       0.319153         2.88015         2.85828 
       0.325316         2.74074         2.73458 
        0.33145         2.63101         2.62478 
       0.337538          2.5359         2.52793 
       0.343633         2.45252         2.44045 
       0.349808         2.36554         2.35738 
       0.355968         2.28281         2.27693 
       0.362074         2.20856         2.19769 
       0.368217         2.12847         2.11839 
       0.374374         2.05607         2.04064 
       0.380519         1.97616          1.9662 
       0.386598         1.90448         1.89713 
       0.392688         1.83802         1.83303 
        0.39888         1.78116         1.77261 
       0.405048         1.72545         1.71646 
       0.411186         1.67121         1.66334 
       0.417313          1.6204         1.61202 
       0.423458         1.56673         1.56189 
       0.429607         1.52242         1.51298 
       0.435692         1.47608         1.46598 
       0.441815         1.42939         1.42057 
       0.447964         1.38173         1.37722 
       0.454126         1.34477         1.33606 
       0.460267         1.30785         1.29718 
       0.466387         1.26994         1.26035 
        0.47254         1.23576         1.22488 
       0.478662         1.19982         1.19081 
       0.484765         1.16803         1.15786 
       0.490885         1.13369         1.12587 
       0.497035         1.10063          1.0948 
       0.503198         1.07344          1.0648 
       0.509342         1.04169         1.03605 
       0.515458         1.01673         1.00862 
       0.521598        0.990723        0.982243 
       0.527764        0.967443        0.956813 
       0.533884        0.938821        0.932487 
           0.54        0.916496        0.908983 
       0.546137        0.892285        0.886147 
       0.552299        0.870996        0.863963 
       0.558452        0.849912        0.842552 
       0.564573        0.829068        0.821963 
       0.570708         0.80936        0.802025 
       0.576825        0.790345        0.782822 
       0.582926        0.770392        0.764327 
       0.589034        0.754697        0.746438 
       0.595184        0.738019         0.72903 
       0.601379        0.719477         0.71207 
       0.607522        0.702466        0.695781 
       0.613639        0.685568        0.680054 
       0.619772        0.671922        0.664758 
       0.625918        0.657042        0.649895 
       0.632068         0.64261        0.635478 
       0.638161        0.628248        0.621633 
         0.6443        0.614616        0.608114 
       0.650464        0.602218         0.59496 
       0.656582        0.589861        0.582298 
       0.662703        0.577028        0.570005 
       0.668861        0.563484        0.557999 
       0.675024         0.55255        0.546327 
       0.681124        0.543736        0.535103 
       0.687237        0.531252        0.524171 
       0.693381        0.519143        0.513492 
       0.699536        0.510514        0.503093 
       0.705665        0.500461        0.493028 
       0.711789         0.48885         0.48325 
       0.717957        0.480164        0.473673 
        0.72409        0.470485        0.464411 
       0.730186        0.462957        0.455455 
       0.736317        0.452508        0.446687 
       0.742472        0.444999        0.438119 
       0.748622        0.436795        0.429784 
        0.75476        0.427918        0.421684 
       0.760888        0.420895        0.413805 
       0.767043        0.410567        0.406096 
       0.773185        0.404433          0.3986 
       0.779291        0.398359        0.391336 
       0.785407        0.390464        0.384243 
       0.791564        0.383201        0.377281 
       0.797719        0.376469        0.370496 
       0.803834        0.369696        0.363922 
       0.809972        0.363541        0.357483 
       0.816124        0.356763        0.351188 
       0.822261        0.351093        0.345061 
       0.828378        0.344813        0.339099 
       0.834502          0.3389        0.333274 
       0.840667        0.333643        0.327548 
       0.846816        0.327826        0.321974 
       0.852925        0.321796        0.316564 
       0.859047        0.316644        0.311269 
       0.865192        0.311661        0.306077 
       0.871341        0.307068        0.301001 
       0.877463        0.301152        0.296063 
       0.883569        0.296571        0.291249 
       0.889708        0.291943        0.286517 
       0.895864        0.287409        0.281879 
       0.902008        0.282426        0.277353 
       0.908149        0.278348         0.27293 
       0.914301        0.274596        0.268596 
       0.920448        0.270144        0.264361 
       0.926574        0.266414        0.260232 
       0.932687         0.26236          0.2562 
       0.938823        0.257572        0.252239 
       0.944975        0.253826        0.248353 
       0.951105         0.24957        0.244563 
       0.957225        0.245804        0.240858 
       0.963368        0.242689        0.237218 
       0.969511        0.239478        0.233653 
       0.975621        0.235181         0.23018 
       0.981748        0.231279        0.226769 
       0.987916        0.228248        0.223406 
        0.99406        0.225338        0.220123 
        1.00019        0.221866        0.216913 
        1.00632        0.219248         0.21377 
        1.01246        0.216113        0.210684 
        1.01859        0.212958        0.207665 
        1.02471        0.209508        0.204708 
        1.03085        0.206341        0.201799 
        1.03698         0.20398        0.198953 
        1.04314        0.201009        0.196149 
        1.04929        0.198794        0.193406 
        1.05541        0.195367        0.190727 
        1.06154        0.193042        0.188091 
        1.06769        0.190602        0.185502 
        1.07382        0.187994         0.18297 
        1.07993        0.185563        0.180491 
        1.08607        0.182894        0.178048 
        1.09222        0.180527        0.175647 
        1.09836        0.178143        0.173294 
        1.10449        0.175602        0.170987 
        1.11063        0.173372        0.168719 
        1.11677         0.17145        0.166493 
         1.1229        0.168795        0.164311 
        1.12903         0.16687        0.162167 
        1.13518        0.164648        0.160059 
        1.14131        0.162649         0.15799 
        1.14745        0.161157        0.155958 
        1.15359        0.158716        0.153962 
        1.15973        0.156997           0.152 
        1.16584        0.154813        0.150081 
        1.17197        0.152684        0.148192 
        1.17811        0.150825         0.14633 
        1.18424        0.148994        0.144505 
        1.19038        0.146918        0.142707 
        1.19652        0.145702        0.140939 
        1.20267        0.143866        0.139201 
        1.20881        0.141626        0.137493 
        1.21495        0.140165        0.135816 
        1.22108        0.138656        0.134168 
         1.2272        0.136757         0.13255 
        1.23334        0.135264        0.130956 
        1.23949        0.133904        0.129384 
        1.24562        0.132233        0.127842 
        1.25174        0.130787        0.126328 
        1.25789        0.128811        0.124833 
        1.26402        0.127816        0.123365 
        1.27014        0.125914        0.121925 
        1.27628        0.124756        0.120503 
        1.28244        0.123345        0.119101 
        1.28858        0.121719        0.117723 
        1.29471        0.120506         0.11637 
        1.30084        0.119048         0.11504 
        1.30697        0.118066        0.113728 
        1.31312          0.1167        0.112435 
        1.31925        0.115294        0.111166 
        1.32537        0.114089        0.109918 
        1.33151        0.112811        0.108685 
        1.33765        0.111448        0.107471 
        1.34378         0.11018        0.106278 
        1.34992        0.109346        0.105102 
        1.35606           0.108        0.103942 
         1.3622        0.106844        0.102801 
        1.36833        0.105884         0.10168 
        1.37445        0.104767        0.100577 
        1.38059        0.103572       0.0994861 
        1.38675        0.102346        0.098409 
        1.39288        0.101108       0.0973521 
        1.39901        0.100404       0.0963111 
        1.40515       0.0992618        0.095283 
         1.4113       0.0983571       0.0942703 
        1.41742       0.0973811       0.0932762 
        1.42355       0.0959675       0.0922945 
         1.4297       0.0953719       0.0913239 
        1.43585       0.0942266       0.0903677 
        1.44198       0.0933583       0.0894288 
        1.44809        0.092397        0.088505 
        1.45423       0.0914223       0.0875908 
        1.46036       0.0905292       0.0866911 
        1.46649       0.0896015       0.0858038 
        1.47263       0.0884853       0.0849281 
        1.47877       0.0880937        0.084065 
        1.48491       0.0868394       0.0832125 
        1.49104       0.0863523       0.0823736 
        1.49718       0.0853392       0.0815456 
        1.50333       0.0845482       0.0807276 
        1.50947        0.083736       0.0799225 
         1.5156       0.0829301       0.0791296 
        1.52172       0.0821255       0.0783474 
        1.52787        0.081176       0.0775742 
          1.534       0.0806167       0.0768123 
        1.54013       0.0797098       0.0760614 
        1.54627       0.0791318       0.0753192 
        1.55241       0.0783252       0.0745868 
        1.55855       0.0775968       0.0738651 
        1.56467       0.0769243        0.073155 
         1.5708       0.0761734       0.0724522 
        1.57695       0.0754613       0.0717575 
        1.58308       0.0745606       0.0710735 
        1.58922        0.074069       0.0703979 
        1.59535       0.0732953       0.0697314 
         1.6015       0.0727592       0.0690725 
        1.60764       0.0719632       0.0684225 
        1.61376       0.0713683       0.0677825 
        1.61989       0.0706846       0.0671503 
        1.62604       0.0700957       0.0665246 
        1.63218       0.0694775       0.0659074 
        1.63831       0.0688399       0.0652993 
        1.64444       0.0682461       0.0646987 
        1.65059       0.0674784       0.0641042 
        1.65673       0.0670127       0.0635178 
        1.66285       0.0665263       0.0629403 
        1.66898       0.0657729       0.0623699 
        1.67512       0.0652509       0.0618054 
        1.68127       0.0646645       0.0612473 
         1.6874       0.0641481       0.0606974 
        1.69353       0.0635965       0.0601545 
        1.69967       0.0628852       0.0596169 
        1.70581       0.0625999       0.0590862 
        1.71193       0.0620453       0.0585639 
        1.71806       0.0614318       0.0580467 
        1.72421       0.0608404       0.0575348 
        1.73035       0.0604035       0.0570296 
        1.73649       0.0598992       0.0565306 
        1.74262       0.0593693       0.0560379 
        1.74876        0.058985       0.0555507 
        1.75489       0.0583916       0.0550704 
        1.76101       0.0579704       0.0545958 
        1.76715       0.0574912       0.0541261 
        1.77329       0.0569309       0.0536614 
        1.77943       0.0564516        0.053202 
        1.78557       0.0561202       0.0527485 
        1.79171       0.0556519       0.0523003 
        1.79785       0.0551043       0.0518572 
        1.80399       0.0546289       0.0514193 
        1.81012       0.0542631        0.050987 
        1.81625         0.05386       0.0505599 
        1.82239       0.0534696        0.050137 
        1.82853        0.052972       0.0497191 
        1.83466       0.0525589       0.0493064 
        1.84078       0.0521565       0.0488988 
        1.84692       0.0517709       0.0484951 
        1.85306       0.0513524       0.0480955 
         1.8592       0.0509746        0.047701 
        1.86533       0.0505815       0.0473111 
        1.87147       0.0501502       0.0469252 
        1.87761       0.0497141       0.0465433 
        1.88375       0.0492625       0.0461661 
        1.88988        0.048993       0.0457936 
        1.89601       0.0485696       0.0454249 
        1.90215       0.0481675       0.0450599 
        1.90829       0.0477663       0.0446992 
        1.91442       0.0474915       0.0443423 
        1.92056       0.0471244       0.0439896 
         1.9267       0.0467653       0.0436405 
        1.93284       0.0463347       0.0432948 
        1.93897       0.0459817       0.0429536 
        1.94509       0.0456877       0.0426168 
        1.95123       0.0453261       0.0422827 
        1.95737       0.0450772        0.041952 
        1.96349        0.044755       0.0416256 
        1.96964       0.0443401       0.0413018 
        1.97578       0.0440533       0.0409812 
        1.98192       0.0437225       0.0406647 
        1.98805       0.0434327       0.0403515 
        1.99419       0.0431302       0.0400415 
        2.00033       0.0427354       0.0397347 
        2.00647       0.0424593       0.0394311 
         2.0126       0.0422236       0.0391312 
        2.01874       0.0418414       0.0388339 
        2.02488        0.041537       0.0385395 
        2.03101       0.0412292       0.0382487 
        2.03714       0.0410971       0.0379611 
        2.04328       0.0406084       0.0376762 
        2.04941       0.0404197       0.0373944 
        2.05554       0.0401632       0.0371156 
        2.06167       0.0398076       0.0368394 
        2.06781       0.0395213       0.0365659 
        2.07396       0.0392482       0.0362947 
        2.08009       0.0389771       0.0360268 
        2.08622       0.0387397       0.0357619 
        2.09237       0.0384588       0.0354991 
        2.09851       0.0381808       0.0352389 
        2.10464       0.0379407       0.0349818 
        2.11077       0.0376366       0.0347275 
        2.11691       0.0374377       0.0344751 
        2.12305       0.0370879       0.0342253 
        2.12918        0.036867       0.0339785 
        2.13531       0.0366222       0.0337341 
        2.14145       0.0363732       0.0334916 
         2.1476       0.0361583       0.0332511 
        2.15372       0.0359077       0.0330142 
        2.15985       0.0356681       0.0327794 
        2.16599       0.0353554       0.0325461 
        2.17213       0.0352145       0.0323154 
        2.17827       0.0349621        0.032087 
         2.1844       0.0347034       0.0318609 
        2.19054       0.0345037        0.031637 
        2.19666       0.0342709       0.0314155 
         2.2028       0.0339722        0.031196 
        2.20893       0.0338282       0.0309784 
        2.21508       0.0335439       0.0307626 
        2.22122       0.0333066       0.0305489 
        2.22736       0.0331383       0.0303375 
        2.23349        0.032928       0.0301283 
        2.23962       0.0327467       0.0299209 
        2.24577       0.0325243       0.0297152 
         2.2519       0.0322771       0.0295118 
        2.25802       0.0321123       0.0293106 
        2.26417       0.0319103       0.0291107 
        2.27031        0.031698       0.0289125 
        2.27644       0.0315449       0.0287167 
        2.28257       0.0312783       0.0285227 
        2.28872       0.0311038       0.0283301 
        2.29486       0.0309303       0.0281393 
        2.30099        0.030703       0.0279507 
        2.30712       0.0305751       0.0277637 
        2.31326       0.0303005       0.0275781 
         2.3194       0.0301458       0.0273943 
        2.32553       0.0299729       0.0272125 
        2.33166       0.0297418       0.0270324 
         2.3378        0.029575       0.0268537 
        2.34394       0.0294096       0.0266765 
        2.35007       0.0292372       0.0265012 
        2.35619        0.029128       0.0263277 
        2.36233       0.0288689       0.0261553 
        2.36848       0.0287002       0.0259841 
        2.37462       0.0285608       0.0258147 
        2.38075       0.0283734       0.0256471 
        2.38689       0.0282152       0.0254807 
        2.39303       0.0280603       0.0253159 
        2.39916       0.0278296       0.0251527 
        2.40529       0.0276687        0.024991 
        2.41143       0.0274889       0.0248305 
        2.41757        0.027369       0.0246714 
         2.4237       0.0271899        0.024514 
        2.42983       0.0270236       0.0243579 
        2.43598       0.0268647       0.0242028 
        2.44211       0.0266845       0.0240493 
        2.44823       0.0265722       0.0238975 
        2.45437       0.0263945       0.0237465 
        2.46052       0.0262545       0.0235967 
        2.46665       0.0260948       0.0234485 
        2.47279       0.0259745       0.0233016 
        2.47892       0.0258442       0.0231559 
        2.48507       0.0256459       0.0230112 
         2.4912       0.0255239       0.0228681 
