# k  (h/Mpc)    Pcb(k)  (Mpc/h)^3    Pcb_linear(k)  (Mpc/h)^3
     0.00783031         7141.07         7170.53 
       0.013688         9293.41         9481.57 
       0.019231         10106.1         10224.5 
      0.0249154         10050.9         10062.2 
      0.0312784         9193.12         9289.78 
      0.0375637         8188.87         8330.38 
      0.0433917         7436.97         7497.81 
      0.0492413          6703.2         6814.35 
      0.0555754         6191.71         6257.21 
      0.0619321          5629.6         5840.06 
       0.067871         5378.36         5513.42 
      0.0738098         5085.29         5192.06 
      0.0800417         4733.02         4825.85 
      0.0862327         4321.09         4428.65 
      0.0921407          3947.1         4038.64 
      0.0982031         3614.16         3658.17 
       0.104506         3240.84         3313.52 
       0.110769         2987.14         3039.08 
       0.116806         2842.58         2838.75 
       0.122832         2662.72         2689.18 
       0.129052         2545.51         2567.21 
       0.135211          2469.7         2457.17 
       0.141259         2323.13         2343.15 
       0.147318         2167.34         2215.24 
       0.153489         2052.83         2072.16 
       0.159709          1954.1         1923.54 
       0.165845         1781.24         1783.83 
       0.171974         1724.07         1660.74 
       0.178125         1648.11         1558.97 
       0.184229         1527.84         1479.65 
        0.19034         1497.87         1417.71 
       0.196428         1454.24         1366.74 
       0.202534         1371.39         1319.24 
       0.208729         1348.76         1268.91 
       0.214876         1299.88         1213.82 
       0.220989         1221.92         1154.11 
       0.227147         1193.33          1091.7 
        0.23329         1146.18         1031.02 
       0.239377         1123.73         976.024 
       0.245482         1066.71         928.256 
       0.251667         1025.59         887.958 
       0.257832         1014.39          854.84 
       0.263955         964.556         826.754 
       0.270079         937.733         800.874 
        0.27624         899.997         774.873 
       0.282372         884.513          747.62 
        0.28843         877.489         719.068 
       0.294538         834.053         689.292 
       0.300721         809.839         659.362 
        0.30691         796.266         630.985 
       0.313033         763.457         605.465 
       0.319153         751.465         582.998 
       0.325316         738.607         563.255 
        0.33145         724.106         545.905 
       0.337538         699.459         530.061 
       0.343633         680.217         514.763 
       0.349808         664.671         499.184 
       0.355968         652.723         483.268 
       0.362074         633.919         467.202 
       0.368217         629.558         451.058 
       0.374374         618.116         435.375 
       0.380519         594.826         420.605 
       0.386598         588.365         407.141 
       0.392688         576.994         394.856 
        0.39888         561.684         383.444 
       0.405048         553.273         372.924 
       0.411186         550.239         362.957 
       0.417313         543.684         353.234 
       0.423458         527.771         343.563 
       0.429607         515.222         333.875 
       0.435692         507.029         324.356 
       0.441815         499.445         314.979 
       0.447964         489.135         305.897 
       0.454126         482.939         297.252 
       0.460267         475.829         289.176 
       0.466387         468.858         281.635 
        0.47254         462.108          274.49 
       0.478662         451.559         267.735 
       0.484765         447.354         261.243 
       0.490885         442.783         254.876 
       0.497035         435.155         248.578 
       0.503198         433.711         242.375 
       0.509342         422.743         236.312 
       0.515458          417.22          230.43 
       0.521598         410.115          224.73 
       0.527764         404.352         219.253 
       0.533884         403.485         214.072 
           0.54         396.933         209.124 
       0.546137         388.719         204.363 
       0.552299         388.075         199.762 
       0.558452          382.09         195.314 
       0.564573          378.05         190.998 
       0.570708         373.292         186.759 
       0.576825         366.948         182.624 
       0.582926         363.707         178.604 
       0.589034         359.231         174.695 
       0.595184         356.971         170.885 
       0.601379         350.591         167.175 
       0.607522         345.153         163.623 
       0.613639         343.075          160.21 
       0.619772         341.232         156.907 
       0.625918          336.75           153.7 
       0.632068         331.412          150.58 
       0.638161         328.361         147.566 
         0.6443         326.515         144.597 
       0.650464         321.532         141.687 
       0.656582         318.732         138.873 
       0.662703         316.596         136.135 
       0.668861         311.555          133.46 
       0.675024         310.152         130.863 
       0.681124         306.688         128.366 
       0.687237         303.672         125.933 
       0.693381         301.052         123.554 
       0.699536         297.472         121.233 
       0.705665         294.515         118.982 
       0.711789         292.553         116.791 
       0.717957         288.944         114.639 
        0.72409           286.7         112.553 
       0.730186         287.393         110.531 
       0.736317          282.32         108.546 
       0.742472         278.817         106.603 
       0.748622         275.498         104.708 
        0.75476         276.068         102.865 
       0.760888         272.761         101.069 
       0.767043         269.744         99.3104 
       0.773185         268.022         97.5987 
       0.779291         264.082         95.9383 
       0.785407         263.106         94.3149 
       0.791564         260.437         92.7196 
       0.797719         256.918         91.1623 
       0.803834         258.196         89.6509 
       0.809972         255.747         88.1682 
       0.816124         252.505         86.7157 
       0.822261         249.719         85.2999 
       0.828378         250.061         83.9199 
       0.834502         245.804         82.5694 
       0.840667         245.474         81.2401 
       0.846816         242.428         79.9441 
       0.852925         240.964         78.6848 
       0.859047         238.438         77.4503 
       0.865192         238.188         76.2385 
       0.871341          234.93         75.0522 
       0.877463          233.02         73.8967 
       0.883569         232.712         72.7688 
       0.889708         230.832         71.6588 
       0.895864          228.79         70.5694 
       0.902008         226.813         69.5052 
       0.908149         224.614         68.4637 
       0.914301          224.14          67.442 
       0.920448         222.679         66.4423 
       0.926574         220.422         65.4665 
       0.932687         219.306         64.5126 
       0.938823          217.66         63.5744 
       0.944975         215.779         62.6528 
       0.951105         214.154          61.753 
       0.957225         213.274         60.8724 
       0.963368         211.645         60.0062 
       0.969511         209.013         59.1569 
       0.975621         208.013         58.3287 
       0.981748         206.443         57.5144 
       0.987916         205.512         56.7106 
        0.99406          204.01         55.9252 
        1.00019         202.742         55.1564 
        1.00632         201.956         54.4029 
        1.01246         200.328         53.6623 
        1.01859         198.486         52.9369 
        1.02471          197.04         52.2258 
        1.03085         196.103         51.5255 
        1.03698         194.506         50.8395 
        1.04314         193.967         50.1632 
        1.04929         192.877         49.5008 
        1.05541         191.402         48.8532 
        1.06154         190.293         48.2156 
        1.06769         188.329         47.5885 
        1.07382         187.769         46.9747 
        1.07993         186.425         46.3732 
        1.08607         184.767         45.7798 
        1.09222         184.088         45.1963 
        1.09836         182.703         44.6237 
        1.10449          181.13         44.0617 
        1.11063         180.184         43.5089 
        1.11677         179.437         42.9658 
         1.1229         177.906         42.4329 
        1.12903          177.39         41.9087 
        1.13518         176.116          41.393 
        1.14131         175.057         40.8863 
        1.14745         173.589         40.3884 
        1.15359         171.958         39.8987 
        1.15973         171.523          39.417 
        1.16584         170.701         38.9455 
        1.17197         169.706         38.4811 
        1.17811         168.127         38.0228 
        1.18424         167.255         37.5734 
        1.19038         166.462           37.13 
        1.19652         165.051         36.6939 
        1.20267         164.257         36.2649 
        1.20881         163.151         35.8429 
        1.21495         162.797         35.4282 
        1.22108         161.338         35.0203 
         1.2272         160.242         34.6197 
        1.23334         159.749         34.2246 
        1.23949         159.148         33.8347 
        1.24562         157.687         33.4519 
        1.25174         156.319         33.0757 
        1.25789         156.014         32.7042 
        1.26402         155.232          32.339 
        1.27014         154.218         31.9804 
        1.27628         152.442         31.6261 
        1.28244         152.231         31.2765 
        1.28858         151.085         30.9327 
        1.29471         150.169         30.5949 
        1.30084          149.37         30.2624 
        1.30697         148.866         29.9345 
        1.31312         147.792         29.6109 
        1.31925          146.53         29.2931 
        1.32537         146.138         28.9804 
        1.33151         145.391         28.6711 
        1.33765         143.906         28.3665 
        1.34378         144.016          28.067 
        1.34992         143.229         27.7716 
        1.35606         142.059         27.4798 
         1.3622         141.646         27.1928 
        1.36833         140.076         26.9106 
        1.37445          139.77         26.6326 
        1.38059         138.923         26.3576 
        1.38675         138.023         26.0859 
        1.39288         137.292         25.8191 
        1.39901         136.126         25.5562 
        1.40515         135.877         25.2964 
         1.4113         135.145         25.0403 
        1.41742          134.06         24.7887 
        1.42355         133.608         24.5401 
         1.4297         132.644         24.2942 
        1.43585         131.712         24.0518 
        1.44198         130.887         23.8136 
        1.44809         130.026         23.5791 
        1.45423         129.669          23.347 
        1.46036         128.704         23.1183 
        1.46649         127.931         22.8927 
        1.47263         127.624         22.6699 
        1.47877         126.558         22.4501 
        1.48491         125.766          22.233 
        1.49104         124.609         22.0191 
        1.49718         124.736          21.808 
        1.50333         123.884         21.5993 
        1.50947         123.308         21.3937 
         1.5156          122.53         21.1912 
        1.52172         121.751         20.9912 
        1.52787          121.01         20.7935 
          1.534         120.669         20.5986 
        1.54013         119.939         20.4063 
        1.54627         118.962         20.2162 
        1.55241         118.376         20.0285 
        1.55855         117.827         19.8434 
        1.56467         116.815         19.6612 
         1.5708         116.527         19.4808 
        1.57695         115.967         19.3023 
        1.58308         115.281         19.1266 
        1.58922         114.916         18.9529 
        1.59535         114.313         18.7814 
         1.6015         113.485         18.6118 
        1.60764         112.733         18.4444 
        1.61376           112.1         18.2795 
        1.61989         111.491         18.1165 
        1.62604         110.905         17.9552 
        1.63218         110.526         17.7959 
        1.63831         109.614         17.6389 
        1.64444         109.102         17.4838 
        1.65059         108.421         17.3301 
        1.65673         107.798         17.1785 
        1.66285         107.285         17.0291 
        1.66898         106.526         16.8815 
        1.67512         106.276         16.7353 
        1.68127         105.563         16.5907 
         1.6874          104.97         16.4482 
        1.69353         104.276         16.3074 
        1.69967         104.079         16.1679 
        1.70581         103.467         16.0302 
        1.71193         102.835         15.8945 
        1.71806         102.018         15.7602 
        1.72421         101.631         15.6271 
        1.73035         101.368         15.4957 
        1.73649         100.595         15.3659 
        1.74262         99.8942         15.2377 
        1.74876         99.4759         15.1108 
        1.75489         98.8092         14.9857 
        1.76101         98.2831          14.862 
        1.76715         97.8134         14.7395 
        1.77329         97.2345         14.6183 
        1.77943         96.7755         14.4984 
        1.78557         96.4007           14.38 
        1.79171         95.7884         14.2629 
        1.79785          95.172         14.1471 
        1.80399         94.7387         14.0327 
        1.81012         94.1213         13.9196 
        1.81625         93.8799         13.8078 
        1.82239         93.5216         13.6971 
        1.82853         92.7311         13.5877 
        1.83466         92.1792         13.4796 
        1.84078         91.7946         13.3728 
        1.84692         91.4818         13.2669 
        1.85306         90.9344         13.1621 
         1.8592         90.5051         13.0586 
        1.86533            89.9         12.9562 
        1.87147         89.3692         12.8548 
        1.87761         88.8594         12.7545 
        1.88375         88.2892         12.6554 
        1.88988         87.8792         12.5574 
        1.89601         87.4341         12.4604 
        1.90215         86.9156         12.3644 
        1.90829         86.5033         12.2694 
        1.91442         86.1698         12.1754 
        1.92056         85.5896         12.0825 
         1.9267         85.2384         11.9904 
        1.93284         84.8922         11.8993 
        1.93897          84.465         11.8093 
        1.94509         83.8776         11.7204 
        1.95123         83.5581         11.6322 
        1.95737         82.8321         11.5448 
        1.96349         82.5758         11.4586 
        1.96964         82.1805          11.373 
        1.97578         81.6169         11.2883 
        1.98192         81.2439         11.2045 
        1.98805         80.7512         11.1217 
        1.99419         80.2624         11.0396 
        2.00033         79.7907         10.9584 
        2.00647         79.6285         10.8779 
         2.0126         79.1333         10.7985 
        2.01874         78.7632         10.7197 
        2.02488         78.4262         10.6416 
        2.03101         77.9771         10.5644 
        2.03714         77.7165         10.4881 
        2.04328         77.1878         10.4125 
        2.04941         76.5488         10.3376 
        2.05554          76.448         10.2636 
        2.06167         76.0807         10.1902 
        2.06781         75.4361         10.1174 
        2.07396         75.1562         10.0453 
        2.08009         74.8616         9.97406 
        2.08622         74.3825         9.90356 
        2.09237         73.9332          9.8336 
        2.09851         73.5069          9.7643 
        2.10464          73.259         9.69579 
        2.11077         72.8666         9.62802 
        2.11691         72.5502         9.56075 
        2.12305         72.0595         9.49411 
        2.12918         71.6754         9.42828 
        2.13531         71.3806         9.36306 
        2.14145         70.8479         9.29831 
         2.1476         70.5923          9.2341 
        2.15372         70.2922         9.17082 
        2.15985         69.8598         9.10807 
        2.16599          69.456         9.04573 
        2.17213         69.2005         8.98404 
        2.17827         68.7225         8.92294 
         2.1844         68.4575         8.86246 
        2.19054         68.0983         8.80252 
        2.19666         67.6278         8.74323 
         2.2028         67.4914         8.68443 
        2.20893         66.9756         8.62614 
        2.21508         66.6264         8.56832 
        2.22122         66.2235         8.51101 
        2.22736         65.9164         8.45435 
        2.23349         65.7279         8.39822 
        2.23962          65.336         8.34256 
        2.24577         64.9981         8.28737 
         2.2519         64.6647         8.23274 
        2.25802         64.3624          8.1787 
        2.26417         63.9612           8.125 
        2.27031         63.6245         8.07172 
        2.27644         63.3518         8.01908 
        2.28257         63.0896         7.96692 
        2.28872         62.8019         7.91512 
        2.29486         62.5371         7.86379 
        2.30099         62.0125         7.81302 
        2.30712         61.8472         7.76268 
        2.31326         61.4922         7.71269 
         2.3194         61.1513         7.66318 
        2.32553         60.9608         7.61418 
        2.33166         60.4297         7.56564 
         2.3378         60.1767         7.51745 
        2.34394         59.9142         7.46967 
        2.35007          59.569         7.42237 
        2.35619         59.3556         7.37553 
        2.36233         58.9376           7.329 
        2.36848         58.6706         7.28276 
        2.37462         58.3842         7.23703 
        2.38075         58.1456         7.19173 
        2.38689         57.8404         7.14678 
        2.39303         57.6567         7.10222 
        2.39916          57.371         7.05809 
        2.40529         56.9677         7.01434 
        2.41143         56.7112         6.97093 
        2.41757          56.365         6.92786 
         2.4237         56.2469         6.88524 
        2.42983           55.77         6.84298 
        2.43598         55.5179         6.80097 
        2.44211          55.317         6.75937 
        2.44823         55.0262         6.71822 
        2.45437         54.7603          6.6773 
        2.46052         54.4249         6.63669 
        2.46665         54.1557         6.59648 
        2.47279         53.9574         6.55662 
        2.47892          53.649         6.51707 
        2.48507         53.3832          6.4778 
         2.4912         53.1039         6.43894 
