# k  (h/Mpc)    Pcb(k)  (Mpc/h)^3    Pcb_linear(k)  (Mpc/h)^3
     0.00783031         189.664         191.204 
       0.013688         251.029         251.881 
       0.019231         269.492         269.767 
      0.0249154         263.079         264.078 
      0.0312784         243.407         243.649 
      0.0375637         220.137         219.911 
      0.0433917         200.055         200.193 
      0.0492413         184.445         184.347 
      0.0555754         170.805          171.12 
      0.0619321         160.454         160.164 
       0.067871         150.082         150.334 
      0.0738098         139.598         139.909 
      0.0800417         127.762         128.204 
      0.0862327         116.233          116.44 
      0.0921407         105.882         105.967 
      0.0982031         96.5353         96.7146 
       0.104506         89.1706         89.0407 
       0.110769         83.2929         83.2242 
       0.116806         78.6389         78.8341 
       0.122832         75.0129         75.0374 
       0.129052         70.9726         71.1813 
       0.135211         66.8613         67.1076 
       0.141259         62.7509         62.8373 
       0.147318          58.552           58.49 
       0.153489         54.2607         54.2903 
       0.159709         50.5445         50.5573 
       0.165845         47.6984         47.4965 
       0.171974         45.0152         45.0332 
       0.178125         43.0159         43.0129 
       0.184229         41.3304         41.2566 
        0.19034         39.4481         39.5601 
       0.196428         37.8126         37.8103 
       0.202534         36.1232          35.963 
       0.208729          34.114         34.0421 
       0.214876         32.1611         32.1824 
       0.220989         30.6612         30.4725 
       0.227147         28.9482         28.9523 
        0.23329         27.6599         27.6516 
       0.239377         26.5866         26.5457 
       0.245482          25.544         25.5621 
       0.251667         24.7239         24.6287 
       0.257832         23.7636         23.7099 
       0.263955         22.8592         22.7839 
       0.270079         21.9396         21.8453 
        0.27624         21.0969          20.912 
       0.282372          20.201         20.0229 
        0.28843         19.3253         19.2084 
       0.294538         18.5913         18.4641 
       0.300721         17.9828         17.7875 
        0.30691          17.296         17.1737 
       0.313033         16.7452         16.6087 
       0.319153          16.091         16.0673 
       0.325316          15.714         15.5319 
        0.33145         15.1622         15.0041 
       0.337538          14.644         14.4873 
       0.343633         14.1189         13.9845 
       0.349808         13.6631         13.4986 
       0.355968         13.2145         13.0431 
       0.362074         12.7839         12.6234 
       0.368217         12.3994         12.2302 
       0.374374         11.9829         11.8609 
       0.380519         11.6771         11.5103 
       0.386598         11.3568         11.1755 
       0.392688          11.052         10.8491 
        0.39888         10.7109         10.5246 
       0.405048         10.4093         10.2101 
       0.411186         10.1212         9.90787 
       0.417313         9.79607         9.61856 
       0.423458         9.54594          9.3425 
       0.429607         9.25954         9.08061 
       0.435692         9.01023         8.83425 
       0.441815         8.78405         8.59764 
       0.447964         8.59472         8.36952 
       0.454126         8.32831         8.14851 
       0.460267          8.1142         7.93473 
       0.466387         7.89183           7.728 
        0.47254         7.70996         7.52641 
       0.478662         7.52882         7.33246 
       0.484765         7.32707         7.14622 
       0.490885         7.14665         6.96689 
       0.497035         7.01827         6.79381 
       0.503198         6.83094         6.62712 
       0.509342         6.67961         6.46711 
       0.515458         6.50963         6.31335 
       0.521598         6.36781         6.16386 
       0.527764         6.20633         6.01818 
       0.533884         6.09086         5.87787 
           0.54         5.94837         5.74197 
       0.546137         5.82574         5.60989 
       0.552299         5.69486         5.48156 
       0.558452         5.54647         5.35766 
       0.564573         5.44582         5.23847 
       0.570708         5.33209         5.12296 
       0.576825         5.20633         5.01148 
       0.582926         5.11401          4.9037 
       0.589034          4.9738         4.79893 
       0.595184         4.88355         4.69643 
       0.601379         4.78168         4.59617 
       0.607522         4.70154         4.49963 
       0.613639          4.6259          4.4063 
       0.619772         4.50754         4.31546 
       0.625918         4.43025         4.22708 
       0.632068         4.35612          4.1412 
       0.638161         4.25847         4.05855 
         0.6443         4.17385         3.97761 
       0.650464          4.0838         3.89865 
       0.656582         4.02366         3.82244 
       0.662703         3.95006         3.74826 
       0.668861         3.88666         3.67565 
       0.675024          3.8034          3.6049 
       0.681124         3.72587         3.53674 
       0.687237         3.67335         3.47022 
       0.693381          3.6096         3.40512 
       0.699536          3.5196         3.34161 
       0.705665         3.46452         3.28003 
       0.711789         3.41192          3.2201 
       0.717957         3.34577         3.16128 
        0.72409           3.292         3.10429 
       0.730186         3.23436         3.04907 
       0.736317         3.19633         2.99491 
       0.742472         3.13935         2.94187 
       0.748622         3.08086         2.89018 
        0.75476         3.01796         2.83985 
       0.760888         2.97149         2.79081 
       0.767043          2.9393         2.74275 
       0.773185         2.87906         2.69593 
       0.779291         2.83734         2.65049 
       0.785407          2.7928         2.60605 
       0.791564         2.74869         2.56236 
       0.797719         2.71071         2.51971 
       0.803834         2.66982         2.47831 
       0.809972         2.62781         2.43771 
       0.816124          2.5815         2.39794 
       0.822261         2.53755         2.35918 
       0.828378          2.5064          2.3214 
       0.834502         2.47457         2.28443 
       0.840667         2.42473         2.24803 
       0.846816         2.39004         2.21254 
       0.852925          2.3651         2.17805 
       0.859047         2.32962         2.14423 
       0.865192         2.29347         2.11103 
       0.871341         2.25951         2.07852 
       0.877463         2.23606         2.04685 
       0.883569          2.1956         2.01593 
       0.889708         2.16243         1.98549 
       0.895864         2.13492         1.95562 
       0.902008         2.10015         1.92643 
       0.908149          2.0726         1.89786 
       0.914301         2.03448         1.86983 
       0.920448          2.0112          1.8424 
       0.926574         1.98192         1.81562 
       0.932687         1.95689         1.78944 
       0.938823         1.93841         1.76368 
       0.944975         1.90915         1.73838 
       0.951105         1.88583         1.71367 
       0.957225          1.8667         1.68949 
       0.963368         1.83927          1.6657 
       0.969511         1.81117         1.64237 
       0.975621         1.78338         1.61962 
       0.981748         1.76866         1.59725 
       0.987916         1.74413         1.57516 
        0.99406         1.71809         1.55357 
        1.00019         1.70201         1.53244 
        1.00632         1.67437         1.51173 
        1.01246          1.6539         1.49137 
        1.01859         1.63675         1.47142 
        1.02471           1.614         1.45186 
        1.03085         1.59943          1.4326 
        1.03698         1.57513         1.41373 
        1.04314         1.55828         1.39513 
        1.04929         1.53653          1.3769 
        1.05541         1.52127         1.35908 
        1.06154          1.5005         1.34153 
        1.06769         1.48147         1.32427 
        1.07382         1.46651         1.30737 
        1.07993         1.44437         1.29081 
        1.08607          1.4352         1.27447 
        1.09222         1.41408          1.2584 
        1.09836         1.40387         1.24263 
        1.10449          1.3864         1.22715 
        1.11063         1.36585         1.21192 
        1.11677          1.3487         1.19696 
         1.1229         1.33541         1.18228 
        1.12903         1.31832         1.16783 
        1.13518         1.30804         1.15362 
        1.14131         1.28972         1.13965 
        1.14745         1.26865         1.12592 
        1.15359         1.26157         1.11242 
        1.15973         1.24222         1.09914 
        1.16584         1.23703         1.08614 
        1.17197         1.22035         1.07333 
        1.17811         1.20797         1.06069 
        1.18424         1.19961         1.04829 
        1.19038         1.18206         1.03605 
        1.19652         1.16669         1.02402 
        1.20267         1.15932         1.01218 
        1.20881         1.14312         1.00053 
        1.21495         1.13516        0.989089 
        1.22108         1.12273        0.977826 
         1.2272           1.113        0.966766 
        1.23334         1.09917        0.955853 
        1.23949         1.08744        0.945084 
        1.24562         1.07746        0.934512 
        1.25174         1.06669        0.924119 
        1.25789         1.05697        0.913854 
        1.26402         1.04232        0.903764 
        1.27014         1.03274        0.893853 
        1.27628         1.02607        0.884062 
        1.28244         1.01087          0.8744 
        1.28858         1.00266        0.864896 
        1.29471        0.995391        0.855557 
        1.30084        0.982887        0.846365 
        1.30697        0.973784        0.837295 
        1.31312        0.960105        0.828346 
        1.31925        0.953993        0.819558 
        1.32537         0.94622        0.810906 
        1.33151        0.938213         0.80235 
        1.33765        0.928376        0.793923 
        1.34378        0.916544        0.785636 
        1.34992        0.911289        0.777461 
        1.35606        0.900837        0.769386 
         1.3622        0.893203        0.761442 
        1.36833        0.884541        0.753629 
        1.37445        0.873619        0.745931 
        1.38059        0.865875        0.738318 
        1.38675        0.864496        0.730794 
        1.39288        0.852457        0.723406 
        1.39901         0.84521        0.716123 
        1.40515        0.838243        0.708926 
         1.4113        0.828481        0.701831 
        1.41742        0.821156         0.69486 
        1.42355        0.817734        0.687972 
         1.4297        0.806907        0.681158 
        1.43585        0.800713        0.674439 
        1.44198        0.796718        0.667836 
        1.44809        0.786071        0.661336 
        1.45423        0.780015        0.654898 
        1.46036        0.773095        0.648559 
        1.46649        0.767285        0.642302 
        1.47263        0.759315        0.636123 
        1.47877         0.75182        0.630028 
        1.48491        0.746367        0.624005 
        1.49104        0.738466        0.618073 
        1.49718        0.733762        0.612215 
        1.50333         0.72788        0.606424 
        1.50947        0.721732         0.60072 
         1.5156        0.714966        0.595098 
        1.52172        0.709179        0.589549 
        1.52787        0.702685         0.58406 
          1.534        0.697841        0.578648 
        1.54013        0.689859        0.573311 
        1.54627        0.685759        0.568032 
        1.55241        0.679201        0.562818 
        1.55855        0.672252        0.557678 
        1.56467        0.670464        0.552617 
         1.5708        0.663033        0.547605 
        1.57695        0.658634        0.542648 
        1.58308        0.652652        0.537764 
        1.58922        0.647864        0.532938 
        1.59535        0.642199        0.528173 
         1.6015        0.637091        0.523459 
        1.60764        0.632499        0.518806 
        1.61376        0.625533        0.514223 
        1.61989         0.62238        0.509692 
        1.62604        0.617548        0.505206 
        1.63218        0.613513        0.500777 
        1.63831        0.607953        0.496411 
        1.64444        0.602949        0.492096 
        1.65059        0.598482        0.487823 
        1.65673        0.593633        0.483605 
        1.66285        0.589541        0.479449 
        1.66898        0.585409        0.475341 
        1.67512        0.579764        0.471274 
        1.68127        0.575214        0.467251 
         1.6874        0.572536        0.463284 
        1.69353        0.567034        0.459365 
        1.69967        0.563867        0.455483 
        1.70581        0.558338        0.451648 
        1.71193        0.554655        0.447872 
        1.71806        0.549972        0.444132 
        1.72421        0.546935        0.440426 
        1.73035        0.542123        0.436768 
        1.73649        0.539245        0.433152 
        1.74262        0.534865        0.429581 
        1.74876        0.530631        0.426047 
        1.75489        0.527257        0.422561 
        1.76101        0.522206        0.419115 
        1.76715        0.518961        0.415703 
        1.77329        0.515006        0.412325 
        1.77943        0.511511        0.408983 
        1.78557        0.508458        0.405683 
        1.79171        0.504545         0.40242 
        1.79785        0.500892        0.399192 
        1.80399        0.497109           0.396 
        1.81012        0.494215        0.392848 
        1.81625         0.49024        0.389731 
        1.82239        0.487598        0.386644 
        1.82853        0.482547        0.383592 
        1.83466        0.480358        0.380576 
        1.84078        0.476502        0.377596 
        1.84692        0.473667        0.374644 
        1.85306        0.470627        0.371719 
         1.8592        0.467144         0.36883 
        1.86533        0.464496        0.365974 
        1.87147        0.460962        0.363145 
        1.87761        0.458738        0.360345 
        1.88375        0.453892        0.357578 
        1.88988        0.451719        0.354843 
        1.89601        0.448408        0.352135 
        1.90215        0.445677        0.349454 
        1.90829        0.442249        0.346802 
        1.91442        0.440031        0.344177 
        1.92056        0.436282        0.341582 
         1.9267        0.433259        0.339011 
        1.93284        0.430661        0.336466 
        1.93897         0.42817        0.333951 
        1.94509         0.42567        0.331468 
        1.95123        0.421994        0.329004 
        1.95737        0.420305        0.326563 
        1.96349          0.4171        0.324154 
        1.96964        0.414001        0.321762 
        1.97578        0.411499        0.319393 
        1.98192        0.409868        0.317053 
        1.98805        0.407094        0.314736 
        1.99419         0.40366        0.312442 
        2.00033        0.401285        0.310171 
        2.00647         0.39937        0.307922 
         2.0126        0.396272          0.3057 
        2.01874        0.394306        0.303497 
        2.02488        0.391797        0.301313 
        2.03101        0.389071        0.299155 
        2.03714        0.386546        0.297021 
        2.04328        0.384385        0.294904 
        2.04941        0.381895        0.292811 
        2.05554        0.379844        0.290739 
        2.06167        0.377893        0.288684 
        2.06781        0.374272         0.28665 
        2.07396        0.372125        0.284632 
        2.08009        0.369954        0.282637 
        2.08622        0.368282        0.280663 
        2.09237        0.366801        0.278705 
        2.09851        0.364351        0.276765 
        2.10464        0.362032        0.274847 
        2.11077         0.35928         0.27295 
        2.11691         0.35739        0.271066 
        2.12305        0.355199          0.2692 
        2.12918        0.353168        0.267356 
        2.13531        0.351107         0.26553 
        2.14145        0.348874        0.263716 
         2.1476        0.347085        0.261917 
        2.15372        0.345588        0.260145 
        2.15985        0.342974        0.258386 
        2.16599        0.340641         0.25664 
        2.17213        0.339311        0.254911 
        2.17827         0.33719        0.253199 
         2.1844        0.335552        0.251504 
        2.19054        0.333555        0.249824 
        2.19666        0.330824        0.248162 
         2.2028        0.329601        0.246513 
        2.20893        0.328165        0.244879 
        2.21508        0.325274        0.243258 
        2.22122        0.323877        0.241651 
        2.22736        0.322321        0.240062 
        2.23349        0.320385        0.238488 
        2.23962        0.318911        0.236927 
        2.24577        0.316421        0.235379 
         2.2519        0.315454        0.233846 
        2.25802        0.313147         0.23233 
        2.26417        0.311592        0.230824 
        2.27031        0.309503        0.229329 
        2.27644        0.308217        0.227852 
        2.28257        0.306273        0.226388 
        2.28872        0.305005        0.224934 
        2.29486        0.303151        0.223494 
        2.30099        0.301672        0.222069 
        2.30712        0.300085        0.220656 
        2.31326        0.297825        0.219253 
         2.3194        0.297817        0.217863 
        2.32553        0.295912        0.216487 
        2.33166        0.294187        0.215124 
         2.3378        0.292593        0.213771 
        2.34394        0.290747        0.212429 
        2.35007        0.289332          0.2111 
        2.35619        0.287451        0.209785 
        2.36233        0.285669        0.208478 
        2.36848        0.284709        0.207179 
        2.37462        0.282863        0.205894 
        2.38075        0.282009        0.204621 
        2.38689        0.280224        0.203358 
        2.39303        0.279445        0.202106 
        2.39916        0.277271        0.200866 
        2.40529        0.275956        0.199637 
        2.41143        0.274701        0.198416 
        2.41757        0.272913        0.197206 
         2.4237        0.271806        0.196008 
        2.42983        0.270291         0.19482 
        2.43598        0.269587        0.193639 
        2.44211        0.268044        0.192469 
        2.44823        0.267101        0.191312 
        2.45437        0.264821        0.190162 
        2.46052        0.264076        0.189019 
        2.46665        0.262664        0.187889 
        2.47279        0.260977        0.186768 
        2.47892        0.259577        0.185655 
        2.48507        0.258577        0.184551 
         2.4912         0.25749        0.183457 
