# k  (h/Mpc)    Pcb(k)  (Mpc/h)^3    Pcb_linear(k)  (Mpc/h)^3
     0.00783031         68.5544         69.0924 
       0.013688         90.6635         91.0399 
       0.019231         97.3851         97.5119 
      0.0249154         95.1595         95.4591 
      0.0312784         88.0077         88.0767 
      0.0375637         79.5645         79.4964 
      0.0433917         72.3689          72.369 
      0.0492413         66.6873         66.6413 
      0.0555754         61.8154         61.8598 
      0.0619321         57.9697         57.8994 
       0.067871         54.2958         54.3459 
      0.0738098         50.5102         50.5771 
      0.0800417         46.2556          46.346 
      0.0862327         42.0564         42.0935 
      0.0921407         38.2989         38.3074 
      0.0982031         34.9366         34.9627 
       0.104506         32.2257         32.1886 
       0.110769         30.1062         30.0859 
       0.116806         28.4565         28.4988 
       0.122832         27.1193         27.1263 
       0.129052         25.6841         25.7323 
       0.135211            24.2         24.2596 
       0.141259         22.6914         22.7159 
       0.147318         21.1546         21.1444 
       0.153489         19.6171         19.6262 
       0.159709         18.2694         18.2767 
       0.165845         17.2091         17.1702 
       0.171974         16.2671         16.2797 
       0.178125         15.5394         15.5493 
       0.184229         14.9204         14.9145 
        0.19034         14.2666         14.3012 
       0.196428         13.6557         13.6686 
       0.202534          13.024         13.0008 
       0.208729         12.3082         12.3064 
       0.214876         11.6144         11.6341 
       0.220989         11.0442          11.016 
       0.227147         10.4505         10.4664 
        0.23329         9.98175         9.99618 
       0.239377         9.58624          9.5964 
       0.245482         9.22225         9.24084 
       0.251667         8.90663         8.90339 
       0.257832         8.56343         8.57125 
       0.263955         8.23426         8.23648 
       0.270079         7.89956          7.8972 
        0.27624         7.58054         7.55979 
       0.282372         7.25732         7.23837 
        0.28843         6.94773         6.94393 
       0.294538         6.68167         6.67487 
       0.300721         6.45095         6.43026 
        0.30691         6.21315         6.20837 
       0.313033         6.01177         6.00412 
       0.319153         5.79099         5.80842 
       0.325316         5.63341         5.61485 
        0.33145         5.43763         5.42404 
       0.337538         5.24875         5.23724 
       0.343633         5.06197         5.05548 
       0.349808         4.89273         4.87981 
       0.355968          4.7305         4.71516 
       0.362074         4.57576         4.56341 
       0.368217         4.43442         4.42129 
       0.374374         4.28912         4.28777 
       0.380519         4.17393         4.16102 
       0.386598         4.05608            4.04 
       0.392688         3.94278         3.92201 
        0.39888         3.82116         3.80471 
       0.405048         3.70923         3.69101 
       0.411186         3.60305         3.58175 
       0.417313         3.49147         3.47716 
       0.423458         3.39844         3.37736 
       0.429607         3.29737         3.28269 
       0.435692         3.20801         3.19363 
       0.441815         3.12421         3.10809 
       0.447964         3.05053         3.02563 
       0.454126         2.96094         2.94573 
       0.460267         2.88171         2.86845 
       0.466387         2.80555         2.79371 
        0.47254         2.73503         2.72084 
       0.478662         2.66752         2.65072 
       0.484765         2.59732         2.58339 
       0.490885         2.53366         2.51857 
       0.497035         2.48004           2.456 
       0.503198         2.41504         2.39574 
       0.509342         2.36064         2.33789 
       0.515458         2.30013         2.28231 
       0.521598         2.24743         2.22827 
       0.527764         2.19065          2.1756 
       0.533884         2.14675         2.12488 
           0.54         2.09579         2.07575 
       0.546137         2.05071           2.028 
       0.552299         2.00279         1.98161 
       0.558452         1.95392         1.93682 
       0.564573         1.91353         1.89373 
       0.570708          1.8725         1.85197 
       0.576825         1.83013         1.81168 
       0.582926         1.79495         1.77271 
       0.589034          1.7488         1.73484 
       0.595184         1.71381         1.69779 
       0.601379         1.67846         1.66154 
       0.607522         1.64657         1.62664 
       0.613639          1.6168          1.5929 
       0.619772         1.57794         1.56006 
       0.625918         1.54749         1.52811 
       0.632068         1.51911         1.49707 
       0.638161         1.48693         1.46719 
         0.6443         1.45747         1.43793 
       0.650464         1.42614         1.40938 
       0.656582         1.40109         1.38183 
       0.662703         1.37499         1.35502 
       0.668861         1.35173         1.32877 
       0.675024           1.323         1.30319 
       0.681124         1.29531         1.27855 
       0.687237         1.27494          1.2545 
       0.693381         1.25225         1.23097 
       0.699536         1.22367         1.20801 
       0.705665         1.20267         1.18575 
       0.711789         1.18356         1.16408 
       0.717957         1.16019         1.14282 
        0.72409          1.1409         1.12222 
       0.730186          1.1198         1.10226 
       0.736317         1.10339         1.08268 
       0.742472         1.08336          1.0635 
       0.748622         1.06366         1.04482 
        0.75476         1.04317         1.02662 
       0.760888         1.02494         1.00889 
       0.767043         1.01298        0.991518 
       0.773185        0.992857        0.974594 
       0.779291        0.976204        0.958166 
       0.785407        0.960796          0.9421 
       0.791564        0.945109        0.926306 
       0.797719        0.930804        0.910887 
       0.803834        0.915826        0.895922 
       0.809972        0.900391        0.881244 
       0.816124        0.885469        0.866868 
       0.822261        0.870304        0.852856 
       0.828378        0.858399        0.839199 
       0.834502        0.845818        0.825833 
       0.840667        0.830182        0.812676 
       0.846816        0.817664        0.799846 
       0.852925        0.807561        0.787378 
       0.859047        0.795062        0.775152 
       0.865192        0.781758         0.76315 
       0.871341        0.769408        0.751396 
       0.877463        0.760677        0.739947 
       0.883569        0.747387        0.728769 
       0.889708        0.736421        0.717767 
       0.895864        0.725485        0.706966 
       0.902008        0.714251        0.696414 
       0.908149        0.703642        0.686085 
       0.914301        0.691498        0.675952 
       0.920448        0.682763        0.666036 
       0.926574        0.672641        0.656356 
       0.932687        0.662911         0.64689 
       0.938823        0.655933         0.63758 
       0.944975        0.646013        0.628433 
       0.951105        0.637302        0.619501 
       0.957225        0.629867         0.61076 
       0.963368         0.62042        0.602159 
       0.969511         0.61061        0.593726 
       0.975621        0.601921        0.585501 
       0.981748        0.595891        0.577413 
       0.987916        0.587362        0.569428 
        0.99406        0.578924        0.561626 
        1.00019        0.572352        0.553986 
        1.00632        0.563019        0.546497 
        1.01246        0.555388        0.539137 
        1.01859        0.549307        0.531926 
        1.02471        0.541822        0.524856 
        1.03085        0.536283        0.517893 
        1.03698         0.52812        0.511071 
        1.04314        0.521666        0.504345 
        1.04929        0.514403        0.497757 
        1.05541        0.508901        0.491314 
        1.06154        0.501551        0.484971 
        1.06769        0.494828        0.478731 
        1.07382        0.489269        0.472623 
        1.07993        0.482523        0.466636 
        1.08607        0.478346        0.460729 
        1.09222        0.471389         0.45492 
        1.09836        0.466955        0.449219 
        1.10449        0.461002        0.443623 
        1.11063        0.454292        0.438117 
        1.11677        0.448469        0.432707 
         1.1229        0.443929          0.4274 
        1.12903        0.437969        0.422177 
        1.13518        0.433607        0.417039 
        1.14131        0.427828         0.41199 
        1.14745        0.421467        0.407027 
        1.15359        0.417845        0.402147 
        1.15973        0.411952        0.397345 
        1.16584        0.408686        0.392645 
        1.17197        0.403568        0.388014 
        1.17811         0.39949        0.383444 
        1.18424        0.395694        0.378962 
        1.19038        0.390194        0.374539 
        1.19652        0.384794        0.370189 
        1.20267        0.381952        0.365909 
        1.20881        0.377274        0.361698 
        1.21495        0.373829        0.357561 
        1.22108        0.369239        0.353489 
         1.2272        0.365662        0.349491 
        1.23334        0.361156        0.345546 
        1.23949        0.357166        0.341653 
        1.24562        0.353437        0.337831 
        1.25174        0.349764        0.334074 
        1.25789        0.346639        0.330363 
        1.26402        0.341715        0.326716 
        1.27014        0.338564        0.323133 
        1.27628        0.335389        0.319593 
        1.28244        0.330714          0.3161 
        1.28858        0.327924        0.312665 
        1.29471         0.32533        0.309288 
        1.30084        0.321081        0.305965 
        1.30697        0.317879        0.302687 
        1.31312        0.313692        0.299452 
        1.31925        0.310947        0.296274 
        1.32537        0.308141        0.293147 
        1.33151        0.305252        0.290054 
        1.33765        0.302196        0.287008 
        1.34378        0.298528        0.284011 
        1.34992        0.295762        0.281056 
        1.35606        0.292868        0.278137 
         1.3622        0.289984        0.275265 
        1.36833        0.286997        0.272441 
        1.37445        0.283416        0.269658 
        1.38059        0.280947        0.266906 
        1.38675        0.279445        0.264186 
        1.39288         0.27619        0.261515 
        1.39901        0.273472        0.258882 
        1.40515        0.271239         0.25628 
         1.4113        0.267826        0.253716 
        1.41742        0.265343        0.251196 
        1.42355        0.263452        0.248706 
         1.4297        0.260486        0.246242 
        1.43585          0.2583        0.243813 
        1.44198        0.256171        0.241426 
        1.44809        0.253282        0.239076 
        1.45423        0.251271        0.236749 
        1.46036        0.248595        0.234457 
        1.46649        0.246971        0.232195 
        1.47263        0.244299        0.229962 
        1.47877        0.241554        0.227759 
        1.48491        0.239846        0.225581 
        1.49104        0.237017        0.223437 
        1.49718         0.23504        0.221319 
        1.50333        0.233565        0.219225 
        1.50947        0.230953        0.217163 
         1.5156        0.228892        0.215131 
        1.52172        0.227009        0.213125 
        1.52787        0.224973        0.211141 
          1.534        0.222591        0.209184 
        1.54013        0.220685        0.207255 
        1.54627        0.219171        0.205346 
        1.55241        0.216843        0.203462 
        1.55855        0.214681        0.201604 
        1.56467        0.213734        0.199774 
         1.5708        0.211537        0.197962 
        1.57695        0.209652         0.19617 
        1.58308         0.20774        0.194405 
        1.58922        0.206161         0.19266 
        1.59535        0.204365        0.190937 
         1.6015        0.202392        0.189233 
        1.60764        0.200874        0.187551 
        1.61376        0.198857        0.185894 
        1.61989        0.197483        0.184256 
        1.62604        0.196033        0.182635 
        1.63218        0.194288        0.181033 
        1.63831        0.192687        0.179455 
        1.64444        0.191116        0.177895 
        1.65059         0.18954        0.176351 
        1.65673        0.188021        0.174826 
        1.66285          0.1868        0.173323 
        1.66898        0.185087        0.171838 
        1.67512        0.183293        0.170368 
        1.68127        0.181743        0.168914 
         1.6874        0.180696        0.167479 
        1.69353        0.178731        0.166063 
        1.69967        0.178052         0.16466 
        1.70581        0.175896        0.163273 
        1.71193         0.17471        0.161908 
        1.71806        0.173045        0.160556 
        1.72421        0.172329        0.159217 
        1.73035        0.170594        0.157894 
        1.73649        0.169513        0.156587 
        1.74262        0.168067        0.155296 
        1.74876        0.166696        0.154018 
        1.75489        0.165678        0.152758 
        1.76101        0.163939        0.151512 
        1.76715        0.162793        0.150279 
        1.77329        0.161339        0.149058 
        1.77943        0.160304        0.147849 
        1.78557         0.15934        0.146657 
        1.79171         0.15806        0.145477 
        1.79785        0.156833         0.14431 
        1.80399        0.155645        0.143156 
        1.81012        0.154564        0.142017 
        1.81625        0.153286         0.14089 
        1.82239         0.15207        0.139774 
        1.82853        0.150896        0.138671 
        1.83466        0.150006         0.13758 
        1.84078        0.148843        0.136503 
        1.84692        0.147576        0.135436 
        1.85306        0.146728        0.134378 
         1.8592        0.145345        0.133334 
        1.86533        0.144519        0.132302 
        1.87147        0.143434        0.131279 
        1.87761        0.142722        0.130267 
        1.88375        0.141445        0.129266 
        1.88988        0.140353        0.128278 
        1.89601        0.139277        0.127299 
        1.90215        0.138374        0.126329 
        1.90829        0.137254        0.125371 
        1.91442         0.13659        0.124422 
        1.92056        0.135399        0.123484 
         1.9267        0.134382        0.122554 
        1.93284        0.133532        0.121634 
        1.93897        0.132549        0.120725 
        1.94509         0.13178        0.119827 
        1.95123        0.130724        0.118937 
        1.95737        0.129958        0.118054 
        1.96349         0.12895        0.117183 
        1.96964        0.128052        0.116319 
        1.97578        0.127177        0.115462 
        1.98192        0.126498        0.114616 
        1.98805        0.125539        0.113779 
        1.99419        0.124502         0.11295 
        2.00033        0.123663        0.112128 
        2.00647        0.123158        0.111316 
         2.0126        0.121996        0.110512 
        2.01874        0.121488        0.109716 
        2.02488         0.12058        0.108926 
        2.03101        0.119786        0.108146 
        2.03714        0.118779        0.107375 
        2.04328        0.118278         0.10661 
        2.04941        0.117215        0.105853 
        2.05554        0.116679        0.105104 
        2.06167        0.116116        0.104361 
        2.06781        0.115046        0.103625 
        2.07396        0.114388        0.102896 
        2.08009        0.113567        0.102175 
        2.08622        0.112969        0.101461 
        2.09237        0.112257        0.100753 
        2.09851        0.111513        0.100052 
        2.10464        0.110903       0.0993587 
        2.11077        0.109981       0.0986727 
        2.11691        0.109368       0.0979918 
        2.12305        0.108634       0.0973172 
        2.12918        0.108086       0.0966507 
        2.13531        0.107232       0.0959904 
        2.14145        0.106477       0.0953348 
         2.1476        0.105902       0.0946845 
        2.15372        0.105452       0.0940437 
        2.15985        0.104619       0.0934081 
        2.16599        0.103924       0.0927766 
        2.17213         0.10331       0.0921517 
        2.17827        0.102627       0.0915327 
         2.1844        0.102156         0.09092 
        2.19054        0.101485       0.0903127 
        2.19666        0.100746       0.0897118 
         2.2028        0.100138       0.0891159 
        2.20893       0.0997516       0.0885251 
        2.21508       0.0989064        0.087939 
        2.22122       0.0983084       0.0873581 
        2.22736       0.0978994       0.0867837 
        2.23349       0.0972424       0.0862146 
        2.23962       0.0968192       0.0856503 
        2.24577        0.096065       0.0850906 
         2.2519       0.0955665       0.0845367 
        2.25802       0.0949656       0.0839887 
        2.26417        0.094456        0.083444 
        2.27031       0.0937714       0.0829037 
        2.27644        0.093272       0.0823697 
        2.28257       0.0927479       0.0818405 
        2.28872       0.0922683        0.081315 
        2.29486       0.0918548       0.0807942 
        2.30099       0.0911747       0.0802791 
        2.30712       0.0905666       0.0797683 
        2.31326       0.0899976        0.079261 
         2.3194       0.0897704       0.0787585 
        2.32553       0.0891191       0.0782612 
        2.33166       0.0887546       0.0777685 
         2.3378       0.0882305       0.0772793 
        2.34394       0.0876518       0.0767942 
        2.35007       0.0870714       0.0763139 
        2.35619       0.0864685       0.0758384 
        2.36233       0.0862117       0.0753658 
        2.36848       0.0857772       0.0748963 
        2.37462       0.0851267       0.0744318 
        2.38075       0.0847172       0.0739717 
        2.38689       0.0842493       0.0735151 
        2.39303       0.0838862       0.0730625 
        2.39916       0.0833461       0.0726142 
        2.40529       0.0829365       0.0721697 
        2.41143        0.082408       0.0717286 
        2.41757       0.0819568        0.071291 
         2.4237       0.0816321       0.0708579 
        2.42983       0.0812135       0.0704285 
        2.43598       0.0808323       0.0700014 
        2.44211       0.0802004       0.0695787 
        2.44823       0.0798549       0.0691604 
        2.45437       0.0793673       0.0687444 
        2.46052       0.0790235       0.0683315 
        2.46665       0.0785249       0.0679228 
        2.47279       0.0780664       0.0675175 
        2.47892       0.0775363       0.0671153 
        2.48507       0.0772076        0.066716 
         2.4912       0.0768354       0.0663208 
