# k  (h/Mpc)    P(k)  (Mpc/h)^3    P_linear(k)  (Mpc/h)^3
     0.00783031         331.696         334.631 
       0.013688         408.624         412.136 
       0.019231         415.767         417.083 
      0.0249154         385.528         385.637 
      0.0312784         333.633         333.603 
      0.0375637         283.087         283.136 
      0.0433917         245.828         245.209 
      0.0492413         217.575         217.385 
      0.0555754         197.466         196.829 
      0.0619321         181.742         182.316 
       0.067871         170.703         170.706 
      0.0738098         158.577         158.546 
      0.0800417         144.413         144.182 
      0.0862327         128.842         128.795 
      0.0921407         114.448         114.389 
      0.0982031         101.616          101.28 
       0.104506         90.3788          90.403 
       0.110769         82.5979         82.5636 
       0.116806         77.6411          77.353 
       0.122832         73.6538         73.6343 
       0.129052         70.5495         70.3996 
       0.135211         67.2364         67.0099 
       0.141259         63.1534         63.0922 
       0.147318         58.5067         58.5892 
       0.153489         53.8049         53.7378 
       0.159709         49.2332         49.0539 
       0.165845         44.9869         45.0368 
       0.171974         42.1018         41.8335 
       0.178125         39.6527         39.4276 
       0.184229         37.7785         37.6696 
        0.19034         36.5281         36.2747 
       0.196428         35.1664         34.9787 
       0.202534         33.5547         33.5691 
       0.208729         32.0799         31.9336 
       0.214876         30.3859         30.1343 
       0.220989         28.3512         28.2829 
       0.227147         26.7825         26.4979 
        0.23329         25.2249         24.9153 
       0.239377         23.9343         23.6036 
       0.245482         22.8506         22.5412 
       0.251667         21.8835         21.6698 
       0.257832         21.2462         20.9244 
       0.263955          20.444         20.2218 
       0.270079         19.7121         19.4952 
        0.27624         18.8644         18.7129 
       0.282372         18.0609         17.8896 
        0.28843         17.3524         17.0653 
       0.294538         16.5317         16.2632 
       0.300721         15.7233         15.5185 
        0.30691         15.1561           14.86 
       0.313033         14.5642         14.2963 
       0.319153         14.1694         13.8049 
       0.325316         13.5811         13.3587 
        0.33145         13.1504         12.9372 
       0.337538         12.7592         12.5221 
       0.343633         12.3702         12.0991 
       0.349808         11.9077         11.6643 
       0.355968         11.4643         11.2315 
       0.362074         11.1015         10.8161 
       0.368217         10.6926         10.4221 
       0.374374         10.3865         10.0583 
       0.380519         9.99267         9.72774 
       0.386598         9.66944         9.42848 
       0.392688         9.37514         9.15043 
        0.39888         9.13608         8.88152 
       0.405048         8.88312         8.62083 
       0.411186         8.61672         8.36522 
       0.417313         8.36661         8.11208 
       0.423458         8.08374         7.86247 
       0.429607         7.88822         7.62011 
       0.435692         7.67301         7.39028 
       0.441815         7.42018          7.1713 
       0.447964         7.18629         6.96497 
       0.454126         7.02606          6.7704 
       0.460267         6.87459         6.58695 
       0.466387         6.67899         6.41241 
        0.47254          6.5235         6.24287 
       0.478662          6.3438         6.07831 
       0.484765         6.18645          5.9181 
       0.490885         6.01077         5.76144 
       0.497035         5.83899         5.60835 
       0.503198         5.71602          5.4602 
       0.509342         5.54945         5.31849 
       0.515458         5.43545         5.18373 
       0.521598         5.30751         5.05431 
       0.527764         5.20181         4.92973 
       0.533884         5.04285         4.81088 
           0.54         4.94222         4.69623 
       0.546137         4.80936         4.58463 
       0.552299         4.70992         4.47553 
       0.558452         4.60212         4.36956 
       0.564573         4.50666         4.26719 
       0.570708         4.40548         4.16779 
       0.576825         4.30893         4.07194 
       0.582926          4.2062         3.97957 
       0.589034         4.13056         3.89023 
       0.595184         4.05294         3.80343 
       0.601379         3.95071         3.71898 
       0.607522         3.86466         3.63791 
       0.613639         3.77387         3.55957 
       0.619772         3.71355         3.48317 
       0.625918         3.63541         3.40869 
       0.632068         3.56614         3.33624 
       0.638161         3.49201          3.2665 
         0.6443         3.41874          3.1983 
       0.650464         3.34981         3.13187 
       0.656582         3.29995         3.06787 
       0.662703         3.23437         3.00571 
       0.668861         3.15322         2.94496 
       0.675024         3.09799          2.8859 
       0.681124         3.07232         2.82908 
       0.687237         2.99741         2.77371 
       0.693381         2.92459         2.71956 
       0.699536         2.89112         2.66676 
       0.705665         2.83649         2.61557 
       0.711789         2.77233         2.56575 
       0.717957         2.72387         2.51688 
        0.72409         2.67829         2.46957 
       0.730186          2.6451         2.42377 
       0.736317         2.58515          2.3789 
       0.742472         2.54917         2.33504 
       0.748622         2.50798         2.29235 
        0.75476          2.4516         2.25084 
       0.760888         2.42187         2.21044 
       0.767043         2.35827         2.17088 
       0.773185         2.32934         2.13237 
       0.779291         2.30601         2.09502 
       0.785407         2.26001         2.05851 
       0.791564         2.22265         2.02264 
       0.797719         2.18471         1.98765 
       0.803834         2.15009         1.95371 
       0.809972         2.11528         1.92045 
       0.816124         2.08222          1.8879 
       0.822261         2.05165          1.8562 
       0.828378         2.01628         1.82533 
       0.834502         1.98506         1.79515 
       0.840667         1.96015         1.76546 
       0.846816         1.92602         1.73653 
       0.852925         1.89307         1.70844 
       0.859047         1.86528         1.68091 
       0.865192           1.839         1.65391 
       0.871341         1.81417         1.62748 
       0.877463         1.78079         1.60176 
       0.883569         1.75694         1.57666 
       0.889708         1.73533         1.55197 
       0.895864         1.70985         1.52775 
       0.902008         1.67969          1.5041 
       0.908149         1.65886         1.48097 
       0.914301         1.63869          1.4583 
       0.920448         1.61636         1.43612 
       0.926574         1.59851         1.41448 
       0.932687         1.57348         1.39334 
       0.938823         1.54413         1.37255 
       0.944975         1.52901         1.35215 
       0.951105         1.49948         1.33223 
       0.957225         1.48285         1.31276 
       0.963368         1.46652         1.29361 
       0.969511         1.44883         1.27484 
       0.975621         1.42476         1.25655 
       0.981748         1.39938         1.23857 
       0.987916         1.38438         1.22084 
        0.99406         1.37078         1.20352 
        1.00019         1.35137         1.18657 
        1.00632         1.33846         1.16997 
        1.01246         1.31891         1.15367 
        1.01859         1.30253          1.1377 
        1.02471         1.28046         1.12206 
        1.03085         1.26444         1.10665 
        1.03698         1.25225         1.09158 
        1.04314         1.23635         1.07672 
        1.04929         1.22382         1.06217 
        1.05541         1.20274         1.04796 
        1.06154         1.19212         1.03396 
        1.06769         1.17901         1.02021 
        1.07382         1.16269         1.00675 
        1.07993         1.14833        0.993569 
        1.08607         1.13595        0.980569 
        1.09222         1.11951         0.96779 
        1.09836         1.10971        0.955255 
        1.10449         1.09202        0.942957 
        1.11063         1.07947        0.930863 
        1.11677          1.0697        0.918987 
         1.1229         1.05278        0.907339 
        1.12903         1.04475        0.895884 
        1.13518         1.03013        0.884617 
        1.14131         1.02034        0.873552 
        1.14745         1.01047        0.862683 
        1.15359        0.996928        0.851997 
        1.15973         0.98666        0.841489 
        1.16584        0.973849        0.831206 
        1.17197        0.962027        0.821081 
        1.17811        0.951293        0.811095 
        1.18424           0.941        0.801304 
        1.19038        0.929222        0.791648 
        1.19652        0.922835        0.782155 
        1.20267        0.913858        0.772819 
        1.20881        0.899316        0.763637 
        1.21495        0.891735         0.75462 
        1.22108        0.882823        0.745751 
         1.2272        0.870359        0.737046 
        1.23334        0.862795        0.728461 
        1.23949        0.855261        0.719992 
        1.24562        0.845551        0.711683 
        1.25174        0.837071        0.703518 
        1.25789        0.825594        0.695456 
        1.26402        0.818192        0.687537 
        1.27014        0.807375         0.67976 
        1.27628        0.802179        0.672081 
        1.28244        0.793873        0.664506 
        1.28858        0.783643        0.657059 
        1.29471         0.77585        0.649742 
        1.30084        0.768844        0.642545 
        1.30697        0.763397        0.635446 
        1.31312        0.754676        0.628444 
        1.31925        0.746815        0.621571 
        1.32537        0.739957        0.614807 
        1.33151        0.731768         0.60812 
        1.33765        0.724704        0.601537 
        1.34378        0.716318        0.595065 
        1.34992        0.712309        0.588684 
        1.35606        0.703419        0.582383 
         1.3622        0.697367        0.576186 
        1.36833         0.69127        0.570094 
        1.37445        0.684543        0.564093 
        1.38059        0.677771        0.558161 
        1.38675        0.670944          0.5523 
        1.39288         0.66401        0.546547 
        1.39901        0.658707        0.540878 
        1.40515        0.651785        0.535278 
         1.4113        0.648339        0.529759 
        1.41742        0.640646        0.524339 
        1.42355        0.632572        0.518985 
         1.4297        0.629552         0.51369 
        1.43585        0.622146        0.508471 
        1.44198        0.617337        0.503344 
        1.44809        0.610929        0.498299 
        1.45423        0.606348        0.493304 
        1.46036        0.600675        0.488387 
        1.46649        0.594618        0.483535 
        1.47263         0.58868        0.478746 
        1.47877        0.586862        0.474024 
        1.48491        0.577732        0.469358 
        1.49104        0.575845        0.464765 
        1.49718        0.568615        0.460231 
        1.50333        0.564797         0.45575 
        1.50947        0.560484        0.451338 
         1.5156        0.554938        0.446991 
        1.52172        0.550632        0.442702 
        1.52787        0.544394         0.43846 
          1.534        0.541601         0.43428 
        1.54013        0.536469        0.430158 
        1.54627         0.53197        0.426083 
        1.55241        0.526752         0.42206 
        1.55855        0.522695        0.418094 
        1.56467        0.518607        0.414191 
         1.5708        0.513681        0.410327 
        1.57695         0.50912        0.406506 
        1.58308        0.503767        0.402743 
        1.58922        0.501415        0.399025 
        1.59535        0.496216        0.395355 
         1.6015        0.492314        0.391727 
        1.60764        0.488334        0.388146 
        1.61376        0.484372        0.384619 
        1.61989        0.480382        0.381134 
        1.62604        0.475791        0.377683 
        1.63218        0.473385        0.374278 
        1.63831        0.468585        0.370923 
        1.64444        0.465422        0.367608 
        1.65059        0.461025        0.364325 
        1.65673        0.457582        0.361087 
        1.66285        0.454456        0.357896 
        1.66898        0.450753        0.354744 
        1.67512        0.446263        0.351623 
        1.68127        0.442599        0.348537 
         1.6874        0.440254        0.345495 
        1.69353        0.436267        0.342491 
        1.69967        0.432998        0.339516 
        1.70581        0.430233        0.336578 
        1.71193        0.427149        0.333686 
        1.71806        0.423691        0.330821 
        1.72421        0.419993        0.327985 
        1.73035        0.415984        0.325185 
        1.73649        0.414734        0.322419 
        1.74262        0.409909        0.319687 
        1.74876         0.40767        0.316985 
        1.75489        0.404914        0.314319 
        1.76101        0.401152        0.311686 
        1.76715        0.398502        0.309079 
        1.77329        0.395461        0.306498 
        1.77943        0.392343        0.303946 
        1.78557        0.390695        0.301427 
        1.79171        0.387565        0.298937 
        1.79785        0.384009        0.296473 
        1.80399        0.380382        0.294039 
        1.81012        0.378696        0.291635 
        1.81625         0.37639        0.289258 
        1.82239        0.373924        0.286905 
        1.82853        0.370373        0.284579 
        1.83466        0.367607        0.282282 
        1.84078        0.364764        0.280012 
        1.84692        0.362676        0.277763 
        1.85306         0.36039        0.275536 
         1.8592        0.357599        0.273338 
        1.86533        0.355566        0.271164 
        1.87147        0.351996        0.269012 
        1.87761        0.349834        0.266882 
        1.88375        0.347613        0.264778 
        1.88988        0.344609        0.262698 
        1.89601        0.341767         0.26064 
        1.90215        0.340263        0.258602 
        1.90829        0.337243        0.256588 
        1.91442        0.335783        0.254594 
        1.92056        0.334018        0.252624 
         1.9267        0.330837        0.250672 
        1.93284        0.328297         0.24874 
        1.93897        0.326652        0.246832 
        1.94509        0.324728        0.244948 
        1.95123        0.321597        0.243079 
        1.95737         0.31972        0.241228 
        1.96349        0.317595        0.239401 
        1.96964        0.315409        0.237588 
        1.97578        0.313106        0.235793 
        1.98192        0.311697         0.23402 
        1.98805        0.309665        0.232265 
        1.99419        0.307995        0.230528 
        2.00033        0.305562        0.228808 
        2.00647        0.303469        0.227106 
         2.0126        0.301639        0.225425 
        2.01874        0.299797        0.223757 
        2.02488        0.297643        0.222106 
        2.03101        0.295493        0.220474 
        2.03714         0.29464         0.21886 
        2.04328        0.291678         0.21726 
        2.04941        0.290554        0.215678 
        2.05554        0.288628        0.214112 
        2.06167        0.286651         0.21256 
        2.06781        0.283861        0.211023 
        2.07396        0.283099        0.209499 
        2.08009        0.281005        0.207993 
        2.08622        0.279586        0.206504 
        2.09237        0.277759        0.205026 
        2.09851        0.275495        0.203562 
        2.10464        0.274125        0.202115 
        2.11077        0.271919        0.200684 
        2.11691        0.270742        0.199264 
        2.12305        0.268985        0.197857 
        2.12918        0.267155        0.196468 
        2.13531        0.265844        0.195091 
        2.14145        0.263972        0.193725 
         2.1476        0.262559         0.19237 
        2.15372        0.261166        0.191035 
        2.15985        0.259044        0.189711 
        2.16599        0.257739        0.188396 
        2.17213        0.256364        0.187094 
        2.17827        0.254516        0.185806 
         2.1844        0.253503         0.18453 
        2.19054        0.251952        0.183267 
        2.19666        0.250433        0.182017 
         2.2028        0.248221        0.180777 
        2.20893        0.247309        0.179548 
        2.21508         0.24593         0.17833 
        2.22122        0.244696        0.177122 
        2.22736        0.242559        0.175928 
        2.23349        0.240977        0.174746 
        2.23962        0.239887        0.173573 
        2.24577        0.238741        0.172411 
         2.2519        0.237457         0.17126 
        2.25802        0.235831        0.170122 
        2.26417        0.234719        0.168992 
        2.27031        0.233172         0.16787 
        2.27644         0.23265        0.166762 
        2.28257        0.230724        0.165664 
        2.28872        0.229497        0.164574 
        2.29486        0.228188        0.163494 
        2.30099        0.226702        0.162425 
        2.30712        0.225569        0.161366 
        2.31326        0.224102        0.160314 
         2.3194        0.223167        0.159273 
        2.32553        0.221824        0.158242 
        2.33166        0.220685        0.157221 
         2.3378        0.219363        0.156208 
        2.34394        0.218184        0.155203 
        2.35007        0.216965        0.154209 
        2.35619        0.215589        0.153224 
        2.36233        0.214448        0.152246 
        2.36848        0.213427        0.151274 
        2.37462        0.212608        0.150313 
        2.38075        0.211328        0.149361 
        2.38689        0.210259        0.148417 
        2.39303        0.209007        0.147481 
        2.39916        0.207789        0.146554 
        2.40529        0.206788        0.145635 
        2.41143        0.205313        0.144723 
        2.41757        0.204417        0.143818 
         2.4237         0.20337        0.142923 
        2.42983        0.202678        0.142036 
        2.43598        0.201378        0.141154 
        2.44211        0.199607        0.140281 
        2.44823        0.199429        0.139417 
        2.45437        0.198368        0.138558 
        2.46052        0.197182        0.137706 
        2.46665         0.19608        0.136862 
        2.47279        0.194959        0.136026 
        2.47892        0.194366        0.135196 
        2.48507        0.193002        0.134372 
         2.4912        0.192244        0.133557 
