# k  (h/Mpc)    P(k)  (Mpc/h)^3    P_linear(k)  (Mpc/h)^3
     0.00783031         22534.3           22983 
       0.013688         25310.4         25069.7 
       0.019231         22755.7         22671.3 
      0.0249154         18312.3           18688 
      0.0312784         14310.9         14395.3 
      0.0375637         11374.7         11260.9 
      0.0433917         9363.18         9426.22 
      0.0492413          8383.5         8360.67 
      0.0555754         7507.41         7682.25 
      0.0619321         7196.47         7114.92 
       0.067871         6363.39         6472.96 
      0.0738098         5625.22         5686.76 
      0.0800417         4752.45         4807.32 
      0.0862327         4073.88         4023.96 
      0.0921407         3605.29         3453.17 
      0.0982031         3181.95         3068.05 
       0.104506         3032.71         2842.66 
       0.110769         2860.38         2719.12 
       0.116806         2733.27         2617.74 
       0.122832         2588.87         2479.13 
       0.129052         2344.28         2278.06 
       0.135211         2142.04         2039.94 
       0.141259         1983.65         1806.22 
       0.147318         1819.15         1606.57 
       0.153489         1649.11         1456.94 
       0.159709         1562.28         1360.08 
       0.165845         1509.39         1302.36 
       0.171974         1446.31         1260.82 
       0.178125         1380.54         1215.44 
       0.184229         1310.53         1155.15 
        0.19034         1222.52         1078.76 
       0.196428         1174.91         994.476 
       0.202534         1115.35         912.831 
       0.208729         1048.61         842.257 
       0.214876         1000.16         788.597 
       0.220989         961.539         750.238 
       0.227147         926.401         721.842 
        0.23329          888.45         697.446 
       0.239377         869.489         671.852 
       0.245482         809.634         642.068 
       0.251667         801.061         607.914 
       0.257832         763.542         572.281 
       0.263955         734.263         538.521 
       0.270079         703.303         508.802 
        0.27624         692.638          484.04 
       0.282372         665.714         464.104 
        0.28843         653.681         447.522 
       0.294538         618.805         432.215 
       0.300721         613.789         416.608 
        0.30691         587.944         400.163 
       0.313033         574.458         383.102 
       0.319153         558.459         365.977 
       0.325316         541.897         349.471 
        0.33145          525.88         334.511 
       0.337538         514.814         321.337 
       0.343633         500.852         309.751 
       0.349808         481.273         299.182 
       0.355968         477.106         289.301 
       0.362074         470.745         279.738 
       0.368217         455.885         270.087 
       0.374374         436.195         260.429 
       0.380519         434.643          250.93 
       0.386598          421.64         241.908 
       0.392688         417.971         233.444 
        0.39888         405.818         225.472 
       0.405048         398.325         218.165 
       0.411186         391.945         211.396 
       0.417313          383.67         204.973 
       0.423458         374.169         198.752 
       0.429607         370.089         192.678 
       0.435692         359.803          186.78 
       0.441815          355.59         181.003 
       0.447964          348.07         175.425 
       0.454126         341.988         170.096 
       0.460267         334.374          165.06 
       0.466387          329.48          160.32 
        0.47254         325.172         155.799 
       0.478662         322.501         151.493 
       0.484765         310.624         147.349 
       0.490885         307.618         143.325 
       0.497035         301.566         139.404 
       0.503198         297.866         135.594 
       0.509342         296.133         131.922 
       0.515458         291.946         128.406 
       0.521598         283.636         125.026 
       0.527764         280.749         121.775 
       0.533884         277.408         118.675 
           0.54         273.366         115.692 
       0.546137         271.692           112.8 
       0.552299         266.653         109.994 
       0.558452         264.944         107.282 
       0.564573         261.389         104.668 
       0.570708         255.886         102.129 
       0.576825         251.485          99.681 
       0.582926          249.29         97.3221 
       0.589034         246.429          95.043 
       0.595184         244.865         92.8281 
       0.601379         239.575         90.6725 
       0.607522          237.26         88.6036 
       0.613639         235.114         86.6063 
       0.619772         231.339         84.6633 
       0.625918         229.803         82.7746 
       0.632068         225.806          80.942 
       0.638161         224.523         79.1816 
         0.6443         221.183         77.4622 
       0.650464         219.262         75.7891 
       0.656582         215.727         74.1785 
       0.662703         215.889         72.6149 
       0.668861         212.779         71.0879 
       0.675024         209.797         69.6036 
       0.681124         207.833         68.1765 
       0.687237         205.731         66.7866 
       0.693381         202.518         65.4289 
       0.699536         200.566         64.1069 
       0.705665         198.649         62.8274 
       0.711789         197.538         61.5844 
       0.717957         196.353         60.3669 
        0.72409         194.378         59.1895 
       0.730186         191.825         58.0509 
       0.736317         189.838         56.9363 
       0.742472         188.068          55.847 
       0.748622         186.792         54.7873 
        0.75476         184.648         53.7574 
       0.760888          182.84         52.7555 
       0.767043         182.038         51.7753 
       0.773185         180.719         50.8221 
       0.779291         177.548         49.8984 
       0.785407         176.951         48.9965 
       0.791564         175.485         48.1113 
       0.797719         172.839         47.2485 
       0.803834         171.558         46.4125 
       0.809972          170.87         45.5938 
       0.816124         169.726         44.7933 
       0.822261         168.897         44.0142 
       0.828378         166.819         43.2561 
       0.834502         165.569         42.5153 
       0.840667         164.004         41.7871 
       0.846816         162.849         41.0782 
       0.852925         161.618         40.3902 
       0.859047         160.531         39.7165 
       0.865192         158.458         39.0561 
       0.871341         157.102         38.4104 
       0.877463         156.741         37.7822 
       0.883569         155.705         37.1697 
       0.889708          153.66         36.5678 
       0.895864         153.075         35.9777 
       0.902008         151.565         35.4019 
       0.908149         150.869         34.8391 
       0.914301         149.072         34.2877 
       0.920448         148.228         33.7488 
       0.926574         146.851         33.2234 
       0.932687         146.963         32.7104 
       0.938823         144.776         32.2064 
       0.944975         144.435         31.7119 
       0.951105         143.159         31.2296 
       0.957225         142.666         30.7582 
       0.963368         140.436          30.295 
       0.969511          139.88         29.8413 
       0.975621         138.758         29.3994 
       0.981748         138.507         28.9653 
       0.987916         137.273         28.5373 
        0.99406         136.431         28.1195 
        1.00019         135.637          27.711 
        1.00632         134.641          27.311 
        1.01246         133.571         26.9184 
        1.01859           133.3         26.5341 
        1.02471         131.709         26.1577 
        1.03085         130.661         25.7875 
        1.03698         129.937         25.4251 
        1.04314         128.771         25.0682 
        1.04929         128.534          24.719 
        1.05541          127.62         24.3779 
        1.06154          126.71         24.0424 
        1.06769          126.39         23.7127 
        1.07382         125.187         23.3903 
        1.07993         124.401         23.0746 
        1.08607         123.897         22.7635 
        1.09222         123.029         22.4578 
        1.09836         122.031         22.1581 
        1.10449         121.096         21.8642 
        1.11063         120.448         21.5754 
        1.11677         119.621         21.2919 
         1.1229         118.697         21.0139 
        1.12903         118.471         20.7408 
        1.13518         117.837         20.4722 
        1.14131         116.651         20.2086 
        1.14745         116.663         19.9498 
        1.15359         115.284         19.6955 
        1.15973         114.803         19.4455 
        1.16584         114.079          19.201 
        1.17197         113.657         18.9604 
        1.17811         112.469         18.7231 
        1.18424         112.317         18.4906 
        1.19038         111.991         18.2614 
        1.19652         110.956         18.0362 
        1.20267          110.41         17.8148 
        1.20881          109.88         17.5971 
        1.21495         108.707         17.3835 
        1.22108         108.508         17.1734 
         1.2272         107.491         16.9673 
        1.23334         107.222         16.7641 
        1.23949         106.505         16.5638 
        1.24562         105.931         16.3673 
        1.25174         105.534         16.1742 
        1.25789         104.922         15.9838 
        1.26402          103.67         15.7967 
        1.27014         103.312         15.6131 
        1.27628         102.895         15.4318 
        1.28244         102.679         15.2531 
        1.28858         101.918         15.0774 
        1.29471         101.247         14.9049 
        1.30084         101.005         14.7353 
        1.30697         99.9403          14.568 
        1.31312          99.495         14.4031 
        1.31925           98.93         14.2413 
        1.32537         98.5282         14.0821 
        1.33151         98.0388         13.9248 
        1.33765          97.335           13.77 
        1.34378         96.8689         13.6178 
        1.34992         96.5816         13.4679 
        1.35606          96.172         13.3199 
         1.3622         95.2627         13.1744 
        1.36833         94.8127         13.0314 
        1.37445         94.4995         12.8906 
        1.38059         93.7071         12.7514 
        1.38675         93.1778          12.614 
        1.39288         92.9345         12.4792 
        1.39901         92.5821         12.3464 
        1.40515         91.7241         12.2152 
         1.4113         91.5984          12.086 
        1.41742         90.7829         11.9591 
        1.42355         90.5818         11.8339 
         1.4297         89.9069           11.71 
        1.43585         89.4332          11.588 
        1.44198         89.1905         11.4682 
        1.44809         88.8394         11.3503 
        1.45423         88.3972         11.2336 
        1.46036         87.7169         11.1188 
        1.46649         87.2677         11.0055 
        1.47263         86.6422         10.8938 
        1.47877         86.1185         10.7836 
        1.48491          85.791         10.6748 
        1.49104         85.5017         10.5677 
        1.49718         85.0979          10.462 
        1.50333         84.5595         10.3576 
        1.50947         84.0603         10.2548 
         1.5156         83.8143         10.1535 
        1.52172         83.5439         10.0536 
        1.52787          82.844         9.95491 
          1.534         82.4894         9.85763 
        1.54013         82.1276         9.76174 
        1.54627         81.7281         9.66696 
        1.55241         81.3915         9.57342 
        1.55855         80.8611         9.48125 
        1.56467         80.4489         9.39055 
         1.5708          79.928         9.30078 
        1.57695         79.8366         9.21205 
        1.58308         79.4779         9.12468 
        1.58922         79.0057         9.03838 
        1.59535         78.4717         8.95324 
         1.6015         78.4145         8.86907 
        1.60764         77.8916         8.78602 
        1.61376         77.4545         8.70427 
        1.61989         77.1488         8.62349 
        1.62604         76.6474         8.54355 
        1.63218         76.4712         8.46468 
        1.63831         75.9686         8.38699 
        1.64444         75.5211         8.31024 
        1.65059         75.0449         8.23428 
        1.65673         74.8295         8.15934 
        1.66285         74.6393         8.08555 
        1.66898          74.175         8.01264 
        1.67512         73.5219         7.94049 
        1.68127         73.4131         7.86917 
         1.6874         72.9596         7.79887 
        1.69353         72.6622         7.72948 
        1.69967         72.5021         7.66077 
        1.70581         71.8881         7.59292 
        1.71193          71.496         7.52615 
        1.71806         71.3581         7.46004 
        1.72421         71.0154         7.39459 
        1.73035         70.6703            7.33 
        1.73649         70.3899         7.26619 
        1.74262         69.9506         7.20319 
        1.74876         69.6881          7.1409 
        1.75489         69.3043         7.07947 
        1.76101         68.9226         7.01879 
        1.76715          68.532         6.95873 
        1.77329         68.3114          6.8993 
        1.77943         67.9063         6.84054 
        1.78557          67.792         6.78255 
        1.79171         67.2195         6.72522 
        1.79785          66.839         6.66854 
        1.80399         66.6283         6.61253 
        1.81012         66.3539         6.55723 
        1.81625         66.0187         6.50259 
        1.82239         65.6651         6.44849 
        1.82853          65.484         6.39504 
        1.83466         65.1905         6.34224 
        1.84078         64.7879         6.29009 
        1.84692         64.4971         6.23845 
        1.85306         64.2096         6.18732 
         1.8592         64.0088         6.13684 
        1.86533         63.6144         6.08695 
        1.87147         63.2331         6.03756 
        1.87761         62.9523          5.9887 
        1.88375         62.7833         5.94044 
        1.88988         62.3622         5.89276 
        1.89601         62.1862         5.84557 
        1.90215         61.6765         5.79887 
        1.90829          61.487          5.7527 
        1.91442         61.2917         5.70702 
        1.92056         60.9806         5.66189 
         1.9267         60.6157         5.61719 
        1.93284         60.4234         5.57295 
        1.93897         60.0134         5.52927 
        1.94509         59.8963         5.48615 
        1.95123         59.4983         5.44338 
        1.95737         59.3706         5.40104 
        1.96349         58.9953         5.35925 
        1.96964         58.5558         5.31779 
        1.97578         58.3674         5.27674 
        1.98192         58.3041         5.23621 
        1.98805         57.9193          5.1961 
        1.99419         57.6048         5.15641 
        2.00033         57.4663         5.11711 
        2.00647         57.1095         5.07824 
         2.0126         56.8315         5.03983 
        2.01874           56.53         5.00176 
        2.02488         56.4308         4.96405 
        2.03101         56.0717         4.92679 
        2.03714         55.7757         4.88996 
        2.04328         55.4756         4.85346 
        2.04941          55.285         4.81736 
        2.05554         55.0766         4.78165 
        2.06167         54.8272         4.74626 
        2.06781         54.3952         4.71122 
        2.07396         54.2788         4.67648 
        2.08009         54.0658         4.64215 
        2.08622         53.7874         4.60821 
        2.09237         53.5761         4.57454 
        2.09851          53.381          4.5412 
        2.10464         53.0136         4.50824 
        2.11077         52.8608         4.47566 
        2.11691         52.6002         4.44332 
        2.12305         52.3439          4.4113 
        2.12918         52.0782         4.37967 
        2.13531         51.6802         4.34835 
        2.14145         51.6403         4.31726 
         2.1476         51.4151         4.28644 
        2.15372         51.1494         4.25608 
        2.15985         50.8489         4.22597 
        2.16599         50.7257         4.19608 
        2.17213         50.3626          4.1665 
        2.17827         50.1632         4.13722 
         2.1844         50.0088         4.10824 
        2.19054         49.7427         4.07953 
        2.19666         49.6615         4.05114 
         2.2028         49.3978         4.02299 
        2.20893         49.0373         3.99509 
        2.21508         48.9931         3.96743 
        2.22122         48.6262         3.94002 
        2.22736         48.4707         3.91292 
        2.23349         48.2982         3.88609 
        2.23962         48.0161         3.85949 
        2.24577         47.7906         3.83312 
         2.2519         47.6347         3.80703 
        2.25802         47.2866         3.78123 
        2.26417         47.1729         3.75559 
        2.27031         47.0618         3.73017 
        2.27644         46.6998         3.70505 
        2.28257         46.5245         3.68017 
        2.28872         46.3212         3.65547 
        2.29486         46.1507           3.631 
        2.30099         45.7941          3.6068 
        2.30712          45.644         3.58281 
        2.31326         45.4351           3.559 
         2.3194         45.2447         3.53542 
        2.32553         45.0714         3.51209 
        2.33166         44.8263         3.48899 
         2.3378         44.6667         3.46605 
        2.34394         44.4447         3.44332 
        2.35007         44.2311         3.42082 
        2.35619         44.0293         3.39856 
        2.36233         43.9163         3.37643 
        2.36848         43.6279         3.35446 
        2.37462         43.4996         3.33273 
        2.38075         43.2976         3.31121 
        2.38689         43.1202         3.28987 
        2.39303         42.9052         3.26871 
        2.39916         42.7103         3.24776 
        2.40529         42.5769           3.227 
        2.41143          42.303         3.20641 
        2.41757         42.2294         3.18598 
         2.4237         41.9575         3.16577 
        2.42983         41.8119         3.14574 
        2.43598         41.5529         3.12583 
        2.44211         41.4171         3.10612 
        2.44823         41.2785         3.08662 
        2.45437         41.0565         3.06724 
        2.46052         40.8972         3.04801 
        2.46665         40.7683         3.02898 
        2.47279         40.4777         3.01012 
        2.47892         40.3092          2.9914 
        2.48507         40.1197         2.97282 
         2.4912         39.9908         2.95444 
