# k  (h/Mpc)    P(k)  (Mpc/h)^3    P_linear(k)  (Mpc/h)^3
     0.00783031         11603.6         11800.9 
       0.013688         14272.5         14194.1 
       0.019231           14096         14083.1 
      0.0249154         12538.6         12768.8 
      0.0312784         10731.4         10821.8 
      0.0375637          9049.9         9032.93 
      0.0433917         7648.34         7742.42 
      0.0492413         6810.38         6829.91 
      0.0555754         6039.68         6177.91 
      0.0619321         5756.36         5722.97 
       0.067871         5244.49         5348.73 
      0.0738098         4846.11         4942.46 
      0.0800417            4333          4456.1 
      0.0862327         3882.93         3940.06 
      0.0921407         3480.78         3468.05 
      0.0982031         3054.93         3051.96 
       0.104506         2810.12         2720.04 
       0.110769         2574.55         2491.26 
       0.116806          2411.9         2344.79 
       0.122832         2307.84         2240.03 
       0.129052         2159.86         2142.38 
       0.135211         2053.54         2031.66 
       0.141259         1955.71         1899.87 
       0.147318         1826.62         1749.81 
       0.153489         1660.59          1592.9 
       0.159709         1548.26         1447.42 
       0.165845         1464.14         1328.24 
       0.171974         1370.37         1237.63 
       0.178125         1302.44         1172.28 
       0.184229          1249.3            1125 
        0.19034         1176.57          1085.5 
       0.196428         1156.25         1045.33 
       0.202534         1116.91         998.872 
       0.208729         1059.14         944.363 
       0.214876         1003.29         885.706 
       0.220989         963.714         827.603 
       0.227147         913.304         774.023 
        0.23329         872.434         728.608 
       0.239377         851.713         692.397 
       0.245482         795.045          663.69 
       0.251667         788.931         639.807 
       0.257832         759.722         618.243 
       0.263955         734.971         596.562 
       0.270079         707.365         573.189 
        0.27624         698.143         547.893 
       0.282372         668.674         521.802 
        0.28843         653.094         496.513 
       0.294538         619.632         472.826 
       0.300721         615.216         451.577 
        0.30691         587.293         433.293 
       0.313033         575.428         417.731 
       0.319153         558.649         403.957 
       0.325316         542.286         390.973 
        0.33145         526.846         378.225 
       0.337538         518.948         365.322 
       0.343633         502.812         352.124 
       0.349808         485.422         338.705 
       0.355968         480.835         325.659 
       0.362074         472.253         313.466 
       0.368217         458.813         302.161 
       0.374374         439.663         291.899 
       0.380519         436.898         282.586 
       0.386598         425.626         274.075 
       0.392688          422.78         266.001 
        0.39888         410.576          258.01 
       0.405048          401.99         250.153 
       0.411186         394.776           242.4 
       0.417313         387.187          234.77 
       0.423458         379.698         227.347 
       0.429607           372.7         220.249 
       0.435692         363.451         213.608 
       0.441815         360.342          207.35 
       0.447964         352.781         201.458 
       0.454126         343.073         195.872 
       0.460267         337.629         190.556 
       0.466387         333.665         185.441 
        0.47254         326.952         180.422 
       0.478662         325.985         175.538 
       0.484765         314.951         170.794 
       0.490885         311.684         166.179 
       0.497035         306.197         161.706 
       0.503198          300.96         157.412 
       0.509342         298.547          153.33 
       0.515458         294.814         149.452 
       0.521598         288.358          145.72 
       0.527764         283.922         142.114 
       0.533884         281.342         138.656 
           0.54         277.289         135.307 
       0.546137         275.988         132.036 
       0.552299         270.178          128.84 
       0.558452         268.261         125.744 
       0.564573         264.195         122.765 
       0.570708         259.093         119.884 
       0.576825         255.045         117.112 
       0.582926         252.511         114.444 
       0.589034         250.098         111.865 
       0.595184         247.553         109.355 
       0.601379         244.474         106.909 
       0.607522          240.36         104.556 
       0.613639         239.007         102.278 
       0.619772         233.788         100.057 
       0.625918          232.58         97.8931 
       0.632068         229.084         95.7917 
       0.638161         228.031         93.7725 
         0.6443          224.38         91.8007 
       0.650464         222.095         89.8815 
       0.656582         220.247         88.0332 
       0.662703         218.957         86.2375 
       0.668861         215.024         84.4821 
       0.675024         212.458         82.7742 
       0.681124         211.515         81.1307 
       0.687237         208.758         79.5285 
       0.693381         205.577         77.9621 
       0.699536         204.035         76.4352 
       0.705665         202.686         74.9558 
       0.711789         200.186         73.5172 
       0.717957         199.417         72.1068 
        0.72409         196.949         70.7416 
       0.730186         194.555         69.4205 
       0.736317         192.476         68.1265 
       0.742472          191.48         66.8613 
       0.748622          189.87         65.6298 
        0.75476         188.279         64.4324 
       0.760888         185.833         63.2669 
       0.767043         185.582          62.126 
       0.773185         183.494         61.0156 
       0.779291         180.112         59.9389 
       0.785407         179.708         58.8868 
       0.791564         178.046         57.8534 
       0.797719          175.55         56.8455 
       0.803834         174.693         55.8683 
       0.809972          173.54         54.9106 
       0.816124         173.143         53.9735 
       0.822261         171.012          53.061 
       0.828378         169.408         52.1725 
       0.834502         169.115         51.3038 
       0.840667         166.571         50.4494 
       0.846816         165.185          49.617 
       0.852925         164.603         48.8087 
       0.859047         162.825          48.017 
       0.865192         161.343         47.2403 
       0.871341         160.004         46.4803 
       0.877463         158.787         45.7407 
       0.883569         158.257         45.0191 
       0.889708          156.71         44.3095 
       0.895864         154.889         43.6135 
       0.902008         154.187          42.934 
       0.908149         153.662         42.2694 
       0.914301         151.819         41.6179 
       0.920448         150.727         40.9809 
       0.926574         149.892         40.3594 
       0.932687         149.674         39.7523 
       0.938823         147.624         39.1555 
       0.944975         146.283         38.5697 
       0.951105         145.742         37.9981 
       0.957225         144.288          37.439 
       0.963368         142.664         36.8895 
       0.969511         142.417          36.351 
       0.975621         141.504         35.8262 
       0.981748         141.028         35.3105 
       0.987916         139.481         34.8017 
        0.99406         138.399          34.305 
        1.00019         138.267          33.819 
        1.00632          136.84          33.343 
        1.01246           136.1         32.8754 
        1.01859         135.257         32.4177 
        1.02471          133.97         31.9693 
        1.03085          132.77         31.5278 
        1.03698         132.339         31.0957 
        1.04314         131.087         30.6699 
        1.04929         130.337         30.2531 
        1.05541         129.771         29.8458 
        1.06154          128.92          29.445 
        1.06769         128.767          29.051 
        1.07382         127.622         28.6655 
        1.07993         126.588          28.288 
        1.08607         125.814         27.9157 
        1.09222         125.449         27.5498 
        1.09836         124.348         27.1909 
        1.10449         123.277         26.8388 
        1.11063         122.455         26.4926 
        1.11677          122.13         26.1527 
         1.1229         121.016         25.8193 
        1.12903         120.387         25.4915 
        1.13518         120.234         25.1691 
        1.14131         119.009         24.8525 
        1.14745         118.514         24.5416 
        1.15359         117.712         24.2359 
        1.15973         117.292         23.9353 
        1.16584         116.087         23.6412 
        1.17197         115.601         23.3516 
        1.17811         115.002         23.0661 
        1.18424         114.454         22.7861 
        1.19038         114.081           22.51 
        1.19652         113.235         22.2386 
        1.20267         112.451         21.9717 
        1.20881         111.656         21.7093 
        1.21495         111.118         21.4515 
        1.22108         110.609         21.1981 
         1.2272         109.581         20.9493 
        1.23334         109.208          20.704 
        1.23949         108.376          20.462 
        1.24562         107.874         20.2246 
        1.25174         107.081         19.9914 
        1.25789         106.691         19.7611 
        1.26402         105.926         19.5349 
        1.27014         105.438         19.3127 
        1.27628         104.959         19.0934 
        1.28244         104.411         18.8771 
        1.28858         104.091         18.6645 
        1.29471         103.024         18.4556 
        1.30084         102.756         18.2501 
        1.30697         101.994         18.0474 
        1.31312          101.63         17.8475 
        1.31925         100.808         17.6513 
        1.32537         100.453         17.4583 
        1.33151         99.5394         17.2674 
        1.33765         99.2372         17.0795 
        1.34378         98.6956         16.8949 
        1.34992         98.4411         16.7128 
        1.35606         97.8026          16.533 
         1.3622         96.9607         16.3562 
        1.36833         96.7157         16.1824 
        1.37445         96.1159         16.0112 
        1.38059         95.5623          15.842 
        1.38675         94.9456         15.6748 
        1.39288         94.6508         15.5107 
        1.39901         94.2548         15.3491 
        1.40515         93.5714         15.1894 
         1.4113         92.9992          15.032 
        1.41742         92.8406         14.8774 
        1.42355         92.0998         14.7248 
         1.4297         91.7656         14.5738 
        1.43585          91.058          14.425 
        1.44198         90.7178         14.2789 
        1.44809         90.1981         14.1351 
        1.45423         89.7454         13.9927 
        1.46036         89.5159         13.8526 
        1.46649         88.8387         13.7143 
        1.47263         88.3239         13.5778 
        1.47877         88.1982         13.4433 
        1.48491         87.3782         13.3103 
        1.49104         87.1891         13.1795 
        1.49718         86.6055         13.0503 
        1.50333         86.1821         12.9226 
        1.50947         85.8046         12.7969 
         1.5156         85.2955         12.6731 
        1.52172         84.8291         12.5509 
        1.52787         84.5905         12.4301 
          1.534         83.9668         12.3111 
        1.54013         83.5078         12.1937 
        1.54627         83.2832         12.0776 
        1.55241         82.6908         11.9631 
        1.55855         82.4542         11.8502 
        1.56467         82.0522          11.739 
         1.5708         81.5361          11.629 
        1.57695         81.4537         11.5202 
        1.58308         80.6114         11.4131 
        1.58922         80.5175         11.3073 
        1.59535         80.1695         11.2028 
         1.6015         79.5304         11.0995 
        1.60764         79.2541         10.9976 
        1.61376         78.9724         10.8972 
        1.61989         78.4772          10.798 
        1.62604         78.2701         10.6998 
        1.63218         77.8313         10.6029 
        1.63831         77.1207         10.5075 
        1.64444         76.9606         10.4131 
        1.65059         76.5517         10.3197 
        1.65673         76.0434         10.2276 
        1.66285         75.7772         10.1368 
        1.66898           75.42         10.0472 
        1.67512         74.9449         9.95838 
        1.68127         74.7156          9.8706 
         1.6874          74.331         9.78408 
        1.69353         73.9615         9.69865 
        1.69967          73.467         9.61404 
        1.70581         73.3612         9.53047 
        1.71193         73.1011         9.44822 
        1.71806         72.5093         9.36677 
        1.72421          72.174         9.28611 
        1.73035         71.8792          9.2065 
        1.73649         71.5601         9.12784 
        1.74262         71.2182         9.05017 
        1.74876         70.8907         8.97335 
        1.75489         70.3838         8.89758 
        1.76101         70.2433         8.82272 
        1.76715          69.751         8.74861 
        1.77329         69.5386         8.67526 
        1.77943         69.0464         8.60273 
        1.78557         68.9287         8.53114 
        1.79171         68.4407         8.46034 
        1.79785         68.1415         8.39034 
        1.80399         67.9575         8.32115 
        1.81012         67.6946         8.25283 
        1.81625         67.1581         8.18531 
        1.82239         66.9357         8.11845 
        1.82853         66.6401         8.05236 
        1.83466         66.3349         7.98708 
        1.84078         66.0202         7.92258 
        1.84692         65.5711          7.8587 
        1.85306         65.3222         7.79544 
         1.8592         64.9494         7.73298 
        1.86533         64.7201         7.67124 
        1.87147         64.2888          7.6101 
        1.87761         64.0974          7.5496 
        1.88375         63.7817         7.48983 
        1.88988         63.5547         7.43077 
        1.89601         63.1798         7.37232 
        1.90215          62.876         7.31445 
        1.90829         62.6718         7.25723 
        1.91442         62.3526         7.20062 
        1.92056         61.9063         7.14467 
         1.9267          61.767         7.08925 
        1.93284         61.3797         7.03439 
        1.93897         61.0767         6.98021 
        1.94509         60.8325         6.92672 
        1.95123         60.5478         6.87366 
        1.95737         60.3283         6.82112 
        1.96349         59.8855         6.76926 
        1.96964          59.772         6.71779 
        1.97578         59.4873         6.66683 
        1.98192         59.2068         6.61651 
        1.98805         59.0429          6.5667 
        1.99419         58.5966          6.5174 
        2.00033          58.357         6.46859 
        2.00647         58.1457         6.42028 
         2.0126         57.6899         6.37256 
        2.01874         57.5159         6.32524 
        2.02488         57.3388         6.27837 
        2.03101         57.0449         6.23206 
        2.03714         56.7621         6.18626 
        2.04328         56.5578         6.14087 
        2.04941         56.2509         6.09597 
        2.05554         55.9777         6.05155 
        2.06167         55.7183         6.00752 
        2.06781         55.4861         5.96392 
        2.07396         55.1866         5.92069 
        2.08009         55.0301         5.87797 
        2.08622         54.7305         5.83571 
        2.09237         54.4207         5.79379 
        2.09851         54.3068         5.75227 
        2.10464         53.9658         5.71123 
        2.11077         53.6602         5.67064 
        2.11691         53.4346         5.63036 
        2.12305         53.2633         5.59046 
        2.12918         53.0184         5.55104 
        2.13531         52.6873         5.51201 
        2.14145         52.4691         5.47325 
         2.1476         52.2724         5.43483 
        2.15372         51.9927         5.39697 
        2.15985           51.76         5.35943 
        2.16599         51.5226         5.32214 
        2.17213         51.3452         5.28524 
        2.17827         51.0848         5.24871 
         2.1844         50.8058         5.21255 
        2.19054         50.5409         5.17672 
        2.19666         50.3107         5.14128 
         2.2028         50.2092         5.10614 
        2.20893         49.9857         5.07131 
        2.21508         49.7549         5.03676 
        2.22122         49.5115         5.00253 
        2.22736         49.3333         4.96869 
        2.23349         49.0995         4.93516 
        2.23962         48.7415         4.90193 
        2.24577         48.5366         4.86898 
         2.2519         48.2801         4.83638 
        2.25802         48.2438         4.80413 
        2.26417         47.8924         4.77208 
        2.27031           47.74         4.74029 
        2.27644         47.5481         4.70889 
        2.28257          47.267         4.67777 
        2.28872         46.9829         4.64688 
        2.29486         46.8913         4.61627 
        2.30099         46.7158           4.586 
        2.30712         46.4878         4.55598 
        2.31326         46.1848         4.52619 
         2.3194         45.9473         4.49668 
        2.32553         45.7531         4.46748 
        2.33166         45.5924         4.43855 
         2.3378         45.3284         4.40984 
        2.34394         45.1497         4.38138 
        2.35007         44.8909          4.3532 
        2.35619         44.7247         4.32531 
        2.36233         44.6286          4.2976 
        2.36848         44.3698         4.27008 
        2.37462         44.1463         4.24285 
        2.38075         44.0033         4.21589 
        2.38689         43.8343         4.18913 
        2.39303         43.6041         4.16262 
        2.39916         43.3838         4.13636 
        2.40529         43.2125         4.11033 
        2.41143         43.0582         4.08451 
        2.41757         42.8002          4.0589 
         2.4237         42.7187         4.03355 
        2.42983         42.4727         4.00843 
        2.43598         42.2544         3.98345 
        2.44211         42.1097         3.95872 
        2.44823         41.9046         3.93426 
        2.45437         41.7171         3.90994 
        2.46052         41.4372         3.88581 
        2.46665           41.31         3.86192 
        2.47279           41.18         3.83824 
        2.47892         40.9917         3.81474 
        2.48507         40.7612         3.79142 
         2.4912         40.6611         3.76834 
