# k  (h/Mpc)    P(k)  (Mpc/h)^3    P_linear(k)  (Mpc/h)^3
     0.00783031           19462         19606.2 
       0.013688         23572.2         24333.1 
       0.019231         24350.9         24845.4 
      0.0249154         23135.3         23157.1 
      0.0312784         19834.1           20155 
      0.0375637         16721.3         17139.9 
      0.0433917         14644.9         14817.7 
      0.0492413         12829.4         13084.3 
      0.0555754           11654         11798.2 
      0.0619321         10410.9         10914.4 
       0.067871         9916.41         10246.1 
      0.0738098            9361         9571.79 
      0.0800417         8584.46         8772.63 
      0.0862327         7697.22         7890.97 
      0.0921407         6945.36          7033.6 
      0.0982031         6288.37         6222.24 
       0.104506         5545.36         5522.49 
       0.110769          5097.7         5001.69 
       0.116806         4842.34         4652.02 
       0.122832         4564.13         4412.46 
       0.129052          4320.5         4225.45 
       0.135211         4229.36         4047.81 
       0.141259         3935.99         3845.05 
       0.147318         3673.06         3601.75 
       0.153489         3454.94         3323.07 
       0.159709         3308.62         3036.46 
       0.165845         3014.45         2775.98 
       0.171974         2910.17         2558.08 
       0.178125         2808.44         2389.73 
       0.184229         2582.29         2268.41 
        0.19034         2555.18         2179.96 
       0.196428         2488.23         2108.13 
       0.202534         2354.52         2036.62 
       0.208729          2307.9         1953.41 
       0.214876         2205.47         1856.44 
       0.220989         2107.32         1749.08 
       0.227147         2042.47         1637.98 
        0.23329         1958.54         1533.32 
       0.239377         1948.56         1442.71 
       0.245482         1858.33         1368.21 
       0.251667         1791.53         1308.93 
       0.257832         1758.64         1262.29 
       0.263955         1686.26         1222.83 
       0.270079         1648.25         1184.84 
        0.27624         1581.36         1144.07 
       0.282372          1567.6          1099.2 
        0.28843          1531.7         1051.27 
       0.294538          1468.9         1001.48 
       0.300721         1445.47         952.648 
        0.30691         1403.92          907.89 
       0.313033          1356.1         869.324 
       0.319153         1343.97         836.574 
       0.325316         1325.97          808.62 
        0.33145         1295.61         784.062 
       0.337538         1256.76         761.163 
       0.343633         1230.47         738.138 
       0.349808         1211.37          713.93 
       0.355968         1185.04           688.7 
       0.362074         1154.13         663.235 
       0.368217         1149.25         638.022 
       0.374374         1130.22         614.044 
       0.380519          1094.2         592.136 
       0.386598         1090.27         572.614 
       0.392688         1060.46         555.128 
        0.39888         1044.84         538.979 
       0.405048         1022.41         523.895 
       0.411186         1018.48         509.355 
       0.417313         1011.62         494.878 
       0.423458          983.66         480.219 
       0.429607         960.078         465.544 
       0.435692         951.441         451.194 
       0.441815         932.636         437.216 
       0.447964         925.458         423.937 
       0.454126         912.345         411.516 
       0.460267         902.855         400.004 
       0.466387         886.133         389.339 
        0.47254         873.998         379.226 
       0.478662         861.603         369.551 
       0.484765         852.495         360.135 
       0.490885          843.61         350.853 
       0.497035         827.534         341.634 
       0.503198         826.966         332.533 
       0.509342         811.192         323.699 
       0.515458         795.771         315.237 
       0.521598         797.654         307.121 
       0.527764         778.078          299.36 
       0.533884         767.703         292.045 
           0.54         764.717          285.09 
       0.546137         754.702         278.389 
       0.552299         748.342         271.867 
       0.558452         739.978         265.509 
       0.564573         737.866         259.326 
       0.570708         727.848         253.276 
       0.576825         713.993         247.393 
       0.582926         712.063         241.687 
       0.589034         703.681         236.155 
       0.595184         694.669         230.786 
       0.601379         684.566         225.597 
       0.607522         675.776         220.651 
       0.613639         674.878         215.897 
       0.619772         667.823         211.276 
       0.625918         660.611         206.769 
       0.632068         656.372         202.377 
       0.638161         646.866          198.14 
         0.6443         640.606         193.982 
       0.650464         636.174         189.921 
       0.656582         630.927         185.999 
       0.662703          623.56         182.186 
       0.668861         616.601         178.463 
       0.675024         613.997         174.849 
       0.681124         601.141         171.384 
       0.687237         601.584         168.015 
       0.693381         591.931         164.728 
       0.699536         593.792         161.524 
       0.705665         583.657         158.416 
       0.711789         582.397         155.386 
       0.717957         575.268         152.408 
        0.72409         570.529          149.52 
       0.730186         568.774         146.723 
       0.736317         561.565         143.982 
       0.742472         554.914         141.304 
       0.748622         555.032         138.702 
        0.75476         545.087         136.174 
       0.760888         544.234         133.716 
       0.767043         541.119         131.311 
       0.773185         536.148          128.97 
       0.779291         530.859         126.699 
       0.785407         526.899         124.479 
       0.791564         524.459         122.295 
       0.797719         516.011         120.165 
       0.803834         516.155         118.098 
       0.809972         508.864         116.072 
       0.816124         505.787         114.089 
       0.822261         502.033         112.158 
       0.828378         500.827         110.279 
       0.834502          493.02         108.442 
       0.840667         490.126         106.636 
       0.846816         487.551         104.877 
       0.852925         486.206         103.169 
       0.859047         479.657         101.496 
       0.865192         477.664         99.8546 
       0.871341         472.879         98.2486 
       0.877463         471.943         96.6851 
       0.883569         467.886         95.1595 
       0.889708         461.798          93.659 
       0.895864         457.515          92.187 
       0.902008         456.836         90.7498 
       0.908149         452.166         89.3441 
       0.914301         450.269          87.966 
       0.920448         444.939         86.6183 
       0.926574         442.839         85.3037 
       0.932687         440.628         84.0192 
       0.938823         436.479         82.7568 
       0.944975         434.575         81.5175 
       0.951105         431.595         80.3081 
       0.957225          426.33         79.1255 
       0.963368          425.61         77.9628 
       0.969511         421.688         76.8235 
       0.975621         418.036         75.7132 
       0.981748         416.336         74.6221 
       0.987916         413.318         73.5456 
        0.99406         409.204         72.4945 
        1.00019         405.627         71.4662 
        1.00632         404.076         70.4587 
        1.01246         400.342         69.4692 
        1.01859         398.176         68.5005 
        1.02471         396.526         67.5514 
        1.03085         393.576         66.6171 
        1.03698         390.761         65.7025 
        1.04314         387.607         64.8012 
        1.04929         386.817          63.919 
        1.05541         382.491         63.0568 
        1.06154         379.524         62.2085 
        1.06769         376.857         61.3744 
        1.07382          373.58         60.5585 
        1.07993         373.825         59.7592 
        1.08607         371.344         58.9712 
        1.09222         367.476         58.1965 
        1.09836         365.247         57.4368 
        1.10449         362.232         56.6915 
        1.11063         360.927         55.9586 
        1.11677         357.396          55.239 
         1.1229          355.39         54.5334 
        1.12903         352.383         53.8394 
        1.13518         351.649          53.157 
        1.14131         348.746         52.4868 
        1.14745         345.925         51.8285 
        1.15359         342.793         51.1815 
        1.15973         341.451         50.5452 
        1.16584         339.953         49.9226 
        1.17197         337.307         49.3097 
        1.17811         333.372         48.7052 
        1.18424         332.789         48.1126 
        1.19038         330.956         47.5281 
        1.19652         327.557         46.9536 
        1.20267         325.664         46.3887 
        1.20881         324.597         45.8331 
        1.21495         320.767         45.2876 
        1.22108         320.606          44.751 
         1.2272         316.389         44.2244 
        1.23334         314.637         43.7051 
        1.23949         312.827         43.1928 
        1.24562         311.471         42.6903 
        1.25174         309.555         42.1965 
        1.25789         306.697          41.709 
        1.26402         305.482         41.2301 
        1.27014         303.304         40.7599 
        1.27628         301.458         40.2956 
        1.28244         298.487         39.8377 
        1.28858         297.328         39.3875 
        1.29471         295.806         38.9453 
        1.30084         294.712         38.5103 
        1.30697         291.528         38.0812 
        1.31312         289.909         37.6581 
        1.31925         288.174         37.2428 
        1.32537         286.965         36.8341 
        1.33151         283.871           36.43 
        1.33765         282.433         36.0323 
        1.34378         281.273         35.6413 
        1.34992         278.631         35.2559 
        1.35606         276.576         34.8753 
         1.3622         274.807          34.501 
        1.36833         274.574         34.1331 
        1.37445         272.847         33.7708 
        1.38059         269.544         33.4126 
        1.38675          268.18         33.0588 
        1.39288         267.484         32.7115 
        1.39901         265.017         32.3693 
        1.40515         263.675         32.0313 
         1.4113          261.83         31.6983 
        1.41742         260.194         31.3712 
        1.42355         258.377         31.0481 
         1.4297         257.071         30.7287 
        1.43585         255.002         30.4138 
        1.44198         253.635         30.1046 
        1.44809         252.117         29.8002 
        1.45423         250.647          29.499 
        1.46036         250.104         29.2024 
        1.46649         247.672         28.9098 
        1.47263         245.644          28.621 
        1.47877         244.583         28.3363 
        1.48491         242.748          28.055 
        1.49104         240.357         27.7781 
        1.49718         239.515         27.5048 
        1.50333         238.186         27.2346 
        1.50947         236.418         26.9687 
         1.5156         235.201         26.7067 
        1.52172         233.208         26.4481 
        1.52787         232.189         26.1925 
          1.534         231.177         25.9406 
        1.54013         229.256         25.6922 
        1.54627         227.847         25.4466 
        1.55241         227.066         25.2042 
        1.55855         225.131         24.9653 
        1.56467         223.577         24.7302 
         1.5708         222.241         24.4974 
        1.57695         221.617         24.2673 
        1.58308         220.111         24.0406 
        1.58922         218.325         23.8167 
        1.59535         216.943         23.5957 
         1.6015         215.915         23.3772 
        1.60764         214.569         23.1616 
        1.61376         212.834         22.9493 
        1.61989         211.696         22.7395 
        1.62604         210.627         22.5318 
        1.63218         208.875         22.3269 
        1.63831         207.893          22.125 
        1.64444         206.462         21.9254 
        1.65059         205.614         21.7279 
        1.65673         204.148         21.5331 
        1.66285         202.825         21.3411 
        1.66898         201.434         21.1514 
        1.67512          200.33         20.9637 
        1.68127         198.945         20.7781 
         1.6874         197.724         20.5951 
        1.69353           197.2         20.4145 
        1.69967         195.527         20.2355 
        1.70581         194.228         20.0589 
        1.71193         193.055         19.8849 
        1.71806         191.611         19.7127 
        1.72421         190.827         19.5422 
        1.73035         189.485         19.3738 
        1.73649         188.159         19.2075 
        1.74262         187.561         19.0433 
        1.74876         185.733         18.8809 
        1.75489         185.261         18.7207 
        1.76101         184.014         18.5624 
        1.76715         183.021         18.4057 
        1.77329         181.651         18.2506 
        1.77943         180.518         18.0973 
        1.78557         179.495         17.9459 
        1.79171         178.359         17.7963 
        1.79785         177.076         17.6483 
        1.80399          176.22          17.502 
        1.81012         175.642         17.3576 
        1.81625         174.122         17.2149 
        1.82239         173.324         17.0735 
        1.82853         172.098         16.9339 
        1.83466         170.971         16.7959 
        1.84078         170.061         16.6596 
        1.84692          169.37         16.5245 
        1.85306         168.191         16.3909 
         1.8592         167.127         16.2589 
        1.86533         165.808         16.1284 
        1.87147         165.127         15.9992 
        1.87761         164.097         15.8713 
        1.88375         163.109         15.7451 
        1.88988         162.235         15.6203 
        1.89601         161.408         15.4968 
        1.90215         160.509         15.3745 
        1.90829         159.094         15.2536 
        1.91442         158.111          15.134 
        1.92056         157.492         15.0158 
         1.9267         156.352         14.8987 
        1.93284         155.189         14.7828 
        1.93897         154.625         14.6683 
        1.94509         153.801         14.5554 
        1.95123         152.849         14.4433 
        1.95737         152.069         14.3323 
        1.96349         151.024         14.2227 
        1.96964         150.115          14.114 
        1.97578         149.169         14.0064 
        1.98192         148.581         13.9001 
        1.98805         147.669         13.7949 
        1.99419         146.833         13.6908 
        2.00033         146.012         13.5877 
        2.00647         144.769         13.4857 
         2.0126          144.18         13.3849 
        2.01874         143.275         13.2849 
        2.02488          142.62         13.1859 
        2.03101         141.678         13.0881 
        2.03714         141.402         12.9914 
        2.04328          139.93         12.8956 
        2.04941          139.21         12.8007 
        2.05554         138.522          12.707 
        2.06167         137.865          12.614 
        2.06781         136.998         12.5219 
        2.07396         136.019         12.4306 
        2.08009         135.535         12.3404 
        2.08622         134.867         12.2512 
        2.09237          133.59         12.1627 
        2.09851          133.16          12.075 
        2.10464          132.52         11.9884 
        2.11077         131.858         11.9027 
        2.11691           130.9         11.8177 
        2.12305         130.116         11.7334 
        2.12918         129.439         11.6502 
        2.13531         128.727         11.5678 
        2.14145         127.783          11.486 
         2.1476         126.782         11.4049 
        2.15372         126.532          11.325 
        2.15985         125.781         11.2458 
        2.16599          124.93         11.1671 
        2.17213         124.214         11.0892 
        2.17827         123.653         11.0121 
         2.1844         122.651         10.9358 
        2.19054          122.12         10.8602 
        2.19666         121.547         10.7854 
         2.2028         120.884         10.7113 
        2.20893         120.261         10.6378 
        2.21508         119.456         10.5649 
        2.22122         118.701         10.4927 
        2.22736          118.22         10.4213 
        2.23349          117.53         10.3506 
        2.23962         116.861         10.2805 
        2.24577         116.031         10.2109 
         2.2519         115.403         10.1422 
        2.25802         114.745         10.0741 
        2.26417         114.192         10.0065 
        2.27031          113.57         9.93946 
        2.27644         113.074         9.87322 
        2.28257         112.453         9.80759 
        2.28872         111.757         9.74242 
        2.29486         111.185         9.67787 
        2.30099         110.341         9.61402 
        2.30712         110.038         9.55073 
        2.31326         109.084         9.48789 
         2.3194         108.618         9.42565 
        2.32553         107.959         9.36408 
        2.33166         107.543         9.30308 
         2.3378         106.796         9.24254 
        2.34394          106.33         9.18251 
        2.35007         105.626         9.12311 
        2.35619         105.182          9.0643 
        2.36233          104.75         9.00586 
        2.36848         104.149         8.94783 
        2.37462         103.581         8.89042 
        2.38075         102.902         8.83357 
        2.38689         102.385         8.77717 
        2.39303          101.82         8.72127 
        2.39916         101.466         8.66592 
        2.40529          100.55         8.61104 
        2.41143          100.25         8.55661 
        2.41757          99.595         8.50262 
         2.4237         99.0665         8.44919 
        2.42983         98.6076         8.39622 
        2.43598         97.9093         8.34357 
        2.44211         97.3766         8.29146 
        2.44823         97.0281          8.2399 
        2.45437         96.5063         8.18865 
        2.46052         95.8983         8.13778 
        2.46665         95.3693         8.08744 
        2.47279         94.9108         8.03753 
        2.47892         94.3663         7.98802 
        2.48507         94.0187         7.93887 
         2.4912         93.3933         7.89023 
