# k  (h/Mpc)    P(k)  (Mpc/h)^3    P_linear(k)  (Mpc/h)^3
     0.00783031         7803.19          7864.7 
       0.013688         9554.78         9762.12 
       0.019231         9850.81         9969.21 
      0.0249154         9302.01          9292.9 
      0.0312784         8034.13         8088.92 
      0.0375637         6797.04          6879.3 
      0.0433917         5933.64         5947.52 
      0.0492413         5208.63         5251.97 
      0.0555754         4732.89         4735.88 
      0.0619321         4272.04         4381.23 
       0.067871          4061.2         4113.03 
      0.0738098         3811.94          3842.4 
      0.0800417         3504.22         3521.64 
      0.0862327         3138.92         3167.75 
      0.0921407          2811.1         2823.58 
      0.0982031         2521.48         2497.89 
       0.104506         2217.67         2216.99 
       0.110769         2024.02         2007.93 
       0.116806         1915.94         1867.57 
       0.122832         1797.89          1771.4 
       0.129052         1721.73         1696.33 
       0.135211         1670.04         1625.02 
       0.141259         1565.85         1543.63 
       0.147318         1452.35         1445.96 
       0.153489         1356.85         1334.08 
       0.159709         1273.61         1219.02 
       0.165845         1149.69         1114.45 
       0.171974         1103.36         1026.98 
       0.178125         1045.44         959.391 
       0.184229         971.234         910.686 
        0.19034          950.75         875.179 
       0.196428         922.511         846.342 
       0.202534         867.509         817.635 
       0.208729         852.479         784.231 
       0.214876         816.965           745.3 
       0.220989         761.994           702.2 
       0.227147         738.585         657.596 
        0.23329         704.465         615.581 
       0.239377         685.989         579.204 
       0.245482         648.101         549.294 
       0.251667         621.475         525.496 
       0.257832         614.004         506.772 
       0.263955         582.161         490.928 
       0.270079          563.08          475.68 
        0.27624         540.349         459.311 
       0.282372         527.933         441.296 
        0.28843         522.685         422.054 
       0.294538          495.11         402.066 
       0.300721         477.724         382.461 
        0.30691         468.673         364.492 
       0.313033         447.031         349.009 
       0.319153         438.988         335.861 
       0.325316         429.405         324.638 
        0.33145          419.04         314.779 
       0.337538         404.335         305.586 
       0.343633          392.31         296.342 
       0.349808         382.019         286.623 
       0.355968         374.049         276.494 
       0.362074         362.683         266.271 
       0.368217         358.631         256.148 
       0.374374         350.328         246.522 
       0.380519         335.864         237.727 
       0.386598         331.188         229.889 
       0.392688         322.905         222.869 
        0.39888         314.981         216.386 
       0.405048         308.928          210.33 
       0.411186         306.568         204.492 
       0.417313         300.941          198.68 
       0.423458         292.723         192.795 
       0.429607         285.343         186.904 
       0.435692         280.376         181.142 
       0.441815         275.033          175.53 
       0.447964         267.855           170.2 
       0.454126          263.92         165.213 
       0.460267         260.345         160.591 
       0.466387         255.097         156.309 
        0.47254         251.844         152.249 
       0.478662         244.738         148.365 
       0.484765         241.751         144.585 
       0.490885         238.343         140.858 
       0.497035         234.862         137.157 
       0.503198         232.572         133.503 
       0.509342         226.346         129.957 
       0.515458         223.441          126.56 
       0.521598         218.508         123.301 
       0.527764          216.04         120.185 
       0.533884         215.181         117.248 
           0.54         210.399         114.456 
       0.546137         205.734         111.766 
       0.552299         204.124         109.148 
       0.558452         200.571         106.595 
       0.564573         199.274         104.113 
       0.570708         194.757         101.684 
       0.576825         192.094         99.3221 
       0.582926         190.076         97.0312 
       0.589034         187.276         94.8102 
       0.595184         185.751         92.6548 
       0.601379         182.099         90.5716 
       0.607522         178.669         88.5859 
       0.613639         177.424          86.677 
       0.619772         175.582         84.8218 
       0.625918         174.005         83.0126 
       0.632068         170.192         81.2494 
       0.638161         168.656          79.548 
         0.6443         167.551         77.8789 
       0.650464         164.388         76.2483 
       0.656582         163.365         74.6739 
       0.662703         161.751         73.1432 
       0.668861         158.517         71.6483 
       0.675024         158.462         70.1974 
       0.681124          156.03         68.8062 
       0.687237         154.027         67.4539 
       0.693381         152.538          66.134 
       0.699536         150.837         64.8477 
       0.705665         149.113            63.6 
       0.711789         147.329         62.3836 
       0.717957         145.668         61.1879 
        0.72409          144.37         60.0285 
       0.730186         144.226         58.9055 
       0.736317         141.785         57.8052 
       0.742472          139.85         56.7302 
       0.748622         137.761         55.6853 
        0.75476         138.226         54.6705 
       0.760888         136.646         53.6837 
       0.767043         134.278          52.718 
       0.773185         132.927         51.7783 
       0.779291         131.369         50.8667 
       0.785407         130.391          49.975 
       0.791564         129.496         49.0986 
       0.797719         127.724         48.2431 
       0.803834         127.546         47.4132 
       0.809972         126.517         46.5998 
       0.816124         124.659         45.8038 
       0.822261         123.486         45.0287 
       0.828378         123.268         44.2743 
       0.834502         121.421         43.5368 
       0.840667         120.888         42.8118 
       0.846816         119.667         42.1055 
       0.852925          118.38         41.4198 
       0.859047         117.511         40.7481 
       0.865192         116.605         40.0892 
       0.871341         115.356         39.4444 
       0.877463         114.476         38.8167 
       0.883569         114.315         38.2042 
       0.889708         113.229         37.6018 
       0.895864         112.184         37.0108 
       0.902008         111.071         36.4338 
       0.908149         109.663         35.8694 
       0.914301         109.637         35.3162 
       0.920448         109.205         34.7751 
       0.926574         107.142         34.2473 
       0.932687         107.056         33.7316 
       0.938823         106.229         33.2248 
       0.944975         105.093         32.7273 
       0.951105         104.171         32.2417 
       0.957225         103.992         31.7669 
       0.963368         102.826         31.3001 
       0.969511         102.112         30.8427 
       0.975621         101.121          30.397 
       0.981748         100.389         29.9589 
       0.987916         99.7497         29.5268 
        0.99406         99.3725         29.1048 
        1.00019         98.2308         28.6919 
        1.00632         97.5612         28.2874 
        1.01246         96.9901         27.8902 
        1.01859         96.5303         27.5012 
        1.02471         95.7397         27.1202 
        1.03085         94.8466         26.7451 
        1.03698         94.2256         26.3779 
        1.04314         93.5937         26.0161 
        1.04929          93.216         25.6619 
        1.05541         92.5191         25.3158 
        1.06154         91.9067         24.9752 
        1.06769         91.1884         24.6403 
        1.07382         90.4238         24.3127 
        1.07993         90.0918         23.9919 
        1.08607         89.3555         23.6755 
        1.09222         89.0035         23.3645 
        1.09836          88.132         23.0595 
        1.10449         87.6566         22.7602 
        1.11063         87.1016          22.466 
        1.11677         86.5048         22.1771 
         1.1229         85.8334         21.8938 
        1.12903         85.5149         21.6152 
        1.13518         85.0317         21.3412 
        1.14131         84.3739         21.0722 
        1.14745         83.9296         20.8079 
        1.15359         82.9105         20.5481 
        1.15973         82.8075         20.2927 
        1.16584          82.256         20.0427 
        1.17197          81.727         19.7966 
        1.17811         81.1207         19.5539 
        1.18424         80.4888          19.316 
        1.19038         80.3969         19.0814 
        1.19652         79.8047         18.8507 
        1.20267         79.2374         18.6239 
        1.20881         78.7726         18.4009 
        1.21495         78.3108         18.1819 
        1.22108         78.0316         17.9664 
         1.2272         77.2333          17.755 
        1.23334         77.0653         17.5465 
        1.23949         76.5142         17.3409 
        1.24562         75.9024         17.1391 
        1.25174         75.5183         16.9409 
        1.25789         75.3636         16.7451 
        1.26402         74.7923         16.5529 
        1.27014         74.4385         16.3641 
        1.27628         73.7613         16.1777 
        1.28244         73.6541         15.9939 
        1.28858         73.0673         15.8131 
        1.29471         72.6308         15.6356 
        1.30084         72.0231         15.4609 
        1.30697         72.0538         15.2887 
        1.31312         71.4648         15.1188 
        1.31925          70.988         14.9521 
        1.32537         70.6403          14.788 
        1.33151         70.3854         14.6258 
        1.33765         69.9019         14.4661 
        1.34378         69.5399         14.3091 
        1.34992         69.2598         14.1544 
        1.35606         68.7488         14.0016 
         1.3622         68.5213         13.8513 
        1.36833         67.9716         13.7036 
        1.37445         67.4528         13.5582 
        1.38059         67.3146         13.4144 
        1.38675         66.6275         13.2723 
        1.39288         66.6192         13.1329 
        1.39901         65.9967         12.9955 
        1.40515         65.7765         12.8598 
         1.4113         65.5218         12.7261 
        1.41742         65.0544         12.5948 
        1.42355         64.8258         12.4651 
         1.4297         64.4121         12.3368 
        1.43585         64.0154         12.2104 
        1.44198         63.6746         12.0863 
        1.44809         63.2494         11.9641 
        1.45423          63.041         11.8431 
        1.46036         62.6175         11.7241 
        1.46649         62.3493         11.6066 
        1.47263         62.0456         11.4907 
        1.47877         61.8074         11.3763 
        1.48491         61.3999         11.2634 
        1.49104         60.9312         11.1522 
        1.49718         60.7418         11.0425 
        1.50333         60.4277          10.934 
        1.50947         60.1898         10.8273 
         1.5156         59.9546         10.7221 
        1.52172         59.4625         10.6183 
        1.52787         59.1231         10.5157 
          1.534         58.8657         10.4145 
        1.54013         58.7376         10.3148 
        1.54627         58.1685         10.2162 
        1.55241         57.9416         10.1189 
        1.55855         57.6996          10.023 
        1.56467         57.2028         9.92857 
         1.5708          57.135         9.83512 
        1.57695         56.7724         9.74272 
        1.58308         56.4807         9.65173 
        1.58922         56.2213         9.56183 
        1.59535         56.0848         9.47311 
         1.6015          55.924          9.3854 
        1.60764         55.5251         9.29883 
        1.61376         55.1957          9.2136 
        1.61989         54.7714         9.12936 
        1.62604         54.6187         9.04599 
        1.63218         54.3182          8.9637 
        1.63831         54.1636         8.88264 
        1.64444         53.9207         8.80254 
        1.65059         53.5591         8.72324 
        1.65673          53.238           8.645 
        1.66285         53.0434         8.56794 
        1.66898         52.6239         8.49179 
        1.67512          52.496         8.41642 
        1.68127         52.2945          8.3419 
         1.6874         51.9564         8.26844 
        1.69353         51.7538         8.19592 
        1.69967         51.5481         8.12408 
        1.70581         51.1944         8.05315 
        1.71193         50.9957         7.98332 
        1.71806         50.7152         7.91417 
        1.72421         50.5511         7.84571 
        1.73035         50.2839         7.77813 
        1.73649         49.9377         7.71136 
        1.74262         49.5951         7.64543 
        1.74876         49.6047         7.58022 
        1.75489         49.2346          7.5159 
        1.76101         49.0181         7.45235 
        1.76715         48.9286         7.38945 
        1.77329         48.4443         7.32719 
        1.77943         48.4375         7.26563 
        1.78557          48.178         7.20486 
        1.79171         47.9258         7.14478 
        1.79785         47.6922         7.08536 
        1.80399          47.433         7.02664 
        1.81012         47.2349         6.96866 
        1.81625         46.9598         6.91136 
        1.82239         46.7432         6.85462 
        1.82853          46.544         6.79854 
        1.83466         46.3401         6.74314 
        1.84078         46.1307         6.68841 
        1.84692         45.8994         6.63421 
        1.85306         45.6517         6.58054 
         1.8592         45.4886         6.52754 
        1.86533         45.2487         6.47516 
        1.87147         45.0273         6.42329 
        1.87761         44.8005         6.37197 
        1.88375         44.6004         6.32126 
        1.88988         44.4316         6.27116 
        1.89601         44.1788         6.22158 
        1.90215         43.9382         6.17249 
        1.90829         43.8055         6.12395 
        1.91442         43.5349         6.07594 
        1.92056         43.3985         6.02847 
         1.9267         43.2491         5.98147 
        1.93284          43.006         5.93494 
        1.93897         42.8206         5.88899 
        1.94509         42.4998         5.84363 
        1.95123         42.3788         5.79862 
        1.95737         42.1483         5.75406 
        1.96349         42.0506         5.71008 
        1.96964         41.7685         5.66644 
        1.97578         41.5873         5.62323 
        1.98192         41.3579         5.58055 
        1.98805         41.1764         5.53832 
        1.99419         41.0275         5.49651 
        2.00033         40.8708         5.45512 
        2.00647         40.7077         5.41417 
         2.0126         40.4379          5.3737 
        2.01874         40.3066         5.33358 
        2.02488         40.0533         5.29384 
        2.03101         39.9508         5.25457 
        2.03714         39.7278         5.21574 
        2.04328         39.5785         5.17726 
        2.04941         39.3537          5.1392 
        2.05554         39.2328         5.10154 
        2.06167         39.0728         5.06421 
        2.06781         38.8089         5.02725 
        2.07396         38.6371          4.9906 
        2.08009         38.4957         4.95439 
        2.08622         38.3342         4.91857 
        2.09237         38.1375         4.88303 
        2.09851         37.9772         4.84784 
        2.10464         37.8139         4.81306 
        2.11077         37.6684         4.77865 
        2.11691         37.3868         4.74451 
        2.12305         37.2026          4.7107 
        2.12918         37.1181          4.6773 
        2.13531         36.9498         4.64421 
        2.14145         36.7835         4.61138 
         2.1476         36.6333         4.57882 
        2.15372         36.5331         4.54673 
        2.15985         36.2448         4.51492 
        2.16599         36.0928         4.48333 
        2.17213          35.957         4.45207 
        2.17827          35.788         4.42111 
         2.1844         35.5999         4.39048 
        2.19054         35.4842         4.36012 
        2.19666           35.27          4.3301 
         2.2028         35.0909         4.30033 
        2.20893         34.9993         4.27082 
        2.21508         34.8451         4.24156 
        2.22122         34.6917         4.21256 
        2.22736         34.4516          4.1839 
        2.23349         34.3885          4.1555 
        2.23962         34.2103         4.12736 
        2.24577         34.0559         4.09945 
         2.2519         33.8589         4.07183 
        2.25802         33.7682         4.04452 
        2.26417         33.5889         4.01738 
        2.27031         33.4504         3.99046 
        2.27644         33.4005         3.96386 
        2.28257          33.089         3.93751 
        2.28872         33.0998         3.91135 
        2.29486         32.8982         3.88543 
        2.30099         32.6906          3.8598 
        2.30712         32.6225         3.83439 
        2.31326         32.4283         3.80916 
         2.3194         32.2618         3.78418 
        2.32553         32.1653         3.75946 
        2.33166         31.9946         3.73497 
         2.3378         31.8566         3.71066 
        2.34394         31.7237         3.68656 
        2.35007         31.6287         3.66271 
        2.35619         31.5026          3.6391 
        2.36233         31.2811         3.61564 
        2.36848         31.2153         3.59234 
        2.37462         31.0609         3.56929 
        2.38075          30.912         3.54647 
        2.38689         30.8047         3.52383 
        2.39303         30.7004         3.50138 
        2.39916         30.4456         3.47916 
        2.40529         30.3669         3.45713 
        2.41143          30.243         3.43528 
        2.41757         30.1611          3.4136 
         2.4237           30.01         3.39215 
        2.42983         29.8417         3.37089 
        2.43598         29.7312         3.34975 
        2.44211         29.6085         3.32882 
        2.44823         29.4371         3.30813 
        2.45437         29.3976         3.28755 
        2.46052         29.2003         3.26713 
        2.46665         29.0862         3.24691 
        2.47279         28.8948         3.22688 
        2.47892         28.8357           3.207 
        2.48507         28.7303         3.18727 
         2.4912         28.6113         3.16774 
