# k  (h/Mpc)    P(k)  (Mpc/h)^3    P_linear(k)  (Mpc/h)^3
     0.00783031         829.426         837.722 
       0.013688         1104.12         1106.42 
       0.019231         1186.85         1187.83 
      0.0249154         1153.87         1161.12 
      0.0312784         1059.47         1061.79 
      0.0375637         943.252         942.119 
      0.0433917         837.761         839.922 
      0.0492413         757.681         757.368 
      0.0555754         688.513         691.682 
      0.0619321           646.8         644.334 
       0.067871          606.39         608.703 
      0.0738098         571.466         574.227 
      0.0800417         530.224         534.517 
      0.0862327         488.093         490.447 
      0.0921407         445.097         446.208 
      0.0982031         400.422         402.301 
       0.104506         363.321         362.064 
       0.110769         331.103         329.916 
       0.116806         306.148         306.682 
       0.122832         290.653         289.854 
       0.129052         275.999         276.859 
       0.135211         264.581         265.743 
       0.141259         254.254         254.371 
       0.147318         242.062         241.303 
       0.153489         226.047         226.136 
       0.159709         210.258         209.797 
       0.165845         196.309          193.97 
       0.171974         180.775         179.719 
       0.178125         169.382         167.802 
       0.184229         160.727         158.557 
        0.19034          152.14         151.552 
       0.196428         147.777         146.112 
       0.202534         143.957          141.35 
       0.208729         138.239         136.446 
       0.214876         131.956         131.002 
       0.220989         127.323         124.886 
       0.227147         119.392         118.228 
        0.23329         112.996         111.513 
       0.239377         107.392         105.247 
       0.245482         101.183         99.7008 
       0.251667         97.6511          95.006 
       0.257832         93.7687          91.221 
       0.263955         90.6625         88.1462 
       0.270079         87.9717         85.4668 
        0.27624          86.019         82.8822 
       0.282372          83.144         80.1937 
        0.28843         79.8744         77.3256 
       0.294538         76.8338         74.2339 
       0.300721         74.3054         71.0164 
        0.30691         70.7112         67.8669 
       0.313033         68.0354         64.9705 
       0.319153         64.7307         62.3913 
       0.325316          63.493         60.1406 
        0.33145         61.3197           58.21 
       0.337538         59.7344         56.5137 
       0.343633         57.9342         54.9339 
       0.349808         56.4741         53.3621 
       0.355968         54.8748         51.7546 
       0.362074         53.1624         50.1078 
       0.368217         51.5741         48.4094 
       0.374374         49.7502         46.7156 
       0.380519         48.3581         45.0849 
       0.386598         46.9536          43.575 
       0.392688         45.7903          42.195 
        0.39888          44.433         40.9241 
       0.405048         43.4019         39.7772 
       0.411186         42.4241         38.7189 
       0.417313         41.0749         37.7077 
       0.423458         40.1484         36.7125 
       0.429607         39.0445         35.7153 
       0.435692          37.935          34.722 
       0.441815         37.1437         33.7278 
       0.447964         36.4513         32.7481 
       0.454126         35.1089         31.8019 
       0.460267         34.3545         30.9106 
       0.466387         33.3395         30.0802 
        0.47254         32.8017         29.2992 
       0.478662         32.1692         28.5707 
       0.484765         31.3059         27.8814 
       0.490885         30.5834         27.2139 
       0.497035         30.1948         26.5559 
       0.503198         29.4273         25.9067 
       0.509342         28.7141         25.2682 
       0.515458         28.0685         24.6421 
       0.521598         27.5479         24.0289 
       0.527764         26.9165         23.4348 
       0.533884         26.4415         22.8713 
           0.54         25.8911          22.334 
       0.546137         25.4256         21.8195 
       0.552299         24.9821          21.326 
       0.558452         24.2353         20.8528 
       0.564573         23.9354         20.3967 
       0.570708         23.5067           19.95 
       0.576825         22.9057          19.513 
       0.582926         22.5385         19.0865 
       0.589034         21.9136         18.6697 
       0.595184         21.6071         18.2613 
       0.601379         21.1854         17.8623 
       0.607522         20.8664         17.4795 
       0.613639         20.6212         17.1118 
       0.619772         20.0859          16.757 
       0.625918         19.9278          16.414 
       0.632068         19.6027         16.0818 
       0.638161         19.1635         15.7616 
         0.6443          18.782         15.4465 
       0.650464         18.4301         15.1373 
       0.656582         18.2886         14.8378 
       0.662703         17.9613         14.5458 
       0.668861         17.6435         14.2598 
       0.675024         17.3073         13.9816 
       0.681124         17.0179          13.714 
       0.687237         16.7677         13.4533 
       0.693381         16.5678         13.1986 
       0.699536         16.1248         12.9506 
       0.705665         15.9777         12.7104 
       0.711789         15.7148          12.477 
       0.717957         15.4733         12.2479 
        0.72409         15.2268         12.0258 
       0.730186         15.0293         11.8103 
       0.736317         14.8753         11.5987 
       0.742472         14.6422         11.3911 
       0.748622         14.4176         11.1887 
        0.75476         14.1223         10.9916 
       0.760888         13.9759         10.7996 
       0.767043         13.8079         10.6117 
       0.773185         13.5342         10.4289 
       0.779291          13.435         10.2517 
       0.785407         13.2296         10.0786 
       0.791564         13.0157         9.90848 
       0.797719          12.813         9.74247 
       0.803834         12.7182         9.58133 
       0.809972         12.5952         9.42321 
       0.816124           12.33         9.26825 
       0.822261         12.1742         9.11713 
       0.828378         12.0301         8.96981 
       0.834502         11.9216         8.82561 
       0.840667         11.7203         8.68365 
       0.846816         11.5326         8.54526 
       0.852925         11.4329          8.4108 
       0.859047         11.2935         8.27902 
       0.865192         11.1963         8.14969 
       0.871341         11.0759         8.02309 
       0.877463         10.9093         7.89981 
       0.883569         10.7374         7.77947 
       0.889708         10.5712         7.66106 
       0.895864         10.5036         7.54483 
       0.902008         10.3799         7.43129 
       0.908149          10.268         7.32016 
       0.914301         10.1246         7.21115 
       0.920448         9.97951         7.10447 
       0.926574         9.86708         7.00034 
       0.932687         9.78847         6.89853 
       0.938823         9.65788          6.7984 
       0.944975         9.53473         6.70004 
       0.951105         9.45351           6.604 
       0.957225         9.39982         6.51002 
       0.963368         9.27301         6.41757 
       0.969511         9.17306         6.32693 
       0.975621         9.05515         6.23854 
       0.981748         8.96549         6.15163 
       0.987916         8.88378         6.06585 
        0.99406         8.74573         5.98203 
        1.00019         8.62769         5.89998 
        1.00632         8.60355         5.81956 
        1.01246         8.50869         5.74053 
        1.01859         8.39532         5.66311 
        1.02471         8.31887         5.58722 
        1.03085         8.24018         5.51247 
        1.03698         8.12904         5.43926 
        1.04314         8.07122         5.36708 
        1.04929         7.96482         5.29638 
        1.05541         7.88368         5.22726 
        1.06154          7.8182         5.15921 
        1.06769         7.77857         5.09227 
        1.07382         7.65727         5.02676 
        1.07993         7.58194         4.96255 
        1.08607         7.53681         4.89921 
        1.09222         7.45993         4.83692 
        1.09836         7.39284          4.7758 
        1.10449         7.31473         4.71581 
        1.11063          7.2515         4.65679 
        1.11677         7.19258         4.59881 
         1.1229         7.12597         4.54193 
        1.12903         7.05237         4.48597 
        1.13518         6.98367         4.43091 
        1.14131         6.90073         4.37681 
        1.14745         6.82372         4.32365 
        1.15359          6.7924         4.27138 
        1.15973         6.72371         4.21995 
        1.16584         6.65483          4.1696 
        1.17197          6.6014         4.12002 
        1.17811          6.5534         4.07109 
        1.18424         6.51085          4.0231 
        1.19038         6.45969         3.97576 
        1.19652         6.39769          3.9292 
        1.20267         6.32595         3.88339 
        1.20881         6.28782         3.83833 
        1.21495         6.23698         3.79406 
        1.22108         6.17369         3.75049 
         1.2272         6.14651         3.70772 
        1.23334         6.06493         3.66553 
        1.23949         6.01461         3.62389 
        1.24562         5.98918         3.58302 
        1.25174         5.91649         3.54285 
        1.25789         5.87899         3.50317 
        1.26402         5.82831         3.46418 
        1.27014         5.77634         3.42587 
        1.27628          5.7429         3.38804 
        1.28244         5.67331         3.35071 
        1.28858         5.65403         3.31399 
        1.29471         5.59676         3.27791 
        1.30084         5.54548          3.2424 
        1.30697         5.54195         3.20737 
        1.31312         5.43929         3.17281 
        1.31925         5.42407         3.13887 
        1.32537         5.38008         3.10546 
        1.33151         5.35447         3.07242 
        1.33765         5.28606         3.03989 
        1.34378         5.24829         3.00789 
        1.34992         5.23144         2.97634 
        1.35606         5.16879         2.94517 
         1.3622         5.14756         2.91451 
        1.36833         5.10755         2.88436 
        1.37445         5.07138         2.85465 
        1.38059         5.04491         2.82528 
        1.38675         5.00965         2.79625 
        1.39288         4.96155         2.76774 
        1.39901         4.91806         2.73965 
        1.40515         4.89016         2.71188 
         1.4113         4.85733         2.68452 
        1.41742         4.82607         2.65764 
        1.42355         4.79183         2.63108 
         1.4297         4.74473          2.6048 
        1.43585           4.731          2.5789 
        1.44198         4.70648         2.55344 
        1.44809         4.65044         2.52839 
        1.45423          4.6195         2.50357 
        1.46036         4.58778         2.47914 
        1.46649         4.55049         2.45503 
        1.47263         4.52026         2.43121 
        1.47877         4.48306         2.40773 
        1.48491         4.45696         2.38452 
        1.49104         4.43776         2.36167 
        1.49718         4.40579          2.3391 
        1.50333         4.37812          2.3168 
        1.50947          4.3491         2.29483 
         1.5156         4.32058         2.27318 
        1.52172         4.29539         2.25181 
        1.52787         4.26673         2.23067 
          1.534         4.23674         2.20983 
        1.54013         4.21275         2.18928 
        1.54627         4.17291         2.16896 
        1.55241         4.14806         2.14889 
        1.55855         4.13302         2.12911 
        1.56467         4.10454         2.10963 
         1.5708         4.06964         2.09034 
        1.57695         4.04574         2.07126 
        1.58308         4.01847         2.05247 
        1.58922         4.00487          2.0339 
        1.59535         3.97718         2.01556 
         1.6015         3.95229         1.99743 
        1.60764         3.92868         1.97953 
        1.61376         3.90482          1.9619 
        1.61989         3.87986         1.94447 
        1.62604         3.85249         1.92721 
        1.63218         3.84267         1.91018 
        1.63831         3.80878         1.89339 
        1.64444         3.78503          1.8768 
        1.65059         3.76331         1.86037 
        1.65673         3.74459         1.84415 
        1.66285         3.71512         1.82817 
        1.66898         3.70069         1.81238 
        1.67512         3.67061         1.79675 
        1.68127         3.65198         1.78128 
         1.6874         3.63888         1.76604 
        1.69353         3.60034         1.75098 
        1.69967          3.5881         1.73606 
        1.70581         3.57648         1.72132 
        1.71193         3.55168         1.70682 
        1.71806         3.53461         1.69244 
        1.72421          3.5131         1.67821 
        1.73035         3.49483         1.66416 
        1.73649         3.47016         1.65027 
        1.74262         3.44982         1.63655 
        1.74876         3.44254         1.62298 
        1.75489         3.41541         1.60959 
        1.76101         3.39162         1.59636 
        1.76715         3.37705         1.58325 
        1.77329          3.3601         1.57028 
        1.77943         3.33329         1.55745 
        1.78557         3.32302         1.54479 
        1.79171         3.30648         1.53226 
        1.79785         3.28353         1.51987 
        1.80399         3.26959         1.50762 
        1.81012         3.25864         1.49552 
        1.81625         3.23213         1.48356 
        1.82239         3.21379         1.47171 
        1.82853          3.1933            1.46 
        1.83466         3.18707         1.44843 
        1.84078         3.16696           1.437 
        1.84692         3.15322         1.42567 
        1.85306         3.12939         1.41445 
         1.8592         3.11514         1.40337 
        1.86533         3.09955         1.39241 
        1.87147          3.0886         1.38156 
        1.87761         3.07172         1.37082 
        1.88375         3.04756         1.36021 
        1.88988         3.03722         1.34972 
        1.89601         3.02124         1.33934 
        1.90215         3.00157         1.32906 
        1.90829         2.98688         1.31889 
        1.91442         2.97634         1.30883 
        1.92056          2.9578         1.29888 
         1.9267         2.94819         1.28902 
        1.93284          2.9337         1.27927 
        1.93897         2.91769         1.26963 
        1.94509         2.89708         1.26011 
        1.95123         2.88258         1.25067 
        1.95737         2.86884         1.24131 
        1.96349         2.85804         1.23208 
        1.96964         2.84973         1.22291 
        1.97578         2.83103         1.21384 
        1.98192         2.81941         1.20487 
        1.98805         2.80366           1.196 
        1.99419         2.79102         1.18721 
        2.00033         2.78633         1.17851 
        2.00647         2.76532          1.1699 
         2.0126         2.75631         1.16139 
        2.01874         2.73493         1.15295 
        2.02488         2.72657         1.14458 
        2.03101         2.70848         1.13632 
        2.03714         2.69481         1.12815 
        2.04328         2.68726         1.12004 
        2.04941         2.66807         1.11203 
        2.05554         2.66342          1.1041 
        2.06167         2.64693         1.09623 
        2.06781         2.64002         1.08844 
        2.07396         2.62757         1.08072 
        2.08009         2.61322         1.07308 
        2.08622         2.59662         1.06553 
        2.09237         2.59459         1.05804 
        2.09851         2.57991         1.05061 
        2.10464         2.56927         1.04327 
        2.11077         2.55544         1.03601 
        2.11691         2.54263          1.0288 
        2.12305         2.53583         1.02166 
        2.12918          2.5242         1.01461 
        2.13531         2.51317         1.00762 
        2.14145         2.49903         1.00068 
         2.1476         2.48757        0.993802 
        2.15372         2.47661        0.987021 
        2.15985          2.4656        0.980297 
        2.16599         2.45513        0.973616 
        2.17213         2.44291        0.967005 
        2.17827         2.43492        0.960457 
         2.1844         2.42499        0.953976 
        2.19054          2.4167        0.947552 
        2.19666         2.40302        0.941197 
         2.2028         2.39294        0.934895 
        2.20893         2.38127        0.928647 
        2.21508          2.3741         0.92245 
        2.22122          2.3595        0.916307 
        2.22736         2.34833        0.910234 
        2.23349         2.34506        0.904216 
        2.23962         2.33022        0.898251 
        2.24577         2.32087        0.892334 
         2.2519         2.31113        0.886478 
        2.25802         2.30691        0.880685 
        2.26417         2.29328        0.874927 
        2.27031         2.28598        0.869216 
        2.27644          2.2765        0.863572 
        2.28257         2.26537        0.857979 
        2.28872         2.25578        0.852425 
        2.29486         2.24966        0.846922 
        2.30099         2.23718        0.841478 
        2.30712         2.22725        0.836081 
        2.31326         2.22326        0.830721 
         2.3194         2.21079        0.825412 
        2.32553         2.20414        0.820158 
        2.33166         2.19256        0.814952 
         2.3378         2.18397        0.809785 
        2.34394         2.17442         0.80466 
        2.35007         2.16551        0.799588 
        2.35619          2.1625        0.794565 
        2.36233         2.14906        0.789574 
        2.36848         2.14185        0.784616 
        2.37462         2.13418        0.779711 
        2.38075         2.12461        0.774852 
        2.38689          2.1174        0.770031 
        2.39303         2.10992        0.765252 
        2.39916         2.10007        0.760519 
        2.40529         2.09327        0.755826 
        2.41143         2.08405        0.751169 
        2.41757         2.07533        0.746549 
         2.4237         2.06966        0.741977 
        2.42983         2.05776        0.737444 
        2.43598         2.05654        0.732937 
        2.44211          2.0448        0.728475 
        2.44823         2.03844         0.72406 
        2.45437         2.03045         0.71967 
        2.46052         2.02267        0.715312 
        2.46665         2.01673        0.710999 
        2.47279         2.00784        0.706723 
        2.47892         2.00013        0.702479 
        2.48507         1.99423        0.698266 
         2.4912         1.98414        0.694095 
