# k  (h/Mpc)    Pcb(k)  (Mpc/h)^3    Pcb_linear(k)  (Mpc/h)^3
     0.00783031         3437.56         3459.38 
       0.013688         4337.01         4403.35 
       0.019231         4483.92          4517.3 
      0.0249154         4197.43         4192.28 
      0.0312784         3613.68         3623.42 
      0.0375637         3060.08         3078.58 
      0.0433917         2687.71         2685.06 
      0.0492413            2402         2411.76 
      0.0555754         2223.71          2220.1 
      0.0619321         2048.71         2081.99 
       0.067871         1943.21         1956.24 
      0.0738098         1800.76         1808.12 
      0.0800417         1625.83         1626.17 
      0.0862327          1431.9          1435.8 
      0.0921407         1266.98         1267.67 
      0.0982031         1135.66         1126.44 
       0.104506         1018.89         1020.44 
       0.110769         952.539         952.012 
       0.116806         919.291         909.295 
       0.122832         875.401         875.454 
       0.129052          839.69         837.036 
       0.135211         798.075          788.37 
       0.141259         735.285         730.359 
       0.147318         668.518         667.601 
       0.153489         614.539         606.657 
       0.159709         570.649         554.852 
       0.165845         522.957         516.255 
       0.171974         507.594          489.46 
       0.178125         488.478         470.981 
       0.184229         465.368         456.335 
        0.19034          454.71         441.011 
       0.196428         436.721         422.339 
       0.202534         407.053         399.662 
       0.208729         390.381           374.1 
       0.214876          369.35         348.765 
       0.220989         341.229          326.06 
       0.227147         330.135         307.258 
        0.23329         316.798         292.867 
       0.239377         308.304          282.12 
       0.245482         295.409         273.413 
       0.251667         284.403         265.088 
       0.257832         280.383         256.021 
       0.263955         265.106          245.73 
       0.270079         254.142         234.335 
        0.27624         241.671          222.49 
       0.282372          232.77          211.22 
        0.28843         228.714         201.282 
       0.294538         217.942         192.832 
       0.300721         209.089         185.793 
        0.30691           205.8         179.892 
       0.313033         197.875         174.615 
       0.319153         194.725         169.404 
       0.325316         187.522         163.864 
        0.33145         181.602         157.998 
       0.337538         175.508         151.946 
       0.343633         169.887         145.944 
       0.349808         164.227         140.195 
       0.355968         159.618         135.011 
       0.362074         156.358         130.477 
       0.368217         152.631         126.456 
       0.374374         149.223         122.822 
       0.380519          143.11         119.382 
       0.386598         139.918          116.02 
       0.392688         135.983           112.6 
        0.39888          133.43         109.052 
       0.405048         130.326         105.526 
       0.411186         127.581         102.104 
       0.417313         124.203         98.8666 
       0.423458         120.944         95.8636 
       0.429607         118.691          93.102 
       0.435692          116.76          90.578 
       0.441815         113.019         88.1985 
       0.447964         109.769         85.9009 
       0.454126         107.816          83.635 
       0.460267          106.93         81.3974 
       0.466387         104.265         79.1887 
        0.47254         102.977         77.0023 
       0.478662         99.4475         74.8933 
       0.484765         97.8597         72.8888 
       0.490885         95.4245         70.9894 
       0.497035         94.6002         69.1838 
       0.503198         92.3635         67.4699 
       0.509342         90.0451         65.8398 
       0.515458          88.989         64.2732 
       0.521598         86.8436         62.7346 
       0.527764         85.8433         61.2166 
       0.533884         84.8407         59.7419 
           0.54         82.7259         58.3078 
       0.546137         80.5891          56.914 
       0.552299         79.3572         55.5639 
       0.558452         77.8478         54.2687 
       0.564573         77.4827         53.0345 
       0.570708         75.2058          51.849 
       0.576825         74.4615         50.7095 
       0.582926          73.521         49.6069 
       0.589034         72.1763         48.5294 
       0.595184          71.263         47.4693 
       0.601379         69.4254         46.4291 
       0.607522         68.4249         45.4268 
       0.613639         67.7319         44.4591 
       0.619772         66.5002         43.5197 
       0.625918         65.5643         42.6079 
       0.632068         64.8178         41.7238 
       0.638161         63.5966         40.8748 
         0.6443         63.0081         40.0452 
       0.650464         61.6099         39.2367 
       0.656582         61.3298         38.4569 
       0.662703         60.5557         37.6978 
       0.668861         59.1326          36.954 
       0.675024         58.8339         36.2284 
       0.681124         58.1178         35.5288 
       0.687237          56.957         34.8459 
       0.693381         56.3253          34.178 
       0.699536         55.8593         33.5271 
       0.705665         54.9339         32.8971 
       0.711789         54.1229          32.285 
       0.717957         53.3053         31.6852 
        0.72409         52.8095         31.1045 
       0.730186         52.5277         30.5422 
       0.736317         51.5542         29.9908 
       0.742472         50.9811         29.4508 
       0.748622         50.2388         28.9243 
        0.75476         49.3723         28.4117 
       0.760888         49.3094         27.9122 
       0.767043         48.3954         27.4228 
       0.773185         47.9254         26.9463 
       0.779291         47.3408          26.484 
       0.785407         46.6763         26.0321 
       0.791564         46.6407         25.5883 
       0.797719         45.8034         25.1552 
       0.803834          45.461         24.7351 
       0.809972         44.8288         24.3233 
       0.816124         44.3899         23.9202 
       0.822261         43.8751         23.5274 
       0.828378         43.5975         23.1447 
       0.834502         43.1037         22.7703 
       0.840667         42.7295         22.4019 
       0.846816         41.9952         22.0428 
       0.852925         41.8246         21.6939 
       0.859047         41.5627          21.352 
       0.865192         40.9045         21.0164 
       0.871341         40.4469         20.6878 
       0.877463         40.1065         20.3679 
       0.883569         39.9446         20.0556 
       0.889708         39.4508         19.7484 
       0.895864          39.009         19.4469 
       0.902008         38.6044         19.1524 
       0.908149         38.2747         18.8643 
       0.914301         38.0197         18.5816 
       0.920448         37.6289         18.3052 
       0.926574         37.1356         18.0353 
       0.932687         36.8451         17.7716 
       0.938823         36.4263         17.5122 
       0.944975         36.1332         17.2575 
       0.951105         35.8565         17.0088 
       0.957225         35.6341         16.7655 
       0.963368         35.2029         16.5262 
       0.969511         34.9173         16.2916 
       0.975621         34.6385         16.0628 
       0.981748         34.2615          15.838 
       0.987916         34.0567          15.616 
        0.99406         33.6591         15.3992 
        1.00019         33.4642          15.187 
        1.00632         33.2045          14.979 
        1.01246         32.9248         14.7746 
        1.01859          32.605         14.5745 
        1.02471         32.3247         14.3783 
        1.03085         32.2037         14.1851 
        1.03698         31.9591         13.9959 
        1.04314         31.6475         13.8094 
        1.04929         31.3026         13.6267 
        1.05541         31.2011         13.4481 
        1.06154         31.0036         13.2724 
        1.06769         30.5816         13.0995 
        1.07382         30.4057         12.9304 
        1.07993         30.1433         12.7646 
        1.08607         29.9593         12.6011 
        1.09222         29.7338         12.4403 
        1.09836         29.4605         12.2826 
        1.10449         29.3386         12.1278 
        1.11063         29.0894         11.9755 
        1.11677         29.0321         11.8259 
         1.1229         28.7156         11.6792 
        1.12903         28.4991         11.5349 
        1.13518         28.3613         11.3929 
        1.14131         28.1374         11.2534 
        1.14745         27.8149         11.1163 
        1.15359         27.5901         10.9815 
        1.15973         27.4458         10.8489 
        1.16584         27.2474         10.7192 
        1.17197         26.9562         10.5913 
        1.17811         26.8594         10.4652 
        1.18424         26.5936         10.3416 
        1.19038         26.5128         10.2195 
        1.19652           26.27         10.0996 
        1.20267         26.1605         9.98153 
        1.20881         25.9375         9.86543 
        1.21495         25.7875         9.75138 
        1.22108         25.7211         9.63916 
         1.2272         25.5255         9.52899 
        1.23334         25.3546          9.4203 
        1.23949         25.1532         9.31306 
        1.24562          24.912         9.20781 
        1.25174         24.8379         9.10435 
        1.25789          24.717         9.00218 
        1.26402         24.5702         8.90178 
        1.27014         24.4182         8.80317 
        1.27628         24.1743         8.70577 
        1.28244         24.1759         8.60967 
        1.28858         23.9097         8.51517 
        1.29471         23.7257         8.42231 
        1.30084         23.5846         8.33093 
        1.30697         23.4958         8.24078 
        1.31312         23.2992         8.15185 
        1.31925          23.169         8.06453 
        1.32537         23.0054         7.97858 
        1.33151         22.8694         7.89359 
        1.33765         22.8181          7.8099 
        1.34378         22.6767         7.72761 
        1.34992         22.5318         7.64645 
        1.35606         22.3407         7.56629 
         1.3622         22.1936         7.48743 
        1.36833         22.1439          7.4099 
        1.37445         22.0051         7.33352 
        1.38059         21.8735         7.25799 
        1.38675         21.7193         7.18335 
        1.39288          21.581         7.11006 
        1.39901         21.4734         7.03785 
        1.40515         21.3769         6.96648 
         1.4113         21.2655         6.89613 
        1.41742         21.1629         6.82703 
        1.42355         20.9907         6.75876 
         1.4297         20.8758         6.69122 
        1.43585         20.7755         6.62464 
        1.44198         20.7087         6.55923 
        1.44809         20.5768         6.49482 
        1.45423         20.4523         6.43105 
        1.46036         20.3422         6.36826 
        1.46649          20.225         6.30629 
        1.47263         20.1339         6.24511 
        1.47877         20.0412         6.18476 
        1.48491         19.9226         6.12513 
        1.49104         19.8023         6.06642 
        1.49718         19.7259         6.00843 
        1.50333         19.6414         5.95112 
        1.50947         19.5431         5.89469 
         1.5156         19.4226         5.83907 
        1.52172          19.297         5.78417 
        1.52787         19.2359         5.72988 
          1.534         19.1515         5.67636 
        1.54013         19.0644         5.62358 
        1.54627         18.9142         5.57138 
        1.55241         18.8016         5.51984 
        1.55855         18.7329         5.46903 
        1.56467         18.6941         5.41901 
         1.5708         18.5887         5.36948 
        1.57695          18.486         5.32049 
        1.58308         18.3464         5.27224 
        1.58922          18.278         5.22455 
        1.59535         18.1918         5.17748 
         1.6015         18.0572         5.13092 
        1.60764          18.007         5.08497 
        1.61376         17.9561         5.03971 
        1.61989         17.8148         4.99497 
        1.62604         17.7704         4.95067 
        1.63218         17.6843         4.90695 
        1.63831         17.5573         4.86385 
        1.64444         17.4805         4.82126 
        1.65059         17.4031         4.77909 
        1.65673         17.3529         4.73746 
        1.66285         17.2181         4.69645 
        1.66898         17.1992         4.65592 
        1.67512         17.1396         4.61579 
        1.68127         17.0098          4.5761 
         1.6874         16.9695         4.53697 
        1.69353         16.8124         4.49832 
        1.69967         16.7666         4.46003 
        1.70581         16.7189         4.42221 
        1.71193         16.6003         4.38498 
        1.71806         16.5599         4.34809 
        1.72421         16.4785         4.31156 
        1.73035         16.3916          4.2755 
        1.73649         16.3431         4.23986 
        1.74262         16.2205         4.20465 
        1.74876         16.1805         4.16983 
        1.75489         16.1261         4.13547 
        1.76101         16.0137         4.10152 
        1.76715         15.9723          4.0679 
        1.77329         15.8879         4.03462 
        1.77943         15.7999          4.0017 
        1.78557         15.7763          3.9692 
        1.79171         15.6653         3.93706 
        1.79785         15.6253         3.90527 
        1.80399         15.5267         3.87384 
        1.81012         15.4923          3.8428 
        1.81625         15.3953         3.81211 
        1.82239         15.3319         3.78172 
        1.82853         15.2667         3.75168 
        1.83466         15.1709         3.72199 
        1.84078         15.1507         3.69266 
        1.84692         15.1252          3.6636 
        1.85306         15.0394         3.63482 
         1.8592         14.9716          3.6064 
        1.86533          14.861         3.57829 
        1.87147         14.8165         3.55046 
        1.87761         14.7597         3.52291 
        1.88375         14.7206         3.49569 
        1.88988         14.6064         3.46879 
        1.89601         14.5883         3.44216 
        1.90215         14.4954         3.41579 
        1.90829         14.4236         3.38971 
        1.91442         14.3527          3.3639 
        1.92056         14.3668         3.33838 
         1.9267         14.2847         3.31311 
        1.93284         14.2624         3.28808 
        1.93897           14.16         3.26336 
        1.94509         14.1084         3.23895 
        1.95123         14.0462         3.21473 
        1.95737         14.0085         3.19074 
        1.96349         13.9116         3.16706 
        1.96964         13.8822         3.14355 
        1.97578         13.8442         3.12027 
        1.98192         13.7734         3.09728 
        1.98805         13.6996         3.07451 
        1.99419         13.6592         3.05198 
        2.00033         13.6146         3.02966 
        2.00647          13.542         3.00758 
         2.0126         13.5082         2.98575 
        2.01874          13.424         2.96411 
        2.02488         13.3665         2.94266 
        2.03101          13.345         2.92147 
        2.03714         13.2801          2.9005 
        2.04328         13.2085         2.87972 
        2.04941         13.1496         2.85916 
        2.05554          13.141         2.83882 
        2.06167         13.0874         2.81865 
        2.06781         13.0229         2.79868 
        2.07396         13.0113         2.77887 
        2.08009         12.8936         2.75928 
        2.08622           12.89         2.73991 
        2.09237         12.8472         2.72069 
        2.09851         12.7602         2.70165 
        2.10464         12.7457         2.68283 
        2.11077         12.6599         2.66421 
        2.11691         12.6471         2.64573 
        2.12305         12.5763         2.62742 
        2.12918         12.4973         2.60933 
        2.13531         12.4841         2.59141 
        2.14145         12.4267         2.57361 
         2.1476         12.3786         2.55597 
        2.15372         12.3546         2.53858 
        2.15985         12.2995         2.52134 
        2.16599         12.2523          2.5042 
        2.17213         12.2394         2.48725 
        2.17827         12.1569         2.47046 
         2.1844          12.121         2.45384 
        2.19054         12.0942         2.43736 
        2.19666         12.0457         2.42107 
         2.2028         12.0036         2.40491 
        2.20893         11.9345         2.38888 
        2.21508         11.9135         2.37299 
        2.22122         11.8365         2.35724 
        2.22736         11.8158         2.34166 
        2.23349         11.7716         2.32623 
        2.23962         11.7431         2.31093 
        2.24577         11.7075         2.29576 
         2.2519         11.6615         2.28074 
        2.25802         11.5659         2.26588 
        2.26417         11.5852         2.25112 
        2.27031         11.5356         2.23647 
        2.27644         11.5027           2.222 
        2.28257         11.4144         2.20766 
        2.28872         11.4067         2.19342 
        2.29486         11.3638          2.1793 
        2.30099         11.3337         2.16534 
        2.30712         11.2521          2.1515 
        2.31326         11.2118         2.13776 
         2.3194         11.1891         2.12414 
        2.32553         11.1457         2.11067 
        2.33166         11.1016         2.09732 
         2.3378         11.0745         2.08407 
        2.34394         11.0334         2.07092 
        2.35007         10.9987         2.05792 
        2.35619         10.9531         2.04504 
        2.36233         10.8941         2.03223 
        2.36848         10.8685         2.01952 
        2.37462         10.8333         2.00694 
        2.38075         10.8049         1.99448 
        2.38689         10.7775         1.98211 
        2.39303         10.7101         1.96986 
        2.39916          10.701         1.95772 
        2.40529         10.6667         1.94568 
        2.41143         10.6103         1.93374 
        2.41757         10.5648         1.92189 
         2.4237         10.5499         1.91016 
        2.42983         10.5065         1.89854 
        2.43598         10.4717         1.88698 
        2.44211         10.4342         1.87553 
        2.44823         10.3976         1.86421 
        2.45437         10.3595         1.85295 
        2.46052         10.3535         1.84177 
        2.46665         10.3048         1.83071 
        2.47279         10.2621         1.81974 
        2.47892         10.2151         1.80886 
        2.48507         10.1925         1.79805 
         2.4912         10.1676         1.78735 
