# k  (h/Mpc)    P(k)  (Mpc/h)^3    P_linear(k)  (Mpc/h)^3
     0.00783031         7717.91         7817.48 
       0.013688         10117.6         10067.7 
       0.019231         10632.8         10631.4 
      0.0249154         10094.7         10264.8 
      0.0312784         9203.78         9292.43 
      0.0375637         8164.81         8184.53 
      0.0433917         7139.68          7257.4 
      0.0492413         6461.88         6513.46 
      0.0555754         5767.69         5920.24 
      0.0619321         5484.71         5489.11 
       0.067871         5038.69         5163.43 
      0.0738098         4726.74         4851.53 
      0.0800417         4334.91         4499.33 
      0.0862327         4002.38         4115.75 
      0.0921407         3672.95         3735.68 
      0.0982031         3290.25         3361.36 
       0.104506         3035.93          3019.4 
       0.110769         2767.62         2745.69 
       0.116806          2556.9         2546.38 
       0.122832         2426.38         2400.14 
       0.129052         2269.25         2285.62 
       0.135211         2174.18         2187.45 
       0.141259         2098.36         2088.61 
       0.147318         1998.39         1977.48 
       0.153489         1852.28         1850.73 
       0.159709         1747.88         1715.66 
       0.165845         1660.75         1585.42 
       0.171974         1543.87         1468.06 
       0.178125         1456.09          1369.3 
       0.184229         1389.11         1291.77 
        0.19034         1300.48         1232.01 
       0.196428         1280.46         1184.84 
       0.202534         1244.08         1143.45 
       0.208729         1191.91         1101.53 
       0.214876         1137.78         1056.14 
       0.220989         1106.41         1006.17 
       0.227147         1047.64         952.467 
        0.23329         1003.02         898.579 
       0.239377         978.461         848.195 
       0.245482         912.147         803.238 
       0.251667         901.995         764.685 
       0.257832         869.002         733.015 
       0.263955         841.444          706.83 
       0.270079         814.242         683.871 
        0.27624         806.632         661.909 
       0.282372         773.542         639.587 
        0.28843         758.024         616.291 
       0.294538         722.474         591.596 
       0.300721         718.284         566.139 
        0.30691         685.415         541.232 
       0.313033         671.579         518.207 
       0.319153         651.702         497.444 
       0.325316         632.206         479.066 
        0.33145         615.385         463.016 
       0.337538         608.274         448.787 
       0.343633         589.817         435.529 
       0.349808          571.56         422.489 
       0.355968         566.989          409.41 
       0.362074         556.115         396.218 
       0.368217         541.143          382.81 
       0.374374         520.599         369.488 
       0.380519          515.88         356.665 
       0.386598         503.955         344.709 
       0.392688         501.034         333.643 
        0.39888         486.607         323.351 
       0.405048         477.762         313.933 
       0.411186         468.742         305.212 
       0.417313         460.467         296.915 
       0.423458         452.909         288.801 
       0.429607         443.541          280.79 
       0.435692         433.403         272.911 
       0.441815         430.591         265.068 
       0.447964         422.228         257.378 
       0.454126         409.154         249.948 
       0.460267         404.193         242.891 
       0.466387         399.728         236.264 
        0.47254         391.709         229.997 
       0.478662         390.363           224.1 
       0.484765         379.237         218.506 
       0.490885         375.102          213.11 
       0.497035         368.918         207.836 
       0.503198         361.936         202.655 
       0.509342         359.199         197.597 
       0.515458         355.119         192.676 
       0.521598             349         187.864 
       0.527764         342.764          183.19 
       0.533884         339.953         178.732 
           0.54         335.404         174.474 
       0.546137         334.163         170.381 
       0.552299         327.546         166.435 
       0.558452         324.542         162.644 
       0.564573          319.35         158.996 
       0.570708         314.171         155.445 
       0.576825         309.699         151.992 
       0.582926         306.952         148.626 
       0.589034         303.513         145.343 
       0.595184          300.81          142.13 
       0.601379         297.923         138.994 
       0.607522         292.452         135.985 
       0.613639         291.339         133.087 
       0.619772         284.502         130.277 
       0.625918         283.157         127.555 
       0.632068         279.439         124.918 
       0.638161         278.325         122.382 
         0.6443         273.582         119.897 
       0.650464          271.32         117.464 
       0.656582         269.908         115.109 
       0.662703         267.031         112.812 
       0.668861         262.765         110.564 
       0.675024         260.151         108.377 
       0.681124         259.228         106.274 
       0.687237         255.568         104.227 
       0.693381         252.049         102.226 
       0.699536         250.227         100.277 
       0.705665         249.324         98.3877 
       0.711789         245.534         96.5497 
       0.717957         244.289         94.7464 
        0.72409         241.565         92.9993 
       0.730186         238.622         91.3068 
       0.736317           236.7          89.647 
       0.742472         235.593         88.0218 
       0.748622         233.819          86.438 
        0.75476         231.903         84.8965 
       0.760888         228.701          83.395 
       0.767043         228.055         81.9243 
       0.773185         225.432         80.4929 
       0.779291         221.771         79.1046 
       0.785407         221.176         77.7479 
       0.791564         219.163         76.4152 
       0.797719         216.706          75.115 
       0.803834         215.709         73.8536 
       0.809972          213.65          72.617 
       0.816124         213.887          71.406 
       0.822261         210.525         70.2259 
       0.828378         209.002          69.076 
       0.834502         208.761         67.9509 
       0.840667         205.389         66.8437 
       0.846816         204.391         65.7644 
       0.852925         202.954         64.7159 
       0.859047          201.11         63.6882 
       0.865192         199.878         62.6797 
       0.871341         197.779         61.6925 
       0.877463         196.652         60.7313 
       0.883569         195.067         59.7932 
       0.889708         193.764         58.8703 
       0.895864         191.572         57.9646 
       0.902008         190.855         57.0801 
       0.908149         189.957         56.2146 
       0.914301         187.888         55.3658 
       0.920448         186.582         54.5355 
       0.926574         185.688         53.7252 
       0.932687         184.817         52.9332 
       0.938823         182.669         52.1544 
       0.944975         181.225         51.3896 
       0.951105         180.465          50.643 
       0.957225         178.378         49.9126 
       0.963368         176.947         49.1942 
       0.969511         176.298           48.49 
       0.975621         175.322         47.8035 
       0.981748          174.76         47.1287 
       0.987916          172.56         46.4626 
        0.99406         171.704         45.8121 
        1.00019         171.077         45.1754 
        1.00632           169.6         44.5514 
        1.01246         168.557         43.9384 
        1.01859         167.128         43.3379 
        1.02471         166.528         42.7495 
        1.03085         164.782         42.1701 
        1.03698         163.714         41.6027 
        1.04314         162.693         41.0434 
        1.04929         161.484         40.4957 
        1.05541         160.848         39.9603 
        1.06154         159.715         39.4334 
        1.06769         159.596         38.9151 
        1.07382         158.428          38.408 
        1.07993         157.127         37.9111 
        1.08607          155.99          37.421 
        1.09222         155.224         36.9391 
        1.09836         153.913         36.4662 
        1.10449         152.893         36.0023 
        1.11063         152.002         35.5459 
        1.11677         151.518         35.0977 
         1.1229         149.836          34.658 
        1.12903         149.164         34.2255 
        1.13518         149.091            33.8 
        1.14131         147.505          33.382 
        1.14745         146.861         32.9714 
        1.15359         145.791         32.5676 
        1.15973         145.517         32.1705 
        1.16584         144.108         31.7818 
        1.17197         143.386          31.399 
        1.17811         142.586         31.0213 
        1.18424         141.738          30.651 
        1.19038         141.171         30.2857 
        1.19652         140.244         29.9265 
        1.20267         139.354         29.5732 
        1.20881         138.436         29.2257 
        1.21495         137.625         28.8843 
        1.22108          136.99         28.5485 
         1.2272         135.979         28.2188 
        1.23334         135.263         27.8936 
        1.23949          133.81         27.5727 
        1.24562         133.713         27.2579 
        1.25174         132.345         26.9484 
        1.25789         131.928         26.6429 
        1.26402         131.422         26.3426 
        1.27014         130.414         26.0477 
        1.27628         129.865         25.7565 
        1.28244          129.09         25.4692 
        1.28858         128.495         25.1866 
        1.29471         127.286          24.909 
        1.30084         126.775         24.6359 
        1.30697          126.11         24.3664 
        1.31312         125.814         24.1006 
        1.31925          124.67         23.8397 
        1.32537         124.289         23.5828 
        1.33151          122.99         23.3289 
        1.33765         122.576         23.0788 
        1.34378         121.738         22.8329 
        1.34992         121.632         22.5905 
        1.35606         120.753          22.351 
         1.3622         119.882         22.1155 
        1.36833         119.371         21.8839 
        1.37445         118.528         21.6558 
        1.38059         118.174         21.4302 
        1.38675         117.228         21.2073 
        1.39288         116.731         20.9885 
        1.39901         116.347         20.7728 
        1.40515         115.716         20.5598 
         1.4113         114.454         20.3498 
        1.41742         114.438         20.1435 
        1.42355         113.511         19.9397 
         1.4297         112.883         19.7382 
        1.43585          112.15         19.5395 
        1.44198          111.92         19.3443 
        1.44809         110.988         19.1522 
        1.45423         110.266         18.9619 
        1.46036         110.028         18.7747 
        1.46649          109.42         18.5898 
        1.47263         108.921         18.4074 
        1.47877         108.399         18.2274 
        1.48491          107.58         18.0496 
        1.49104         107.035         17.8746 
        1.49718         106.377         17.7017 
        1.50333         105.841         17.5309 
        1.50947         105.146         17.3627 
         1.5156         104.926         17.1969 
        1.52172         104.101         17.0333 
        1.52787         103.939         16.8715 
          1.534         103.311         16.7121 
        1.54013         102.445         16.5548 
        1.54627         101.955         16.3993 
        1.55241         101.478         16.2458 
        1.55855         101.115         16.0945 
        1.56467         100.458         15.9455 
         1.5708         99.8447          15.798 
        1.57695         99.6502         15.6521 
        1.58308         98.5984         15.5084 
        1.58922         98.5905         15.3664 
        1.59535         98.0638         15.2263 
         1.6015         97.4806         15.0877 
        1.60764         96.9357         14.9509 
        1.61376         96.4728         14.8161 
        1.61989          96.001          14.683 
        1.62604         95.4145         14.5511 
        1.63218          95.175          14.421 
        1.63831         94.4637         14.2928 
        1.64444         94.0318         14.1661 
        1.65059         93.3232         14.0406 
        1.65673         92.8534         13.9168 
        1.66285         92.6184         13.7948 
        1.66898         91.9886         13.6742 
        1.67512         91.4718         13.5549 
        1.68127         90.9758         13.4369 
         1.6874         90.5806         13.3205 
        1.69353         90.1294         13.2056 
        1.69967         89.5588         13.0918 
        1.70581         89.3264         12.9794 
        1.71193         88.9543         12.8687 
        1.71806         88.1665         12.7591 
        1.72421         87.9751         12.6505 
        1.73035         87.3845         12.5434 
        1.73649         86.9532         12.4375 
        1.74262         86.5631         12.3329 
        1.74876         86.1375         12.2294 
        1.75489         85.5359         12.1274 
        1.76101         85.2623         12.0266 
        1.76715         84.7882         11.9267 
        1.77329         84.4012         11.8279 
        1.77943         83.9654         11.7301 
        1.78557          83.605         11.6336 
        1.79171         83.0934         11.5382 
        1.79785         82.7887         11.4438 
        1.80399         82.3287         11.3505 
        1.81012         82.0079         11.2584 
        1.81625         81.4381         11.1674 
        1.82239          81.025         11.0772 
        1.82853         80.7622          10.988 
        1.83466         80.2349         10.8999 
        1.84078         79.8516         10.8129 
        1.84692         79.3961         10.7267 
        1.85306         79.0622         10.6413 
         1.8592         78.4639          10.557 
        1.86533          78.201         10.4736 
        1.87147         77.6642         10.3911 
        1.87761          77.378         10.3094 
        1.88375         77.1603         10.2287 
        1.88988         76.7651         10.1489 
        1.89601         76.2389         10.0699 
        1.90215           75.94         9.99176 
        1.90829          75.666         9.91445 
        1.91442         75.1037         9.83795 
        1.92056         74.7057         9.76233 
         1.9267         74.4227         9.68743 
        1.93284         73.8499         9.61327 
        1.93897         73.5719         9.54002 
        1.94509          73.051          9.4677 
        1.95123         72.8471         9.39595 
        1.95737         72.7105         9.32489 
        1.96349         72.1795         9.25475 
        1.96964         71.7989         9.18513 
        1.97578         71.5179         9.11619 
        1.98192          71.169          9.0481 
        1.98805         70.9071          8.9807 
        1.99419         70.3566         8.91399 
        2.00033         70.1187         8.84792 
        2.00647         69.8195         8.78254 
         2.0126         69.2946         8.71793 
        2.01874         68.9583         8.65387 
        2.02488         68.8215         8.59041 
        2.03101         68.4449         8.52769 
        2.03714         67.9496         8.46567 
        2.04328         67.7087         8.40419 
        2.04941         67.2759         8.34337 
        2.05554         66.9122          8.2832 
        2.06167           66.82         8.22354 
        2.06781         66.3986         8.16446 
        2.07396         65.9852         8.10588 
        2.08009         65.7756         8.04797 
        2.08622         65.3824          7.9907 
        2.09237         65.1154         7.93387 
        2.09851         64.8507         7.87758 
        2.10464          64.449         7.82193 
        2.11077         64.0953         7.76689 
        2.11691         63.8083         7.71226 
        2.12305         63.4685         7.65815 
        2.12918          63.151         7.60468 
        2.13531         62.8487         7.55173 
        2.14145         62.5487         7.49916 
         2.1476         62.3558         7.44702 
        2.15372         61.9946         7.39565 
        2.15985         61.6375          7.3447 
        2.16599         61.3611         7.29409 
        2.17213         61.0969         7.24402 
        2.17827         60.7643         7.19443 
         2.1844          60.306         7.14534 
        2.19054         60.0855          7.0967 
        2.19666         59.9188         7.04858 
         2.2028         59.7304         7.00086 
        2.20893         59.3809         6.95356 
        2.21508         59.0871         6.90664 
        2.22122         58.8328         6.86015 
        2.22736         58.4881         6.81418 
        2.23349         58.2326         6.76864 
        2.23962         57.8696         6.72349 
        2.24577         57.5586         6.67872 
         2.2519         57.3475         6.63441 
        2.25802         57.1212         6.59058 
        2.26417         56.7729         6.54702 
        2.27031         56.5617         6.50382 
        2.27644         56.1706         6.46113 
        2.28257         55.9902         6.41883 
        2.28872         55.7013         6.37682 
        2.29486         55.4263         6.33521 
        2.30099          55.216         6.29404 
        2.30712         54.9438         6.25323 
        2.31326         54.6205         6.21271 
         2.3194         54.3866         6.17257 
        2.32553         54.1156         6.13285 
        2.33166         53.8239          6.0935 
         2.3378         53.4844         6.05445 
        2.34394         53.1686         6.01572 
        2.35007         52.9964         5.97738 
        2.35619         52.8696         5.93943 
        2.36233         52.6848         5.90172 
        2.36848         52.2198         5.86426 
        2.37462         52.0475          5.8272 
        2.38075         51.7934          5.7905 
        2.38689         51.6159         5.75408 
        2.39303         51.4261         5.71798 
        2.39916            51.2         5.68223 
        2.40529         50.8644         5.64679 
        2.41143          50.598         5.61163 
        2.41757         50.3793         5.57674 
         2.4237         50.1798         5.54222 
        2.42983         49.8813           5.508 
        2.43598         49.6224         5.47397 
        2.44211         49.4296         5.44029 
        2.44823         49.1528         5.40696 
        2.45437         48.9092         5.37383 
        2.46052         48.6146         5.34094 
        2.46665          48.464         5.30839 
        2.47279         48.2642         5.27612 
        2.47892          48.032         5.24409 
        2.48507         47.7906         5.21231 
         2.4912         47.6377         5.18084 
