# k  (h/Mpc)    P(k)  (Mpc/h)^3    P_linear(k)  (Mpc/h)^3
     0.00783031         15654.2           15733 
       0.013688         18093.5         18562.1 
       0.019231         17904.2         18170.4 
      0.0249154         16393.8         16337.8 
      0.0312784         13719.6         13838.8 
      0.0375637         11476.4           11661 
      0.0433917         10099.5         10144.3 
      0.0492413         8970.61         9079.01 
      0.0555754         8234.46         8272.35 
      0.0619321         7355.56         7617.54 
       0.067871         6870.15          7004.5 
      0.0738098         6284.14         6337.01 
      0.0800417         5592.61         5603.08 
      0.0862327         4898.19         4910.43 
      0.0921407         4385.89          4346.4 
      0.0982031         3998.77         3898.34 
       0.104506         3602.76         3567.41 
       0.110769         3388.41         3338.37 
       0.116806         3257.25          3164.8 
       0.122832         3054.44         2996.37 
       0.129052         2859.41         2801.84 
       0.135211         2720.66         2585.04 
       0.141259         2476.18         2363.26 
       0.147318         2262.73         2153.41 
       0.153489         2112.81         1970.34 
       0.159709         2023.11          1825.4 
       0.165845         1860.59         1718.46 
       0.171974         1822.72         1636.82 
       0.178125         1762.26         1566.56 
       0.184229         1628.12         1496.73 
        0.19034         1592.41         1420.21 
       0.196428         1533.02         1337.09 
       0.202534         1424.78         1251.26 
       0.208729         1390.18         1168.14 
       0.214876          1319.9         1095.04 
       0.220989         1248.42         1034.15 
       0.227147         1215.51         984.133 
        0.23329         1168.74         942.641 
       0.239377         1159.95         905.941 
       0.245482         1101.52         870.066 
       0.251667         1059.89         832.604 
       0.257832         1040.73         793.796 
       0.263955         988.183         754.871 
       0.270079         955.578         717.322 
        0.27624         915.488         682.532 
       0.282372         900.752         651.766 
        0.28843          886.84         625.157 
       0.294538         843.724         601.397 
       0.300721         825.102         579.414 
        0.30691         806.145         558.373 
       0.313033         772.299         537.823 
       0.319153         762.187         517.275 
       0.325316          751.13         496.807 
        0.33145         732.789         477.062 
       0.337538         706.604         458.547 
       0.343633          688.82          441.37 
       0.349808         673.564         425.418 
       0.355968         660.854         410.793 
       0.362074         637.446         397.262 
       0.368217         634.987         384.319 
       0.374374         625.111         371.748 
       0.380519         600.688         359.495 
       0.386598         595.683          347.66 
       0.392688         581.038         336.168 
        0.39888          566.97         324.983 
       0.405048         555.334         314.426 
       0.411186         554.412         304.522 
       0.417313         548.838         295.218 
       0.423458         532.679         286.381 
       0.429607         517.328         277.935 
       0.435692         511.414         269.896 
       0.441815         501.808         262.067 
       0.447964         493.254         254.438 
       0.454126         487.629         247.047 
       0.460267         479.781         239.954 
       0.466387         470.595          233.17 
        0.47254         464.156         226.644 
       0.478662         455.731         220.445 
       0.484765         449.819         214.533 
       0.490885         445.716         208.838 
       0.497035         435.979         203.324 
       0.503198         435.734         197.991 
       0.509342         426.555          192.85 
       0.515458         418.258         187.896 
       0.521598         414.581         183.086 
       0.527764         406.746         178.425 
       0.533884         403.165          173.97 
           0.54         398.961         169.681 
       0.546137         391.366         165.531 
       0.552299         389.855          161.51 
       0.558452         383.673         157.633 
       0.564573         380.961         153.904 
       0.570708         375.696         150.285 
       0.576825         368.597         146.789 
       0.582926         367.303          143.41 
       0.589034         360.842         140.132 
       0.595184         358.346         136.935 
       0.601379         352.626         133.821 
       0.607522         345.841         130.831 
       0.613639         345.086         127.949 
       0.619772         343.784         125.147 
       0.625918         336.836         122.425 
       0.632068         334.702         119.781 
       0.638161         331.901         117.239 
         0.6443         327.207         114.753 
       0.650464         323.926          112.33 
       0.656582         320.841         109.994 
       0.662703         318.876         107.726 
       0.668861         313.185         105.509 
       0.675024         311.968         103.353 
       0.681124         306.797         101.279 
       0.687237         305.784         99.2592 
       0.693381         301.186         97.2851 
       0.699536         300.367         95.3616 
       0.705665         296.601         93.4988 
       0.711789         294.382         91.6878 
       0.717957         291.408         89.9127 
        0.72409         287.644         88.1948 
       0.730186         289.098         86.5325 
       0.736317         284.099         84.9042 
       0.742472         281.562         83.3121 
       0.748622         279.293         81.7625 
        0.75476         277.787         80.2558 
       0.760888         274.794         78.7895 
       0.767043         271.891         77.3543 
       0.773185         270.064         75.9579 
       0.779291         267.061         74.6041 
       0.785407         265.611         73.2815 
       0.791564         263.676         71.9828 
       0.797719         259.418         70.7165 
       0.803834         260.881         69.4887 
       0.809972         256.946         68.2859 
       0.816124         253.984         67.1091 
       0.822261         252.246         65.9633 
       0.828378         251.219         64.8478 
       0.834502         247.829         63.7574 
       0.840667         248.036         62.6851 
       0.846816         243.365         61.6406 
       0.852925         243.804         60.6266 
       0.859047          241.33         59.6333 
       0.865192          240.47         58.6592 
       0.871341         237.473         57.7063 
       0.877463         235.926         56.7789 
       0.883569         234.834         55.8744 
       0.889708         232.766          54.985 
       0.895864         230.084         54.1128 
       0.902008         228.707         53.2615 
       0.908149         226.819          52.429 
       0.914301         225.515         51.6131 
       0.920448         224.415         50.8154 
       0.926574          222.38         50.0374 
       0.932687         222.012         49.2774 
       0.938823         219.467         48.5305 
       0.944975         219.051         47.7975 
       0.951105          216.63         47.0823 
       0.957225         214.747          46.383 
       0.963368         214.929         45.6956 
       0.969511         211.328         45.0221 
       0.975621         209.543         44.3659 
       0.981748         209.355         43.7212 
       0.987916         208.248         43.0852 
        0.99406         206.364         42.4643 
        1.00019         205.057         41.8569 
        1.00632         204.151         41.2619 
        1.01246         202.628         40.6777 
        1.01859         200.521         40.1058 
        1.02471         199.145         39.5456 
        1.03085         198.007         38.9942 
        1.03698         197.503         38.4545 
        1.04314         196.661         37.9228 
        1.04929          195.27         37.4023 
        1.05541         194.192         36.8938 
        1.06154         192.376         36.3934 
        1.06769         191.178         35.9016 
        1.07382         190.013         35.4205 
        1.07993         188.481         34.9494 
        1.08607          187.87         34.4849 
        1.09222         186.174         34.0284 
        1.09836         185.559         33.5807 
        1.10449         184.252         33.1416 
        1.11063          182.87         32.7099 
        1.11677         181.745         32.2861 
         1.1229         181.155         31.8706 
        1.12903          179.31          31.462 
        1.13518         178.454         31.0602 
        1.14131         177.777         30.6657 
        1.14745         176.007         30.2783 
        1.15359         175.008         29.8976 
        1.15973          174.42         29.5232 
        1.16584         173.308          29.157 
        1.17197         172.522         28.7964 
        1.17811         171.005         28.4409 
        1.18424         170.105         28.0924 
        1.19038         169.375         27.7488 
        1.19652         167.635          27.411 
        1.20267         166.827         27.0789 
        1.20881         165.783         26.7523 
        1.21495         165.655         26.4317 
        1.22108         164.265         26.1164 
         1.2272          163.07         25.8069 
        1.23334         162.176         25.5018 
        1.23949          161.51         25.2009 
        1.24562         160.395         24.9057 
        1.25174         159.818         24.6157 
        1.25789         158.354         24.3294 
        1.26402         157.981         24.0481 
        1.27014         157.185         23.7721 
        1.27628         156.131         23.4995 
        1.28244         154.989         23.2307 
        1.28858         154.151         22.9664 
        1.29471         153.086         22.7068 
        1.30084         152.368         22.4515 
        1.30697         151.247         22.1998 
        1.31312         150.654         21.9515 
        1.31925         149.495         21.7078 
        1.32537         149.099         21.4681 
        1.33151         148.132         21.2311 
        1.33765           147.2         20.9978 
        1.34378         146.808         20.7685 
        1.34992         145.637         20.5425 
        1.35606          145.05         20.3194 
         1.3622         144.124         20.0999 
        1.36833         143.126         19.8843 
        1.37445         142.953         19.6719 
        1.38059         141.615          19.462 
        1.38675         140.897         19.2546 
        1.39288         140.019         19.0511 
        1.39901         139.114         18.8507 
        1.40515         138.703         18.6526 
         1.4113         137.804         18.4575 
        1.41742         137.029         18.2659 
        1.42355          136.59         18.0767 
         1.4297         135.559         17.8896 
        1.43585         135.071         17.7053 
        1.44198         133.714         17.5242 
        1.44809         133.491          17.346 
        1.45423         132.824         17.1696 
        1.46036          131.81          16.996 
        1.46649         131.025         16.8248 
        1.47263         130.519         16.6558 
        1.47877         129.667         16.4891 
        1.48491         128.984         16.3245 
        1.49104         127.892         16.1625 
        1.49718         127.637         16.0025 
        1.50333         126.709         15.8445 
        1.50947         126.305         15.6889 
         1.5156         125.344         15.5356 
        1.52172          124.74         15.3844 
        1.52787         124.341         15.2348 
          1.534         123.562         15.0875 
        1.54013          122.69         14.9422 
        1.54627         122.096         14.7986 
        1.55241         121.687         14.6569 
        1.55855         121.023         14.5172 
        1.56467         120.362         14.3797 
         1.5708         119.266         14.2436 
        1.57695          119.12         14.1091 
        1.58308         118.141         13.9766 
        1.58922         117.704         13.8457 
        1.59535         117.291         13.7166 
         1.6015         116.428         13.5889 
        1.60764         115.704         13.4629 
        1.61376         115.231         13.3389 
        1.61989         114.749         13.2163 
        1.62604         113.826          13.095 
        1.63218          113.44         12.9752 
        1.63831         112.671         12.8573 
        1.64444         111.974         12.7408 
        1.65059         111.589         12.6254 
        1.65673           111.2         12.5116 
        1.66285         110.729         12.3995 
        1.66898         109.794         12.2888 
        1.67512         109.029         12.1791 
        1.68127         108.889         12.0708 
         1.6874         108.075          11.964 
        1.69353         107.605         11.8585 
        1.69967         106.892         11.7541 
        1.70581         106.575         11.6509 
        1.71193         105.912         11.5494 
        1.71806         105.053         11.4489 
        1.72421         104.692         11.3494 
        1.73035         104.159         11.2511 
        1.73649          103.58         11.1541 
        1.74262         103.145         11.0583 
        1.74876          102.41         10.9635 
        1.75489         102.262           10.87 
        1.76101         101.517         10.7777 
        1.76715         100.822         10.6863 
        1.77329         100.373         10.5958 
        1.77943         99.8016         10.5064 
        1.78557         99.5452         10.4181 
        1.79171         98.8229         10.3308 
        1.79785         98.1741         10.2445 
        1.80399         97.8207         10.1592 
        1.81012         97.0711          10.075 
        1.81625         96.6943         9.99174 
        1.82239          96.349         9.90933 
        1.82853         95.5609         9.82789 
        1.83466         94.9754         9.74744 
        1.84078         94.9017         9.66798 
        1.84692         94.5662         9.58927 
        1.85306         93.9612         9.51134 
         1.8592         93.5128          9.4344 
        1.86533         92.8418         9.35835 
        1.87147         92.4807         9.28305 
        1.87761         91.7486         9.20855 
        1.88375         91.3683         9.13495 
        1.88988         90.7971         9.06223 
        1.89601         90.6725         8.99027 
        1.90215         90.2382         8.91902 
        1.90829         89.4361         8.84859 
        1.91442         88.8801         8.77891 
        1.92056         88.5535         8.71004 
         1.9267         88.1631         8.64184 
        1.93284         87.6732         8.57432 
        1.93897         87.2894         8.50766 
        1.94509         86.8593         8.44185 
        1.95123          86.409         8.37656 
        1.95737         86.0678         8.31192 
        1.96349         85.6838         8.24813 
        1.96964         85.1513         8.18482 
        1.97578         84.6945         8.12214 
        1.98192         84.3333         8.06025 
        1.98805         83.8049           7.999 
        1.99419         83.5638         7.93837 
        2.00033         82.9259         7.87835 
        2.00647         82.4748         7.81896 
         2.0126         82.1824         7.76028 
        2.01874         81.8539         7.70211 
        2.02488         81.3089         7.64448 
        2.03101         80.8994         7.58756 
        2.03714         80.5401         7.53126 
        2.04328         80.3632         7.47547 
        2.04941         79.8543         7.42029 
        2.05554         79.4298          7.3657 
        2.06167         78.9006         7.31159 
        2.06781         78.5549         7.25802 
        2.07396         77.9685          7.2049 
        2.08009         77.6744         7.15241 
        2.08622         77.3694          7.1005 
        2.09237         76.9606           7.049 
        2.09851         76.4396         6.99801 
        2.10464         76.3027          6.9476 
        2.11077         75.8594         6.89775 
        2.11691         75.5297         6.84827 
        2.12305         75.0953         6.79928 
        2.12918         74.6601         6.75089 
        2.13531         74.3256         6.70296 
        2.14145         74.0127         6.65538 
         2.1476         73.7206         6.60821 
        2.15372         73.1928         6.56173 
        2.15985         72.8434         6.51566 
        2.16599         72.5269         6.46989 
        2.17213         72.0305         6.42461 
        2.17827         71.5504         6.37977 
         2.1844          71.407          6.3354 
        2.19054         70.9682         6.29144 
        2.19666         70.6852         6.24795 
         2.2028         70.4568         6.20484 
        2.20893         70.1071         6.16211 
        2.21508         69.6805         6.11974 
        2.22122         69.2182         6.07775 
        2.22736         68.9054         6.03624 
        2.23349         68.5535         5.99513 
        2.23962         68.2819         5.95438 
        2.24577         68.0446         5.91397 
         2.2519         67.6162         5.87399 
        2.25802         67.2416         5.83445 
        2.26417         66.9049         5.79515 
        2.27031          66.589         5.75619 
        2.27644         66.2246         5.71769 
        2.28257         65.9695         5.67955 
        2.28872         65.5478         5.64168 
        2.29486         65.4562         5.60417 
        2.30099         64.8642         5.56707 
        2.30712         64.7657         5.53029 
        2.31326         64.3915         5.49378 
         2.3194         64.0602         5.45762 
        2.32553         63.6602         5.42184 
        2.33166         63.4198          5.3864 
         2.3378         63.1769         5.35123 
        2.34394          62.908         5.31636 
        2.35007         62.4787         5.28185 
        2.35619         62.2535         5.24769 
        2.36233         61.9003         5.21375 
        2.36848         61.5893         5.18004 
        2.37462         61.2645         5.14669 
        2.38075         60.9989         5.11367 
        2.38689         60.6068         5.08092 
        2.39303         60.4801         5.04845 
        2.39916         60.0561         5.01631 
        2.40529         59.9272         4.98444 
        2.41143         59.5894         4.95283 
        2.41757         59.1795         4.92147 
         2.4237         59.0321         4.89045 
        2.42983         58.7138          4.8597 
        2.43598         58.4027         4.82912 
        2.44211         58.1425         4.79887 
        2.44823         57.8924         4.76893 
        2.45437         57.5231         4.73917 
        2.46052         57.3354         4.70964 
        2.46665         56.8741         4.68041 
        2.47279         56.7144         4.65144 
        2.47892         56.4844          4.6227 
        2.48507         56.2283         4.59417 
         2.4912         55.9473         4.56593 
