# k  (h/Mpc)    P(k)  (Mpc/h)^3    P_linear(k)  (Mpc/h)^3
     0.00783031         491.592         495.378 
       0.013688         641.851         647.845 
       0.019231         686.949         689.615 
      0.0249154         669.421         669.991 
      0.0312784         610.571         611.399 
      0.0375637         543.491         544.594 
      0.0433917         490.149         489.508 
      0.0492413         445.514         445.896 
      0.0555754         411.694         410.914 
      0.0619321         381.817         383.987 
       0.067871         360.806         361.375 
      0.0738098         337.473           337.8 
      0.0800417          310.88         310.654 
      0.0862327         281.854         282.119 
      0.0921407         255.205         255.512 
      0.0982031          231.46         231.055 
       0.104506         209.653         210.226 
       0.110769          194.09         194.496 
       0.116806         183.751         183.258 
       0.122832         174.172         174.507 
       0.129052         166.569          166.47 
       0.135211         158.678         158.226 
       0.141259         149.198         149.238 
       0.147318         138.873         139.429 
       0.153489          129.17         129.209 
       0.159709         119.846         119.486 
       0.165845          110.68         111.121 
       0.171974         104.924         104.302 
       0.178125         99.5215         98.9384 
       0.184229         94.8561         94.7316 
        0.19034         91.7755         91.1378 
       0.196428         88.1938         87.6917 
       0.202534          83.882         84.0342 
       0.208729            80.4         79.9949 
       0.214876         76.5635         75.7515 
       0.220989         71.6196         71.5256 
       0.227147         68.4561         67.5237 
        0.23329          65.034         63.9851 
       0.239377         62.1666         61.0082 
       0.245482         59.5258         58.5156 
       0.251667         57.1032         56.3693 
       0.257832         55.5798         54.4402 
       0.263955         53.3663         52.5756 
       0.270079         51.4565         50.6607 
        0.27624         49.2101         48.6505 
       0.282372         47.2651            46.6 
        0.28843         45.7312         44.5983 
       0.294538         43.7286         42.6834 
       0.300721         41.7447         40.9156 
        0.30691          40.504         39.3418 
       0.313033         39.0156         37.9689 
       0.319153         38.1414         36.7363 
       0.325316         36.4948          35.584 
        0.33145         35.3707         34.4735 
       0.337538         34.3601         33.3757 
       0.343633         33.3489         32.2671 
       0.349808         32.1683         31.1452 
       0.355968         31.0374         30.0473 
       0.362074         30.1913          29.006 
       0.368217         29.1842         28.0259 
       0.374374         28.4972         27.1184 
       0.380519         27.3979         26.2869 
       0.386598         26.5706         25.5228 
       0.392688         25.8097         24.7999 
        0.39888         25.2166         24.0923 
       0.405048         24.5585         23.4012 
       0.411186         23.8501         22.7234 
       0.417313         23.1903         22.0575 
       0.423458         22.4408         21.4054 
       0.429607         21.9765         20.7769 
       0.435692         21.4634         20.1848 
       0.441815         20.7359         19.6206 
       0.447964         20.1126         19.0866 
       0.454126         19.7351         18.5804 
       0.460267         19.4124         18.0985 
       0.466387         18.8489         17.6356 
        0.47254         18.4726         17.1838 
       0.478662         17.9655         16.7449 
       0.484765         17.5488         16.3172 
       0.490885         17.0613         15.9001 
       0.497035          16.627         15.4946 
       0.503198         16.2905         15.1034 
       0.509342         15.8441          14.729 
       0.515458         15.5796         14.3724 
       0.521598          15.226         14.0294 
       0.527764         14.9776         13.6979 
       0.533884         14.5268         13.3798 
           0.54         14.2555         13.0715 
       0.546137         13.8606         12.7709 
       0.552299         13.6091         12.4772 
       0.558452         13.3232         12.1919 
       0.564573         13.0938         11.9163 
       0.570708         12.8026         11.6487 
       0.576825         12.5508          11.391 
       0.582926         12.2798         11.1429 
       0.589034         12.0673         10.9027 
       0.595184         11.8803         10.6685 
       0.601379         11.5728         10.4399 
       0.607522          11.358         10.2199 
       0.613639         11.0981          10.007 
       0.619772         10.9415         9.79948 
       0.625918         10.7145         9.59708 
       0.632068         10.5595             9.4 
       0.638161         10.3462         9.21014 
         0.6443         10.1464         9.02427 
       0.650464          9.9217         8.84317 
       0.656582         9.82524         8.66873 
       0.662703          9.6617         8.49924 
       0.668861         9.40862         8.33351 
       0.675024         9.26418         8.17213 
       0.681124         9.22218          8.0166 
       0.687237         9.00724          7.8647 
       0.693381         8.78067         7.71597 
       0.699536         8.71581         7.57081 
       0.705665         8.55613         7.43005 
       0.711789         8.37323         7.29307 
       0.717957         8.21914         7.15871 
        0.72409          8.1186         7.02857 
       0.730186         8.03662         6.90254 
       0.736317         7.86532         6.77897 
       0.742472         7.76301         6.65801 
       0.748622         7.64586         6.54013 
        0.75476         7.46642         6.42537 
       0.760888          7.3993         6.31355 
       0.767043         7.22304         6.20397 
       0.773185           7.139         6.09724 
       0.779291         7.09357         5.99366 
       0.785407         6.95028         5.89237 
       0.791564         6.85814         5.79281 
       0.797719          6.7368         5.69565 
       0.803834         6.65354         5.60137 
       0.809972         6.54205         5.50891 
       0.816124         6.45476         5.41837 
       0.822261         6.36966         5.33013 
       0.828378         6.26587         5.24414 
       0.834502         6.18901            5.16 
       0.840667         6.12252         5.07717 
       0.846816         6.01191         4.99641 
       0.852925          5.9281         4.91793 
       0.859047         5.85144           4.841 
       0.865192         5.77095         4.76547 
       0.871341         5.69061         4.69152 
       0.877463          5.6098         4.61949 
       0.883569         5.54251         4.54918 
       0.889708         5.47347         4.47998 
       0.895864         5.40175         4.41207 
       0.902008         5.31533         4.34572 
       0.908149         5.25357         4.28079 
       0.914301         5.19983          4.2171 
       0.920448         5.13065         4.15477 
       0.926574         5.09301         4.09394 
       0.932687         5.00876         4.03447 
       0.938823          4.9262         3.97598 
       0.944975         4.88529         3.91852 
       0.951105         4.79896         3.86242 
       0.957225         4.75845         3.80753 
       0.963368         4.71327         3.75352 
       0.969511         4.65801         3.70057 
       0.975621         4.59075         3.64894 
       0.981748         4.50894         3.59817 
       0.987916         4.46886         3.54806 
        0.99406          4.4395          3.4991 
        1.00019         4.38363         3.45116 
        1.00632         4.34173         3.40418 
        1.01246         4.27788         3.35801 
        1.01859         4.23024         3.31278 
        1.02471          4.1643         3.26844 
        1.03085         4.13397         3.22477 
        1.03698         4.09028           3.182 
        1.04314         4.04966         3.13983 
        1.04929         3.99938         3.09853 
        1.05541         3.94521         3.05814 
        1.06154          3.9163         3.01838 
        1.06769         3.88825         2.97928 
        1.07382         3.82649           2.941 
        1.07993         3.77971         2.90349 
        1.08607         3.75305         2.86648 
        1.09222          3.6992         2.83008 
        1.09836         3.68602         2.79437 
        1.10449         3.61305         2.75932 
        1.11063         3.58726         2.72483 
        1.11677         3.55646         2.69096 
         1.1229         3.50874         2.65772 
        1.12903         3.48832         2.62502 
        1.13518         3.43683         2.59285 
        1.14131         3.40699         2.56124 
        1.14745         3.36938         2.53018 
        1.15359         3.33884         2.49963 
        1.15973         3.30395         2.46958 
        1.16584         3.26993         2.44017 
        1.17197           3.234         2.41119 
        1.17811         3.20255          2.3826 
        1.18424         3.17095         2.35456 
        1.19038         3.13873         2.32689 
        1.19652         3.11846         2.29969 
        1.20267         3.09199         2.27292 
        1.20881         3.05355         2.24658 
        1.21495          3.0283         2.22071 
        1.22108         3.00262         2.19526 
         1.2272         2.95962         2.17026 
        1.23334         2.94762          2.1456 
        1.23949         2.91783         2.12127 
        1.24562         2.89074         2.09738 
        1.25174         2.86619          2.0739 
        1.25789         2.83114         2.05071 
        1.26402         2.80255         2.02792 
        1.27014         2.77719         2.00553 
        1.27628         2.75558         1.98342 
        1.28244         2.73531          1.9616 
        1.28858         2.70755         1.94014 
        1.29471         2.67539         1.91905 
        1.30084         2.65737          1.8983 
        1.30697         2.63992         1.87782 
        1.31312         2.61548         1.85762 
        1.31925         2.59243         1.83778 
        1.32537         2.57273         1.81825 
        1.33151         2.54497         1.79894 
        1.33765         2.52615         1.77993 
        1.34378         2.50297         1.76122 
        1.34992         2.48683         1.74278 
        1.35606         2.46314         1.72456 
         1.3622         2.44491         1.70663 
        1.36833         2.41912         1.68901 
        1.37445           2.399         1.67164 
        1.38059         2.37988         1.65447 
        1.38675         2.36159          1.6375 
        1.39288         2.34519         1.62084 
        1.39901           2.322         1.60441 
        1.40515         2.30168         1.58818 
         1.4113         2.29121         1.57219 
        1.41742         2.26425         1.55647 
        1.42355         2.24348         1.54094 
         1.4297         2.23487         1.52558 
        1.43585         2.21213         1.51044 
        1.44198         2.19626         1.49556 
        1.44809         2.18014          1.4809 
        1.45423         2.16498          1.4664 
        1.46036         2.14781         1.45211 
        1.46649         2.12107         1.43801 
        1.47263         2.11402         1.42409 
        1.47877         2.10321         1.41036 
        1.48491          2.0755         1.39679 
        1.49104          2.0664         1.38343 
        1.49718          2.0469         1.37024 
        1.50333         2.03332         1.35719 
        1.50947         2.02007         1.34435 
         1.5156         2.00377         1.33169 
        1.52172         1.99064         1.31919 
        1.52787         1.97393         1.30683 
          1.534         1.96299         1.29465 
        1.54013         1.94527         1.28263 
        1.54627         1.93081         1.27074 
        1.55241          1.9137         1.25901 
        1.55855         1.90315         1.24744 
        1.56467         1.88977         1.23605 
         1.5708         1.87538         1.22476 
        1.57695          1.8587         1.21361 
        1.58308         1.84348         1.20262 
        1.58922         1.83888         1.19176 
        1.59535         1.81824         1.18103 
         1.6015         1.80458         1.17043 
        1.60764         1.79538         1.15996 
        1.61376         1.78063         1.14965 
        1.61989         1.77082         1.13945 
        1.62604         1.75349         1.12936 
        1.63218         1.74906          1.1194 
        1.63831         1.73381         1.10958 
        1.64444         1.72108         1.09987 
        1.65059         1.71261         1.09026 
        1.65673         1.69695         1.08078 
        1.66285         1.68632         1.07143 
        1.66898         1.67773          1.0622 
        1.67512         1.66031         1.05305 
        1.68127         1.64868         1.04401 
         1.6874         1.64503         1.03509 
        1.69353         1.62903         1.02628 
        1.69967         1.61977         1.01756 
        1.70581         1.61288         1.00893 
        1.71193         1.59615         1.00045 
        1.71806         1.58728        0.992041 
        1.72421         1.57887        0.983714 
        1.73035         1.56238        0.975493 
        1.73649         1.56219        0.967369 
        1.74262          1.5471        0.959343 
        1.74876         1.53745        0.951404 
        1.75489         1.52888        0.943572 
        1.76101         1.51495         0.93583 
        1.76715         1.50773        0.928165 
        1.77329         1.49907        0.920577 
        1.77943          1.4897         0.91307 
        1.78557         1.48326        0.905659 
        1.79171         1.47365        0.898329 
        1.79785         1.46266        0.891079 
        1.80399         1.45207        0.883911 
        1.81012         1.44347        0.876832 
        1.81625         1.43348        0.869834 
        1.82239         1.42569        0.862902 
        1.82853         1.41737         0.85605 
        1.83466         1.40696        0.849279 
        1.84078         1.39787        0.842588 
        1.84692         1.39148        0.835959 
        1.85306         1.38573        0.829394 
         1.8592         1.37386         0.82291 
        1.86533         1.36773        0.816499 
        1.87147         1.35499         0.81015 
        1.87761         1.35022        0.803865 
        1.88375         1.34235        0.797655 
        1.88988         1.33331        0.791518 
        1.89601         1.32542        0.785442 
        1.90215          1.3189        0.779425 
        1.90829         1.31117        0.773474 
        1.91442          1.3026        0.767585 
        1.92056         1.29817        0.761764 
         1.9267         1.28939        0.755996 
        1.93284         1.28013        0.750286 
        1.93897          1.2729        0.744645 
        1.94509         1.26837        0.739075 
        1.95123         1.25738        0.733548 
        1.95737         1.25191        0.728074 
        1.96349         1.24461         0.72267 
        1.96964          1.2393        0.717305 
        1.97578         1.22843        0.711993 
        1.98192         1.22248        0.706746 
        1.98805         1.21692        0.701551 
        1.99419         1.21066        0.696409 
        2.00033         1.20431        0.691315 
        2.00647         1.19742        0.686275 
         2.0126         1.19266        0.681293 
        2.01874         1.18487        0.676353 
        2.02488         1.17615        0.671458 
        2.03101         1.17113        0.666621 
        2.03714         1.16619        0.661836 
        2.04328         1.15744        0.657093 
        2.04941         1.15124        0.652401 
        2.05554         1.14612        0.647758 
        2.06167         1.13985        0.643153 
        2.06781         1.13129        0.638594 
        2.07396         1.12881        0.634072 
        2.08009         1.12124        0.629601 
        2.08622         1.11566         0.62518 
        2.09237         1.11007        0.620792 
        2.09851         1.10297        0.616446 
        2.10464         1.09987        0.612148 
        2.11077         1.09113        0.607897 
        2.11691         1.08656        0.603677 
        2.12305         1.08299        0.599498 
        2.12918         1.07457        0.595368 
        2.13531         1.06972        0.591276 
        2.14145         1.06387        0.587214 
         2.1476         1.06051        0.583186 
        2.15372         1.05291        0.579215 
        2.15985          1.0479        0.575278 
        2.16599         1.04419        0.571366 
        2.17213         1.03808        0.567495 
        2.17827         1.03088        0.563661 
         2.1844         1.02791        0.559866 
        2.19054         1.02242        0.556105 
        2.19666         1.01808        0.552383 
         2.2028         1.01145        0.548693 
        2.20893         1.00696        0.545034 
        2.21508          1.0021        0.541405 
        2.22122        0.999236        0.537808 
        2.22736        0.989737        0.534251 
        2.23349        0.986164        0.530727 
        2.23962        0.982697        0.527234 
        2.24577        0.977431        0.523768 
         2.2519        0.972312        0.520339 
        2.25802        0.969941        0.516946 
        2.26417        0.962391        0.513575 
        2.27031        0.959046         0.51023 
        2.27644        0.956013        0.506925 
        2.28257        0.948371        0.503649 
        2.28872        0.946821        0.500396 
        2.29486        0.940278        0.497173 
        2.30099        0.936732        0.493985 
        2.30712        0.932616        0.490824 
        2.31326        0.928165        0.487685 
         2.3194        0.924565        0.484575 
        2.32553        0.919072        0.481498 
        2.33166        0.915939        0.478449 
         2.3378        0.910877        0.475422 
        2.34394        0.906706        0.472421 
        2.35007        0.900618        0.469449 
        2.35619        0.896546        0.466508 
        2.36233        0.892604        0.463584 
        2.36848        0.890608        0.460679 
        2.37462        0.887196        0.457806 
        2.38075        0.880876         0.45496 
        2.38689        0.878306        0.452136 
        2.39303        0.873725        0.449336 
        2.39916         0.86963        0.446563 
        2.40529        0.868076        0.443814 
        2.41143        0.860694        0.441086 
        2.41757        0.858923         0.43838 
         2.4237        0.854194        0.435701 
        2.42983          0.8502        0.433046 
        2.43598        0.847368        0.430405 
        2.44211        0.842087        0.427791 
        2.44823        0.839894        0.425205 
        2.45437        0.836474        0.422633 
        2.46052        0.832986         0.42008 
        2.46665        0.828863        0.417553 
        2.47279         0.82487        0.415048 
        2.47892        0.821722        0.412561 
        2.48507        0.819274        0.410093 
         2.4912        0.814471         0.40765 
