# k  (h/Mpc)    P(k)  (Mpc/h)^3    P_linear(k)  (Mpc/h)^3
     0.00783031         11026.6         11080.9 
       0.013688         14121.9         14475.4 
       0.019231           15169         15400.3 
      0.0249154         14928.8         14957.1 
      0.0312784         13454.3         13645.9 
      0.0375637         11881.2           12153 
      0.0433917         10787.5         10922.6 
      0.0492413         9729.96         9948.77 
      0.0555754          9014.3          9167.7 
      0.0619321         8167.46         8566.55 
       0.067871         7786.51          8061.8 
      0.0738098         7325.63         7535.66 
      0.0800417         6745.36         6929.93 
      0.0862327         6101.72         6293.27 
      0.0921407         5550.69         5699.66 
      0.0982031         5090.46         5154.01 
       0.104506         4580.29         4689.35 
       0.110769         4258.74         4338.42 
       0.116806         4086.04         4087.72 
       0.122832         3845.47         3892.48 
       0.129052         3661.55          3713.2 
       0.135211         3547.97         3529.29 
       0.141259         3303.69         3328.79 
       0.147318         3061.92         3109.99 
       0.153489         2890.96         2882.01 
       0.159709         2767.07         2665.13 
       0.165845         2529.03         2478.55 
       0.171974         2464.59         2326.43 
       0.178125         2383.92         2206.79 
       0.184229         2208.17         2112.96 
        0.19034         2177.03         2032.79 
       0.196428         2117.14         1955.93 
       0.202534         1993.27         1874.35 
       0.208729         1953.68         1784.25 
       0.214876         1873.14          1689.6 
       0.220989         1773.33         1595.34 
       0.227147         1728.75         1506.08 
        0.23329         1663.26         1427.15 
       0.239377         1648.87         1360.75 
       0.245482         1573.08         1305.15 
       0.251667         1516.13         1257.28 
       0.257832         1497.19         1214.25 
       0.263955         1429.74         1172.66 
       0.270079         1393.97         1129.95 
        0.27624         1336.37         1085.11 
       0.282372          1319.4         1039.38 
        0.28843         1300.82         994.728 
       0.294538         1240.55         952.017 
       0.300721         1214.72         912.588 
        0.30691         1189.86         877.486 
       0.313033         1144.64         846.864 
       0.319153         1131.73         819.371 
       0.325316         1117.46          793.67 
        0.33145          1095.9         768.901 
       0.337538         1060.01         744.415 
       0.343633         1034.68         719.687 
       0.349808         1014.91         694.664 
       0.355968         996.156         670.178 
       0.362074         966.871          646.95 
       0.368217         963.672         625.091 
       0.374374         949.331         604.851 
       0.380519           916.3         586.304 
       0.386598         910.719         569.261 
       0.392688          890.67         553.138 
        0.39888         869.923         537.354 
       0.405048         855.677          521.94 
       0.411186         852.508         506.823 
       0.417313         849.141          491.97 
       0.423458         822.336         477.425 
       0.429607         800.396         463.408 
       0.435692         793.484         450.202 
       0.441815         779.553         437.618 
       0.447964         769.258         425.708 
       0.454126         759.397         414.416 
       0.460267          749.19         403.669 
       0.466387         738.541         393.343 
        0.47254         725.388         383.267 
       0.478662         715.349         373.477 
       0.484765         708.992         363.938 
       0.490885         700.944         354.635 
       0.497035          688.67          345.59 
       0.503198         687.782         336.864 
       0.509342         674.567         328.514 
       0.515458         661.875          320.56 
       0.521598         657.377          312.91 
       0.527764          643.96         305.517 
       0.533884         639.824         298.423 
           0.54         633.414         291.546 
       0.546137         623.814         284.841 
       0.552299         621.332         278.291 
       0.558452         613.761         271.928 
       0.564573         607.304          265.78 
       0.570708         602.557         259.812 
       0.576825         590.567         254.065 
       0.582926         588.256          248.53 
       0.589034         580.453         243.173 
       0.595184         575.154          237.95 
       0.601379         566.301         232.851 
       0.607522         557.982         227.943 
       0.613639         556.578         223.196 
       0.619772         553.527         218.567 
       0.625918         544.152         214.052 
       0.632068         540.432         209.657 
       0.638161         534.441         205.422 
         0.6443         529.441         201.276 
       0.650464         524.398         197.237 
       0.656582         520.146         193.346 
       0.662703         514.811         189.566 
       0.668861         508.998          185.87 
       0.675024         505.291          182.27 
       0.681124         498.559         178.801 
       0.687237          496.77         175.413 
       0.693381         489.782         172.096 
       0.699536         487.552         168.858 
       0.705665         482.389         165.719 
       0.711789         481.335         162.664 
       0.717957         473.917         159.667 
        0.72409         469.823         156.764 
       0.730186         470.859         153.953 
       0.736317         463.083         151.197 
       0.742472         458.155         148.499 
       0.748622         455.049          145.87 
        0.75476         451.842         143.311 
       0.760888         448.589         140.816 
       0.767043         445.672         138.372 
       0.773185         442.993         135.992 
       0.779291         436.844         133.682 
       0.785407          434.59         131.422 
       0.791564         431.059         129.202 
       0.797719          424.89         127.035 
       0.803834         427.307         124.932 
       0.809972         420.758          122.87 
       0.816124           416.8          120.85 
       0.822261         413.696         118.882 
       0.828378         412.097         116.965 
       0.834502         405.894         115.088 
       0.840667         405.876          113.24 
       0.846816         399.786         111.439 
       0.852925         399.916         109.689 
       0.859047         396.164         107.973 
       0.865192         394.477         106.288 
       0.871341         389.005         104.639 
       0.877463         386.399         103.032 
       0.883569         383.583         101.464 
       0.889708         380.252         99.9208 
       0.895864         377.395          98.406 
       0.902008         375.744         96.9262 
       0.908149         372.605          95.478 
       0.914301         370.823         94.0574 
       0.920448         367.666         92.6674 
       0.926574         365.567         91.3106 
       0.932687         363.266         89.9841 
       0.938823           359.3         88.6796 
       0.944975         358.064         87.3981 
       0.951105         355.109         86.1468 
       0.957225         350.467         84.9224 
       0.963368         351.162         83.7179 
       0.969511         344.762          82.537 
       0.975621         345.053         81.3854 
       0.981748         342.543          80.253 
       0.987916         340.557         79.1353 
        0.99406         337.487         78.0432 
        1.00019         334.235         76.9741 
        1.00632         334.243         75.9262 
        1.01246         331.346         74.8964 
        1.01859          327.33         73.8876 
        1.02471         325.427         72.8987 
        1.03085         324.731         71.9247 
        1.03698         322.225         70.9707 
        1.04314         321.358         70.0302 
        1.04929         318.803          69.109 
        1.05541         314.954         68.2082 
        1.06154         313.787         67.3215 
        1.06769         310.604         66.4493 
        1.07382         310.048         65.5955 
        1.07993          307.12         64.7588 
        1.08607         305.006         63.9334 
        1.09222         303.237         63.1216 
        1.09836         301.976         62.3251 
        1.10449         299.734         61.5433 
        1.11063         296.996         60.7742 
        1.11677         294.627         60.0186 
         1.1229         293.678         59.2773 
        1.12903         291.843          58.548 
        1.13518         289.464         57.8304 
        1.14131         288.817         57.1254 
        1.14745         284.879         56.4326 
        1.15359         283.013         55.7513 
        1.15973         282.107         55.0811 
        1.16584         280.758          54.425 
        1.17197         278.478         53.7787 
        1.17811          276.06          53.141 
        1.18424         274.545         52.5156 
        1.19038         273.139         51.8986 
        1.19652         270.086         51.2917 
        1.20267         269.818         50.6947 
        1.20881         267.631         50.1074 
        1.21495         266.609         49.5303 
        1.22108         264.664         48.9625 
         1.2272         261.592          48.405 
        1.23334         260.797          47.855 
        1.23949         259.729         47.3123 
        1.24562         257.893         46.7795 
        1.25174         256.016         46.2558 
        1.25789         253.884         45.7386 
        1.26402         253.666         45.2303 
        1.27014         252.231          44.731 
        1.27628         249.341         44.2377 
        1.28244          248.52         43.7511 
        1.28858         246.783         43.2724 
        1.29471         245.677         42.8021 
        1.30084         244.165         42.3392 
        1.30697         241.704         41.8825 
        1.31312         240.279          41.432 
        1.31925         239.084         40.9895 
        1.32537         238.192          40.554 
        1.33151         236.187         40.1233 
        1.33765         234.565         39.6991 
        1.34378         233.125         39.2819 
        1.34992         231.503         38.8705 
        1.35606         230.486         38.4642 
         1.3622         228.986         38.0644 
        1.36833         227.137         37.6713 
        1.37445         226.632          37.284 
        1.38059         224.591          36.901 
        1.38675         223.075         36.5225 
        1.39288         222.028         36.1508 
        1.39901         220.372         35.7845 
        1.40515         219.432         35.4225 
         1.4113         217.603         35.0657 
        1.41742         215.783         34.7152 
        1.42355         216.294         34.3689 
         1.4297         214.014         34.0262 
        1.43585         212.587         33.6884 
        1.44198         210.871         33.3565 
        1.44809          210.05         33.0298 
        1.45423         208.973         32.7062 
        1.46036         207.562         32.3876 
        1.46649         206.476         32.0731 
        1.47263         205.395         31.7626 
        1.47877         203.888         31.4564 
        1.48491         202.126         31.1537 
        1.49104         200.558         30.8557 
        1.49718         199.697         30.5614 
        1.50333         198.313         30.2705 
        1.50947         197.572          29.984 
         1.5156         196.336         29.7016 
        1.52172          195.11         29.4229 
        1.52787         193.916         29.1473 
          1.534         193.023         28.8755 
        1.54013         191.764         28.6075 
        1.54627         190.695         28.3424 
        1.55241         189.587         28.0806 
        1.55855         188.805         27.8226 
        1.56467         187.184         27.5685 
         1.5708          185.76         27.3169 
        1.57695         185.047          27.068 
        1.58308         183.709         26.8229 
        1.58922         182.796         26.5806 
        1.59535         181.179         26.3415 
         1.6015         180.413         26.1049 
        1.60764          179.44         25.8714 
        1.61376         177.964         25.6414 
        1.61989         176.984         25.4141 
        1.62604         175.761          25.189 
        1.63218         175.046         24.9668 
        1.63831         174.242         24.7478 
        1.64444         172.834         24.5313 
        1.65059         172.054          24.317 
        1.65673         170.694         24.1054 
        1.66285         170.024          23.897 
        1.66898         168.916          23.691 
        1.67512         167.893          23.487 
        1.68127         166.906         23.2853 
         1.6874         165.917         23.0864 
        1.69353         165.231         22.8899 
        1.69967           163.8         22.6953 
        1.70581         163.347          22.503 
        1.71193           161.9         22.3137 
        1.71806         160.848         22.1262 
        1.72421         160.202         21.9405 
        1.73035         159.082         21.7572 
        1.73649          157.95          21.576 
        1.74262         157.365          21.397 
        1.74876         156.461         21.2199 
        1.75489         155.536         21.0452 
        1.76101         154.302         20.8725 
        1.76715         153.421         20.7016 
        1.77329         152.669         20.5323 
        1.77943         151.452         20.3649 
        1.78557         151.032         20.1996 
        1.79171         150.103         20.0361 
        1.79785         149.044         19.8744 
        1.80399         148.155         19.7145 
        1.81012          146.99         19.5566 
        1.81625         146.644         19.4006 
        1.82239         145.372          19.246 
        1.82853         144.879         19.0931 
        1.83466         143.697         18.9421 
        1.84078         143.186         18.7929 
        1.84692         142.542          18.645 
        1.85306         141.289         18.4986 
         1.8592         140.797          18.354 
        1.86533         139.458          18.211 
        1.87147         139.062         18.0694 
        1.87761         137.944         17.9292 
        1.88375         137.001         17.7907 
        1.88988         136.447         17.6538 
        1.89601         136.061         17.5183 
        1.90215         135.317         17.3841 
        1.90829          133.99         17.2514 
        1.91442         133.169           17.12 
        1.92056         132.405         16.9902 
         1.9267         131.674         16.8615 
        1.93284         130.989         16.7342 
        1.93897         130.144         16.6084 
        1.94509          129.44         16.4841 
        1.95123         128.753         16.3609 
        1.95737          128.14         16.2388 
        1.96349         127.236         16.1182 
        1.96964         126.524         15.9986 
        1.97578         125.845         15.8801 
        1.98192         125.152         15.7631 
        1.98805         124.447         15.6472 
        1.99419          123.44         15.5325 
        2.00033         122.997         15.4189 
        2.00647         122.361         15.3065 
         2.0126         121.588         15.1954 
        2.01874         121.037         15.0852 
        2.02488         120.046          14.976 
        2.03101         119.649         14.8681 
        2.03714         118.718         14.7614 
        2.04328         118.202         14.6556 
        2.04941         117.731          14.551 
        2.05554         117.108         14.4474 
        2.06167         116.072         14.3447 
        2.06781         115.385          14.243 
        2.07396         115.021         14.1422 
        2.08009         114.164         14.0425 
        2.08622         113.532         13.9438 
        2.09237         112.743          13.846 
        2.09851         112.365          13.749 
        2.10464         111.665         13.6532 
        2.11077         111.032         13.5584 
        2.11691         110.488         13.4643 
        2.12305          109.84          13.371 
        2.12918         109.184         13.2789 
        2.13531         108.665         13.1877 
        2.14145         107.916         13.0971 
         2.1476         107.238         13.0072 
        2.15372         106.714         12.9187 
        2.15985         106.058         12.8308 
        2.16599         105.334         12.7436 
        2.17213         104.933         12.6573 
        2.17827         104.154         12.5717 
         2.1844         103.971         12.4871 
        2.19054         103.079         12.4032 
        2.19666         102.446         12.3202 
         2.2028         102.046         12.2379 
        2.20893         101.603         12.1563 
        2.21508         100.711         12.0753 
        2.22122         100.401         11.9951 
        2.22736          99.884         11.9158 
        2.23349         99.2266         11.8372 
        2.23962         98.6626         11.7593 
        2.24577         98.1789          11.682 
         2.2519         97.4121         11.6055 
        2.25802         97.0379         11.5298 
        2.26417         96.4715         11.4546 
        2.27031         95.8077           11.38 
        2.27644         95.4742         11.3063 
        2.28257         94.9271         11.2332 
        2.28872         94.4706         11.1607 
        2.29486         94.1614         11.0888 
        2.30099         93.2014         11.0177 
        2.30712         93.0227         10.9472 
        2.31326         92.4619         10.8772 
         2.3194          91.817         10.8078 
        2.32553         91.2272         10.7392 
        2.33166         90.8285         10.6712 
         2.3378         90.5915         10.6037 
        2.34394         89.8709         10.5367 
        2.35007         89.1149         10.4705 
        2.35619         88.8227         10.4048 
        2.36233         88.4312         10.3396 
        2.36848         87.8149         10.2749 
        2.37462         87.3906         10.2108 
        2.38075         86.9272         10.1473 
        2.38689          86.588         10.0843 
        2.39303         86.0911         10.0219 
        2.39916         85.6465         9.96001 
        2.40529         85.1537         9.89869 
        2.41143         84.7536         9.83785 
        2.41757         84.2069         9.77749 
         2.4237         83.7044         9.71775 
        2.42983         83.2603         9.65852 
        2.43598         83.0172         9.59963 
        2.44211          82.404         9.54133 
        2.44823         81.9598         9.48364 
        2.45437         81.6123         9.42627 
        2.46052         81.1046         9.36934 
        2.46665         80.6263         9.31297 
        2.47279         80.3269         9.25709 
        2.47892         79.8175         9.20164 
        2.48507         79.5034         9.14658 
         2.4912         78.8897         9.09209 
