# k  (h/Mpc)    P(k)  (Mpc/h)^3    P_linear(k)  (Mpc/h)^3
     0.00783031         13499.2         13555.4 
       0.013688         17239.3         17706.5 
       0.019231         18521.5           18837 
      0.0249154         18246.7         18294.4 
      0.0312784         16412.3         16690.2 
      0.0375637         14476.4         14864.1 
      0.0433917         13149.7         13359.1 
      0.0492413         11849.7         12167.9 
      0.0555754         10972.2         11212.5 
      0.0619321         9915.05         10477.2 
       0.067871         9455.21         9859.87 
      0.0738098          8906.2         9216.36 
      0.0800417         8194.05          8475.5 
      0.0862327         7414.48         7696.83 
      0.0921407         6753.19         6970.81 
      0.0982031         6203.41         6303.47 
       0.104506         5582.05         5735.16 
       0.110769         5193.89         5305.96 
       0.116806         4985.25         4999.35 
       0.122832         4696.37         4760.56 
       0.129052         4461.81          4541.3 
       0.135211         4333.04         4316.37 
       0.141259         4031.29         4071.16 
       0.147318         3743.88         3803.55 
       0.153489         3541.03         3524.73 
       0.159709         3403.74         3259.48 
       0.165845          3114.9         3031.29 
       0.171974         3034.82         2845.25 
       0.178125         2945.96         2698.93 
       0.184229         2723.26         2584.17 
        0.19034          2690.7         2486.12 
       0.196428         2620.91         2392.12 
       0.202534         2474.98         2292.34 
       0.208729          2423.8         2182.15 
       0.214876         2324.38         2066.39 
       0.220989          2214.8         1951.11 
       0.227147            2157         1841.94 
        0.23329         2075.45         1745.41 
       0.239377         2065.06          1664.2 
       0.245482         1974.79         1596.21 
       0.251667         1903.89         1537.66 
       0.257832         1876.64         1485.03 
       0.263955         1798.81         1434.17 
       0.270079         1759.89         1381.93 
        0.27624         1686.96          1327.1 
       0.282372         1671.55         1271.16 
        0.28843          1640.8         1216.56 
       0.294538         1571.38         1164.32 
       0.300721         1545.16          1116.1 
        0.30691         1507.91         1073.17 
       0.313033         1455.62         1035.72 
       0.319153         1442.44         1002.09 
       0.325316         1425.11         970.661 
        0.33145         1397.15         940.369 
       0.337538         1355.06         910.423 
       0.343633         1325.63          880.18 
       0.349808         1304.48         849.576 
       0.355968         1277.82          819.63 
       0.362074         1244.62         791.222 
       0.368217         1240.91         764.488 
       0.374374         1221.89         739.734 
       0.380519         1182.94         717.051 
       0.386598         1179.53         696.209 
       0.392688         1149.94         676.489 
        0.39888         1128.72         657.186 
       0.405048          1108.7         638.335 
       0.411186         1102.96         619.846 
       0.417313         1101.91         601.681 
       0.423458         1067.91         583.893 
       0.429607         1040.52          566.75 
       0.435692         1033.75         550.599 
       0.441815         1014.31         535.208 
       0.447964         1005.22         520.642 
       0.454126         991.378         506.833 
       0.460267         980.536         493.688 
       0.466387         965.803          481.06 
        0.47254         948.069         468.736 
       0.478662         938.378         456.764 
       0.484765         929.827         445.097 
       0.490885         918.815         433.719 
       0.497035         903.707         422.658 
       0.503198         902.567         411.986 
       0.509342          886.28         401.773 
       0.515458         868.782         392.045 
       0.521598         868.591          382.69 
       0.527764         848.126         373.649 
       0.533884         840.267         364.972 
           0.54         834.236         356.561 
       0.546137         824.444         348.361 
       0.552299          818.02          340.35 
       0.558452         810.421         332.569 
       0.564573          804.42          325.05 
       0.570708         796.461         317.751 
       0.576825         780.435         310.721 
       0.582926         778.767         303.953 
       0.589034         770.042         297.401 
       0.595184         761.007         291.013 
       0.601379         749.214         284.777 
       0.607522         740.079         278.775 
       0.613639         739.128         272.969 
       0.619772         732.379         267.307 
       0.625918         723.055         261.786 
       0.632068         718.092          256.41 
       0.638161         708.352         251.231 
         0.6443         702.341         246.161 
       0.650464         697.332         241.221 
       0.656582         692.106         236.463 
       0.662703         682.637          231.84 
       0.668861         676.312         227.319 
       0.675024         672.139         222.917 
       0.681124         660.997         218.674 
       0.687237         661.296         214.531 
       0.693381         649.687         210.474 
       0.699536         650.427         206.514 
       0.705665         642.064         202.674 
       0.711789         639.987         198.938 
       0.717957         631.962         195.273 
        0.72409         626.588         191.723 
       0.730186         624.429         188.285 
       0.736317         616.766         184.914 
       0.742472         608.995         181.615 
       0.748622         607.142         178.399 
        0.75476             600         175.269 
       0.760888         597.043         172.219 
       0.767043         594.613          169.23 
       0.773185         590.171         166.318 
       0.779291         583.089         163.493 
       0.785407         578.717          160.73 
       0.791564         575.049         158.014 
       0.797719          566.71         155.364 
       0.803834         567.566         152.792 
       0.809972          559.81          150.27 
       0.816124         555.798           147.8 
       0.822261         552.565         145.393 
       0.828378         550.004         143.048 
       0.834502         541.414         140.752 
       0.840667         540.332         138.493 
       0.846816         535.355          136.29 
       0.852925         533.588          134.15 
       0.859047         528.476         132.051 
       0.865192         525.316         129.991 
       0.871341         519.051         127.974 
       0.877463         518.048         126.009 
       0.883569         512.363         124.091 
       0.889708         507.135         122.203 
       0.895864         502.418         120.351 
       0.902008         501.789         118.541 
       0.908149         497.048          116.77 
       0.914301         495.256         115.032 
       0.920448         489.065         113.332 
       0.926574         486.924         111.673 
       0.932687         485.405         110.051 
       0.938823         479.113         108.455 
       0.944975         476.602         106.888 
       0.951105         473.471         105.358 
       0.957225         466.801          103.86 
       0.963368         467.889         102.387 
       0.969511         460.682         100.943 
       0.975621         459.535         99.5344 
       0.981748         456.501         98.1496 
       0.987916         453.831         96.7826 
        0.99406         449.553          95.447 
        1.00019         445.102         94.1395 
        1.00632         443.667         92.8579 
        1.01246         440.245         91.5984 
        1.01859         436.259         90.3646 
        1.02471         434.507         89.1552 
        1.03085         431.371          87.964 
        1.03698         429.403         86.7973 
        1.04314         425.563          85.647 
        1.04929         423.938         84.5204 
        1.05541         417.957         83.4188 
        1.06154         417.202         82.3343 
        1.06769         413.086         81.2676 
        1.07382         410.079         80.2234 
        1.07993         409.224         79.2001 
        1.08607         406.013         78.1906 
        1.09222         402.471         77.1979 
        1.09836         400.054         76.2236 
        1.10449         396.632         75.2675 
        1.11063         394.911         74.3269 
        1.11677         390.494         73.4028 
         1.1229         389.438         72.4962 
        1.12903         385.838         71.6042 
        1.13518         384.085         70.7267 
        1.14131         382.216         69.8644 
        1.14745         377.665         69.0172 
        1.15359         375.083          68.184 
        1.15973         373.418         67.3642 
        1.16584          371.74         66.5618 
        1.17197         368.739         65.7714 
        1.17811         364.642         64.9915 
        1.18424         363.583         64.2267 
        1.19038         361.335          63.472 
        1.19652         357.549         62.7299 
        1.20267          356.55         61.9997 
        1.20881         354.749         61.2814 
        1.21495         350.521         60.5757 
        1.22108         349.926         59.8812 
         1.2272         344.762         59.1994 
        1.23334          344.07         58.5267 
        1.23949         341.443          57.863 
        1.24562         341.056         57.2114 
        1.25174         337.461         56.5709 
        1.25789         334.888         55.9384 
        1.26402         333.247         55.3167 
        1.27014         331.645          54.706 
        1.27628         328.488         54.1028 
        1.28244         326.285         53.5076 
        1.28858         324.875         52.9223 
        1.29471         323.138          52.347 
        1.30084          321.39         51.7809 
        1.30697         317.921         51.2224 
        1.31312          315.94         50.6713 
        1.31925          314.39         50.1302 
        1.32537         312.802         49.5976 
        1.33151         309.727         49.0708 
        1.33765         307.517          48.552 
        1.34378         305.578         48.0419 
        1.34992          303.06         47.5387 
        1.35606         301.422         47.0417 
         1.3622         299.908         46.5528 
        1.36833         298.802          46.072 
        1.37445         297.105         45.5984 
        1.38059         293.586         45.1299 
        1.38675         292.354          44.667 
        1.39288         291.155         44.2125 
        1.39901         288.384         43.7645 
        1.40515          287.04         43.3218 
         1.4113         284.823         42.8854 
        1.41742         282.275         42.4567 
        1.42355         281.974         42.0332 
         1.4297         279.665         41.6141 
        1.43585         276.623          41.201 
        1.44198         275.855         40.7951 
        1.44809         274.413         40.3955 
        1.45423          272.31         39.9997 
        1.46036         270.997         39.6101 
        1.46649          269.26         39.2255 
        1.47263         266.507         38.8457 
        1.47877         265.465         38.4712 
        1.48491         263.262         38.1011 
        1.49104         261.357         37.7366 
        1.49718         260.191         37.3767 
        1.50333         258.057         37.0209 
        1.50947         257.212         36.6705 
         1.5156         254.844         36.3251 
        1.52172         253.328         35.9843 
        1.52787         251.491         35.6472 
          1.534         251.149         35.3148 
        1.54013         248.683          34.987 
        1.54627         247.244         34.6628 
        1.55241         245.804         34.3426 
        1.55855         244.309          34.027 
        1.56467         242.634         33.7163 
         1.5708         241.296         33.4086 
        1.57695         239.939         33.1042 
        1.58308         238.831         32.8044 
        1.58922         236.684         32.5081 
        1.59535         234.803         32.2156 
         1.6015         233.804         31.9264 
        1.60764         232.243         31.6408 
        1.61376         230.381         31.3595 
        1.61989         228.973         31.0815 
        1.62604         227.407         30.8062 
        1.63218         226.023         30.5344 
        1.63831         225.347         30.2666 
        1.64444         223.235         30.0019 
        1.65059         222.464         29.7397 
        1.65673         220.623          29.481 
        1.66285         219.426         29.2261 
        1.66898         218.093         28.9741 
        1.67512         216.458         28.7247 
        1.68127         215.407         28.4779 
         1.6874         213.748         28.2347 
        1.69353         212.931         27.9944 
        1.69967         211.421         27.7564 
        1.70581         210.031         27.5212 
        1.71193         208.806         27.2897 
        1.71806         206.977         27.0604 
        1.72421         206.209         26.8333 
        1.73035         204.449          26.609 
        1.73649          202.93         26.3874 
        1.74262         202.237         26.1685 
        1.74876         200.912         25.9519 
        1.75489         199.947         25.7383 
        1.76101         198.893         25.5271 
        1.76715         197.258          25.318 
        1.77329         195.437          25.111 
        1.77943         194.504         24.9063 
        1.78557         193.623         24.7041 
        1.79171          192.98         24.5042 
        1.79785         191.404         24.3064 
        1.80399         190.112         24.1109 
        1.81012         189.117         23.9178 
        1.81625         187.547         23.7269 
        1.82239         186.618         23.5378 
        1.82853         185.824         23.3509 
        1.83466         184.201         23.1662 
        1.84078         183.254         22.9837 
        1.84692         182.397         22.8029 
        1.85306         180.828         22.6238 
         1.8592         180.164         22.4469 
        1.86533         178.378         22.2721 
        1.87147         177.686         22.0989 
        1.87761         176.619         21.9274 
        1.88375         175.231          21.758 
        1.88988         174.479         21.5906 
        1.89601         173.983         21.4249 
        1.90215         172.546         21.2608 
        1.90829         171.229         21.0984 
        1.91442         170.486         20.9378 
        1.92056         169.055          20.779 
         1.9267         168.481         20.6217 
        1.93284         167.285         20.4659 
        1.93897         166.145         20.3121 
        1.94509         165.479         20.1601 
        1.95123         164.291         20.0094 
        1.95737          163.71           19.86 
        1.96349         162.384         19.7126 
        1.96964         161.342         19.5663 
        1.97578         160.537         19.4214 
        1.98192         159.739         19.2783 
        1.98805          158.58         19.1366 
        1.99419         157.508         18.9963 
        2.00033         156.834         18.8573 
        2.00647         155.559         18.7199 
         2.0126         154.728          18.584 
        2.01874           153.9         18.4492 
        2.02488         152.892         18.3157 
        2.03101         152.557         18.1838 
        2.03714         151.481         18.0532 
        2.04328         150.209         17.9239 
        2.04941          149.71         17.7959 
        2.05554         148.742         17.6692 
        2.06167         147.773         17.5436 
        2.06781         147.062         17.4192 
        2.07396         145.919         17.2959 
        2.08009          145.36         17.1739 
        2.08622         144.337         17.0533 
        2.09237         143.347         16.9336 
        2.09851         142.791         16.8151 
        2.10464         142.045         16.6979 
        2.11077         141.075         16.5819 
        2.11691          140.42         16.4668 
        2.12305         139.402         16.3528 
        2.12918         138.516         16.2401 
        2.13531         137.573         16.1285 
        2.14145         137.096         16.0177 
         2.1476          136.11         15.9078 
        2.15372         135.355         15.7995 
        2.15985         134.554         15.6921 
        2.16599         133.946         15.5854 
        2.17213             133         15.4798 
        2.17827         132.379         15.3753 
         2.1844         131.484         15.2717 
        2.19054         130.779         15.1691 
        2.19666         129.929         15.0676 
         2.2028         129.404         14.9669 
        2.20893          128.67         14.8672 
        2.21508         127.633         14.7682 
        2.22122          126.84           14.67 
        2.22736         126.323          14.573 
        2.23349         125.738         14.4769 
        2.23962         125.042         14.3816 
        2.24577           124.2         14.2871 
         2.2519          123.35         14.1935 
        2.25802         123.079          14.101 
        2.26417         122.215          14.009 
        2.27031         121.404         13.9178 
        2.27644         120.751         13.8276 
        2.28257         120.295         13.7383 
        2.28872         119.395         13.6495 
        2.29486         118.761         13.5616 
        2.30099         117.898         13.4747 
        2.30712          117.47         13.3884 
        2.31326         116.719         13.3028 
         2.3194         116.219          13.218 
        2.32553         115.462          13.134 
        2.33166         115.119         13.0509 
         2.3378         114.244         12.9683 
        2.34394         113.268         12.8864 
        2.35007          112.89         12.8054 
        2.35619         112.161         12.7251 
        2.36233         111.805         12.6454 
        2.36848         111.059         12.5662 
        2.37462         110.686         12.4878 
        2.38075         109.964         12.4101 
        2.38689         109.205         12.3331 
        2.39303         108.635         12.2567 
        2.39916         108.166         12.1811 
        2.40529         107.529         12.1061 
        2.41143         106.693         12.0317 
        2.41757         106.046         11.9579 
         2.4237          105.71         11.8848 
        2.42983         105.131         11.8124 
        2.43598         104.405         11.7404 
        2.44211         103.982         11.6691 
        2.44823         103.391         11.5985 
        2.45437         102.924         11.5283 
        2.46052         102.199         11.4587 
        2.46665         101.788         11.3898 
        2.47279         101.166         11.3214 
        2.47892         100.661         11.2536 
        2.48507         100.165         11.1863 
         2.4912         99.6184         11.1196 
