# k  (h/Mpc)    P(k)  (Mpc/h)^3    P_linear(k)  (Mpc/h)^3
     0.00783031         3862.45         3914.93 
       0.013688         4611.89          4609.2 
       0.019231         4470.48         4467.53 
      0.0249154         3904.14         3940.09 
      0.0312784         3221.54         3227.25 
      0.0375637         2618.05         2606.55 
      0.0433917         2174.53         2179.93 
      0.0492413         1899.43         1894.62 
      0.0555754          1691.9         1706.07 
      0.0619321         1598.56         1585.85 
       0.067871         1478.96         1489.03 
      0.0738098         1368.06         1377.75 
      0.0800417          1222.2         1235.95 
      0.0862327         1076.54         1079.87 
      0.0921407         940.096         935.413 
      0.0982031         810.641             809 
       0.104506         725.313         710.864 
       0.110769         659.862         646.961 
       0.116806         617.388         610.008 
       0.122832         596.185         586.836 
       0.129052         567.687         566.003 
       0.135211         541.492         539.765 
       0.141259         511.405         504.954 
       0.147318         472.345         462.614 
       0.153489         425.077         416.868 
       0.159709         386.037          374.11 
       0.165845         356.309         339.566 
       0.171974         328.079         314.315 
       0.178125         312.092         297.449 
       0.184229         300.846         286.585 
        0.19034         286.261         278.309 
       0.196428         280.885         269.634 
       0.202534         272.227         258.521 
       0.208729          256.27          244.27 
       0.214876         239.168         228.061 
       0.220989         225.935         211.563 
       0.227147         209.707         196.281 
        0.23329         197.657         183.557 
       0.239377         189.835          173.83 
       0.245482         178.573         166.617 
       0.251667         175.672          161.07 
       0.257832         170.421         156.279 
       0.263955         164.716         151.335 
       0.270079          158.48         145.667 
        0.27624         154.167         139.147 
       0.282372          147.39         132.122 
        0.28843         140.036         125.168 
       0.294538         133.277          118.63 
       0.300721         129.633         112.865 
        0.30691         123.294         108.061 
       0.313033         119.643         104.168 
       0.319153         114.374         100.868 
       0.325316         112.547         97.8298 
        0.33145         108.451         94.8076 
       0.337538         106.091         91.6543 
       0.343633         102.167         88.2979 
       0.349808         98.8491         84.7897 
       0.355968         96.0017         81.3164 
       0.362074         92.6488         78.0623 
       0.368217         89.6673         75.0804 
       0.374374         86.8485         72.4284 
       0.380519         84.7411         70.0942 
       0.386598          82.443         68.0094 
       0.392688         80.8272         66.0593 
        0.39888         78.5553         64.1258 
       0.405048         76.5798         62.1892 
       0.411186         74.7223         60.2439 
       0.417313         72.4438         58.2921 
       0.423458         70.5548         56.3697 
       0.429607         68.6688         54.5289 
       0.435692         66.2931         52.8171 
       0.441815         65.4085         51.2196 
       0.447964         64.2216         49.7424 
       0.454126         61.4284         48.3615 
       0.460267         60.5935         47.0553 
       0.466387         59.0925         45.7995 
        0.47254           58.06         44.5626 
       0.478662         57.1738          43.344 
       0.484765         55.3692          42.148 
       0.490885         54.1952         40.9784 
       0.497035         53.4972         39.8428 
       0.503198         51.9663         38.7534 
       0.509342         50.6527         37.7227 
       0.515458         49.7225         36.7532 
       0.521598          48.904         35.8276 
       0.527764         47.9769         34.9365 
       0.533884         47.1967          34.082 
           0.54            46.1         33.2532 
       0.546137         45.5099         32.4423 
       0.552299         44.7751         31.6461 
       0.558452         43.4561         30.8709 
       0.564573         42.7022         30.1231 
       0.570708         42.0867         29.4005 
       0.576825          41.234         28.7086 
       0.582926         40.3398         28.0451 
       0.589034         39.4277          27.405 
       0.595184         38.9209         26.7832 
       0.601379         38.2491         26.1777 
       0.607522         37.4011         25.5959 
       0.613639         37.1507         25.0329 
       0.619772         36.2246          24.483 
       0.625918         35.9572         23.9461 
       0.632068         35.4095         23.4237 
       0.638161         34.7643         22.9213 
         0.6443         34.1388          22.431 
       0.650464         33.5727         21.9552 
       0.656582         33.2905         21.4981 
       0.662703         32.6233         21.0548 
       0.668861         32.0837         20.6218 
       0.675024         31.5869         20.2004 
       0.681124         31.0265         19.7944 
       0.687237         30.4924         19.3984 
       0.693381         30.2632          19.011 
       0.699536         29.5483         18.6336 
       0.705665         29.5797         18.2681 
       0.711789         28.8188          17.913 
       0.717957         28.4613         17.5651 
        0.72409         28.0817         17.2286 
       0.730186         27.6434         16.9031 
       0.736317         27.4075         16.5843 
       0.742472         26.9239         16.2726 
       0.748622         26.6779         15.9692 
        0.75476         26.2687         15.6742 
       0.760888         25.8404         15.3871 
       0.767043         25.5297         15.1062 
       0.773185         25.1366         14.8328 
       0.779291         25.0263         14.5679 
       0.785407         24.7586         14.3092 
       0.791564         24.3189         14.0551 
       0.797719         23.7763         13.8075 
       0.803834         23.7521         13.5674 
       0.809972          23.468         13.3322 
       0.816124         23.0097         13.1021 
       0.822261         22.7924         12.8781 
       0.828378         22.6201           12.66 
       0.834502          22.368         12.4468 
       0.840667         22.0865         12.2371 
       0.846816         21.6996         12.0329 
       0.852925         21.5026         11.8346 
       0.859047         21.2611         11.6404 
       0.865192         21.0403         11.4499 
       0.871341         20.9273         11.2637 
       0.877463         20.5186         11.0824 
       0.883569         20.3068         10.9056 
       0.889708         20.0589         10.7318 
       0.895864         19.8649         10.5613 
       0.902008         19.7091         10.3949 
       0.908149         19.5004         10.2323 
       0.914301           19.43         10.0729 
       0.920448         19.0692         9.91699 
       0.926574         18.8981         9.76499 
       0.932687         18.6902          9.6165 
       0.938823         18.4411         9.47059 
       0.944975         18.2975         9.32738 
       0.951105         18.1116         9.18766 
       0.957225           17.91         9.05106 
       0.963368         17.8302         8.91678 
       0.969511         17.6406         8.78524 
       0.975621         17.4939         8.65707 
       0.981748         17.2268         8.53115 
       0.987916         17.1434         8.40695 
        0.99406         16.9353          8.2857 
        1.00019         16.7257          8.1671 
        1.00632         16.6348         8.05093 
        1.01246          16.533         7.93687 
        1.01859         16.2488         7.82521 
        1.02471         16.2154         7.71585 
        1.03085         16.0545         7.60821 
        1.03698         15.7905         7.50286 
        1.04314         15.7077         7.39907 
        1.04929         15.5354          7.2975 
        1.05541         15.3738         7.19825 
        1.06154         15.2914          7.1006 
        1.06769         15.2048         7.00463 
        1.07382         15.0153         6.91075 
        1.07993         14.9248         6.81881 
        1.08607         14.7466         6.72817 
        1.09222         14.6692         6.63909 
        1.09836         14.4929         6.55174 
        1.10449         14.3955         6.46606 
        1.11063         14.2203         6.38183 
        1.11677         14.1775         6.29913 
         1.1229         14.0915         6.21805 
        1.12903         13.9025         6.13832 
        1.13518         13.7567         6.05994 
        1.14131         13.7258         5.98296 
        1.14745         13.5993         5.90737 
        1.15359         13.5203         5.83308 
        1.15973         13.3709         5.76003 
        1.16584         13.2007         5.68857 
        1.17197          13.186         5.61822 
        1.17811         13.0416         5.54885 
        1.18424          12.937         5.48086 
        1.19038           12.89         5.41381 
        1.19652         12.7735         5.34792 
        1.20267         12.6691         5.28312 
        1.20881         12.5871         5.21942 
        1.21495         12.5118         5.15687 
        1.22108         12.3794         5.09536 
         1.2272         12.2746           5.035 
        1.23334         12.2066         4.97548 
        1.23949          12.085         4.91679 
        1.24562          12.037         4.85921 
        1.25174         11.9542         4.80264 
        1.25789         11.8524          4.7468 
        1.26402         11.8086         4.69196 
        1.27014          11.686         4.63811 
        1.27628         11.5714         4.58496 
        1.28244         11.5173         4.53254 
        1.28858         11.4834         4.48101 
        1.29471          11.367         4.43039 
        1.30084         11.2652         4.38061 
        1.30697         11.2125         4.33152 
        1.31312         11.0899         4.28311 
        1.31925         11.0122          4.2356 
        1.32537         10.9829         4.18885 
        1.33151         10.8961         4.14264 
        1.33765         10.8308         4.09716 
        1.34378         10.7566         4.05245 
        1.34992         10.6419         4.00838 
        1.35606         10.6253         3.96487 
         1.3622         10.5567         3.92209 
        1.36833         10.4457         3.88004 
        1.37445         10.4188         3.83863 
        1.38059         10.3403         3.79769 
        1.38675         10.2261         3.75726 
        1.39288         10.2153         3.71758 
        1.39901         10.1221         3.67849 
        1.40515         10.0801         3.63988 
         1.4113         10.0025         3.60183 
        1.41742         9.92774         3.56448 
        1.42355         9.87346         3.52758 
         1.4297         9.83873          3.4911 
        1.43585         9.78308         3.45515 
        1.44198         9.71394         3.41984 
        1.44809         9.65067          3.3851 
        1.45423         9.58793         3.35071 
        1.46036         9.52517         3.31686 
        1.46649         9.49087         3.28346 
        1.47263          9.4002          3.2505 
        1.47877         9.34883         3.21801 
        1.48491         9.32043         3.18592 
        1.49104           9.264         3.15432 
        1.49718         9.19652         3.12314 
        1.50333         9.15458         3.09233 
        1.50947         9.08912         3.06199 
         1.5156         9.03276         3.03211 
        1.52172         9.00056         3.00263 
        1.52787         8.93922         2.97348 
          1.534         8.87238         2.94476 
        1.54013         8.81665         2.91644 
        1.54627         8.76237         2.88845 
        1.55241         8.72647         2.86082 
        1.55855         8.67818         2.83359 
        1.56467         8.62062         2.80679 
         1.5708         8.61435         2.78026 
        1.57695         8.53813         2.75403 
        1.58308         8.48766         2.72821 
        1.58922         8.45586          2.7027 
        1.59535         8.40707         2.67752 
         1.6015         8.34192         2.65263 
        1.60764         8.29419         2.62807 
        1.61376         8.27166         2.60389 
        1.61989         8.20873         2.57999 
        1.62604         8.19422         2.55634 
        1.63218         8.14379           2.533 
        1.63831         8.10223            2.51 
        1.64444         8.03789         2.48729 
        1.65059         7.98888         2.46479 
        1.65673         7.98651         2.44261 
        1.66285         7.89941         2.42075 
        1.66898          7.8841         2.39916 
        1.67512         7.84636         2.37779 
        1.68127         7.80345         2.35666 
         1.6874         7.76041         2.33583 
        1.69353         7.69711         2.31527 
        1.69967         7.68203         2.29491 
        1.70581         7.65541          2.2748 
        1.71193         7.59476         2.25501 
        1.71806         7.56871         2.23541 
        1.72421         7.52306         2.21601 
        1.73035         7.48836         2.19686 
        1.73649         7.45882         2.17794 
        1.74262         7.42481         2.15925 
        1.74876         7.39968         2.14078 
        1.75489         7.35034         2.12256 
        1.76101         7.29851         2.10455 
        1.76715         7.28658         2.08674 
        1.77329         7.22343          2.0691 
        1.77943         7.19412         2.05166 
        1.78557         7.18275         2.03445 
        1.79171          7.1479         2.01743 
        1.79785         7.09256         2.00061 
        1.80399         7.06897         1.98398 
        1.81012         7.04714         1.96756 
        1.81625         7.00043         1.95134 
        1.82239         6.96855         1.93527 
        1.82853         6.92753         1.91939 
        1.83466         6.89738         1.90371 
        1.84078         6.85988         1.88822 
        1.84692         6.84616         1.87288 
        1.85306         6.80411         1.85768 
         1.8592         6.76982         1.84268 
        1.86533         6.75237         1.82786 
        1.87147         6.71585         1.81318 
        1.87761         6.69161         1.79865 
        1.88375         6.63341          1.7843 
        1.88988         6.63579         1.77012 
        1.89601         6.59974         1.75609 
        1.90215         6.56311          1.7422 
        1.90829         6.53163         1.72847 
        1.91442         6.50163         1.71488 
        1.92056          6.4823         1.70145 
         1.9267         6.44887         1.68816 
        1.93284         6.41186         1.67499 
        1.93897         6.38295         1.66199 
        1.94509          6.3602         1.64916 
        1.95123         6.33944         1.63643 
        1.95737         6.30983         1.62382 
        1.96349         6.28533         1.61139 
        1.96964         6.24301         1.59904 
        1.97578         6.21818         1.58682 
        1.98192         6.19856         1.57475 
        1.98805         6.17646         1.56281 
        1.99419         6.14019         1.55098 
        2.00033         6.12516         1.53928 
        2.00647         6.09251          1.5277 
         2.0126         6.06854         1.51626 
        2.01874         6.04412         1.50491 
        2.02488         6.01023         1.49368 
        2.03101         5.99568         1.48258 
        2.03714          5.9584          1.4716 
        2.04328          5.9449         1.46072 
        2.04941         5.90223         1.44996 
        2.05554         5.89761         1.43932 
        2.06167         5.85814         1.42877 
        2.06781         5.84915         1.41832 
        2.07396          5.8296         1.40796 
        2.08009         5.80323         1.39772 
        2.08622         5.76147          1.3876 
        2.09237         5.75617         1.37756 
        2.09851         5.73385         1.36761 
        2.10464         5.70156         1.35778 
        2.11077         5.66806         1.34806 
        2.11691         5.64731         1.33841 
        2.12305         5.63303         1.32886 
        2.12918         5.61399         1.31942 
        2.13531         5.59034         1.31008 
        2.14145         5.56558          1.3008 
         2.1476         5.54909          1.2916 
        2.15372         5.52614         1.28254 
        2.15985         5.50895         1.27355 
        2.16599         5.48407         1.26462 
        2.17213         5.46029         1.25579 
        2.17827          5.4453         1.24705 
         2.1844         5.41987          1.2384 
        2.19054         5.38437         1.22982 
        2.19666         5.37708         1.22134 
         2.2028         5.35507         1.21293 
        2.20893         5.34017          1.2046 
        2.21508         5.31246         1.19633 
        2.22122         5.28862         1.18814 
        2.22736         5.27663         1.18005 
        2.23349         5.25029         1.17203 
        2.23962         5.24002         1.16408 
        2.24577         5.21443          1.1562 
         2.2519         5.20116          1.1484 
        2.25802         5.17294         1.14069 
        2.26417         5.15849         1.13302 
        2.27031         5.12917         1.12542 
        2.27644         5.11463         1.11791 
        2.28257         5.09336         1.11047 
        2.28872         5.08113         1.10309 
        2.29486         5.06119         1.09577 
        2.30099         5.04966         1.08853 
        2.30712         5.02435         1.08136 
        2.31326         4.99884         1.07424 
         2.3194         4.98448         1.06718 
        2.32553         4.97268         1.06021 
        2.33166         4.95178         1.05329 
         2.3378         4.93091         1.04643 
        2.34394          4.9156         1.03963 
        2.35007         4.89541          1.0329 
        2.35619         4.87612         1.02623 
        2.36233         4.85897         1.01961 
        2.36848         4.84721         1.01304 
        2.37462         4.82977         1.00653 
        2.38075         4.81298         1.00009 
        2.38689         4.79531        0.993698 
        2.39303         4.77038        0.987364 
        2.39916         4.75717        0.981092 
        2.40529         4.74246        0.974875 
        2.41143         4.72272        0.968708 
        2.41757         4.72144        0.962591 
         2.4237         4.69559        0.956538 
        2.42983         4.67661        0.950537 
        2.43598         4.66624        0.944572 
        2.44211         4.64431        0.938669 
        2.44823         4.62954        0.932829 
        2.45437         4.61716        0.927022 
        2.46052         4.59839         0.92126 
        2.46665         4.58499        0.915557 
        2.47279         4.55965        0.909905 
        2.47892          4.5485        0.904296 
        2.48507         4.53367        0.898729 
         2.4912         4.51721         0.89322 
