# k  (h/Mpc)    P(k)  (Mpc/h)^3    P_linear(k)  (Mpc/h)^3
     0.00783031         15499.6         15738.7 
       0.013688         18178.4         18018.2 
       0.019231         17199.2         17142.9 
      0.0249154         14658.5         14925.9 
      0.0312784         12058.7           12141 
      0.0375637         9867.95         9813.83 
      0.0433917         8178.43         8254.47 
      0.0492413         7225.27         7220.97 
      0.0555754         6383.68         6519.94 
      0.0619321         6089.31         6029.79 
       0.067871         5500.69         5597.72 
      0.0738098         5022.48         5103.54 
      0.0800417         4412.61         4511.74 
      0.0862327         3884.71         3906.54 
      0.0921407         3443.76         3382.89 
      0.0982031         2997.56         2951.14 
       0.104506         2765.89         2632.69 
       0.110769         2546.79         2430.64 
       0.116806         2404.29         2307.13 
       0.122832         2301.95         2211.89 
       0.129052         2142.17         2105.94 
       0.135211         2017.81         1972.78 
       0.141259         1903.53         1814.55 
       0.147318         1759.55         1643.81 
       0.153489         1586.92         1478.29 
       0.159709         1476.88         1337.57 
       0.165845         1398.99         1232.36 
       0.171974         1318.47         1158.87 
       0.178125         1257.24         1108.16 
       0.184229         1205.49         1068.92 
        0.19034         1135.04         1029.72 
       0.196428         1108.88         983.608 
       0.202534         1064.54         928.437 
       0.208729         1003.45          866.38 
       0.214876          949.01         804.489 
       0.220989          907.78          748.31 
       0.227147         863.987         700.868 
        0.23329         825.558         663.621 
       0.239377         806.864         635.148 
       0.245482          752.89         612.046 
       0.251667         747.427         590.754 
       0.257832         717.495         568.824 
       0.263955         692.439         544.978 
       0.270079         663.839         519.136 
        0.27624         653.838         492.349 
       0.282372         626.469         466.581 
        0.28843         611.846         443.363 
       0.294538         579.542         423.027 
       0.300721         575.096         405.561 
        0.30691          549.53          390.63 
       0.313033         538.051         377.398 
       0.319153         522.227         364.787 
       0.325316         506.808         351.988 
        0.33145         491.661         338.918 
       0.337538          482.94         325.695 
       0.343633         468.042         312.606 
       0.349808         450.763         299.919 
       0.355968         446.284         288.212 
       0.362074         439.045         277.689 
       0.368217         426.023         268.147 
       0.374374         407.469         259.431 
       0.380519         405.353         251.282 
       0.386598           394.2         243.525 
       0.392688         391.099         235.875 
        0.39888         379.699         228.155 
       0.405048         371.489         220.583 
       0.411186         365.073         213.244 
       0.417313         357.613         206.235 
       0.423458         349.858         199.615 
       0.429607         344.197         193.411 
       0.435692         335.213         187.672 
       0.441815         331.767         182.236 
       0.447964         324.507          177.03 
       0.454126         316.733         171.992 
       0.460267         310.726         167.115 
       0.466387         306.689         162.372 
        0.47254         300.949         157.723 
       0.478662         299.757         153.248 
       0.484765         288.742         148.965 
       0.490885         285.823         144.858 
       0.497035         280.453         140.919 
       0.503198         276.141         137.161 
       0.509342         273.983          133.58 
       0.515458         270.205         130.152 
       0.521598         263.421         126.822 
       0.527764          259.93          123.58 
       0.533884         257.245         120.459 
           0.54         253.371         117.436 
       0.546137         251.996         114.496 
       0.552299         246.655         111.644 
       0.558452         245.128         108.902 
       0.564573         241.491         106.278 
       0.570708         236.391         103.745 
       0.576825         232.508         101.307 
       0.582926         230.093         98.9563 
       0.589034         227.824         96.6754 
       0.595184         225.653         94.4496 
       0.601379         222.025         92.2761 
       0.607522           218.8         90.1854 
       0.613639          217.23         88.1656 
       0.619772         212.809          86.202 
       0.625918         211.612         84.2952 
       0.632068           208.1         82.4475 
       0.638161         207.061          80.675 
         0.6443         203.727         78.9446 
       0.650464         201.618         77.2601 
       0.656582         199.248         75.6369 
       0.662703         198.747          74.059 
       0.668861         195.197         72.5158 
       0.675024         192.554         71.0145 
       0.681124         191.347         69.5705 
       0.687237         189.049          68.164 
       0.693381         185.993         66.7905 
       0.699536         184.467         65.4534 
       0.705665         182.873         64.1595 
       0.711789         181.073         62.9022 
       0.717957          180.41         61.6703 
        0.72409         178.063         60.4784 
       0.730186         175.851         59.3252 
       0.736317         173.781         58.1957 
       0.742472         172.647         57.0914 
       0.748622         171.167         56.0168 
        0.75476         169.515         54.9723 
       0.760888         167.564         53.9562 
       0.767043         167.173          52.962 
       0.773185         165.493         51.9952 
       0.779291         162.286         51.0583 
       0.785407         161.884         50.1433 
       0.791564         160.406         49.2452 
       0.797719         157.816         48.3696 
       0.803834         156.989          47.521 
       0.809972         156.243         46.6898 
       0.816124         155.372         45.8767 
       0.822261         153.948         45.0851 
       0.828378         152.303         44.3147 
       0.834502         151.715         43.5617 
       0.840667         149.637         42.8214 
       0.846816          148.29         42.1005 
       0.852925         147.637         41.4007 
       0.859047         146.243         40.7155 
       0.865192         144.516         40.0436 
       0.871341         143.424         39.3864 
       0.877463         142.276         38.7471 
       0.883569         141.988         38.1236 
       0.889708          140.32         37.5107 
       0.895864         138.838         36.9097 
       0.902008         137.977         36.3232 
       0.908149         137.592         35.7498 
       0.914301         135.769          35.188 
       0.920448         134.875         34.6387 
       0.926574         133.911         34.1031 
       0.932687         133.843         33.5801 
       0.938823         131.922         33.0661 
       0.944975         130.947         32.5618 
       0.951105         130.192         32.0698 
       0.957225          129.16         31.5889 
       0.963368         127.352         31.1162 
       0.969511          127.13         30.6532 
       0.975621         126.107         30.2022 
       0.981748         125.863         29.7591 
       0.987916         124.516         29.3222 
        0.99406         123.452         28.8957 
        1.00019         123.335         28.4786 
        1.00632         121.909         28.0701 
        1.01246         121.287         27.6691 
        1.01859          120.77         27.2765 
        1.02471         119.191         26.8921 
        1.03085         118.232         26.5138 
        1.03698         117.864         26.1436 
        1.04314         116.594         25.7789 
        1.04929         116.174         25.4221 
        1.05541         115.482         25.0734 
        1.06154         114.731         24.7304 
        1.06769         114.458         24.3934 
        1.07382         113.311         24.0638 
        1.07993         112.548          23.741 
        1.08607         111.797         23.4228 
        1.09222         111.469         23.1101 
        1.09836         110.499         22.8036 
        1.10449         109.397         22.5029 
        1.11063         108.735         22.2073 
        1.11677         108.218         21.9172 
         1.1229         107.456         21.6327 
        1.12903         106.981         21.3531 
        1.13518         106.568         21.0782 
        1.14131         105.486         20.8082 
        1.14745         105.152         20.5432 
        1.15359         104.351         20.2827 
        1.15973         103.878         20.0266 
        1.16584         102.842         19.7761 
        1.17197         102.335         19.5296 
        1.17811         101.821         19.2865 
        1.18424          101.37         19.0482 
        1.19038         101.085         18.8133 
        1.19652         100.266         18.5824 
        1.20267         99.4617         18.3555 
        1.20881         98.9252         18.1323 
        1.21495         98.1748         17.9133 
        1.22108         97.8036         17.6979 
         1.2272         96.8956         17.4865 
        1.23334         96.5283         17.2782 
        1.23949         96.0045         17.0727 
        1.24562         95.3363         16.8712 
        1.25174         94.9044         16.6732 
        1.25789         94.3661         16.4778 
        1.26402         93.3317         16.2859 
        1.27014         93.0827         16.0975 
        1.27628         92.7401         15.9115 
        1.28244         92.3076         15.7281 
        1.28858         91.8824         15.5479 
        1.29471         91.0105         15.3709 
        1.30084         90.8725         15.1968 
        1.30697         89.9641         15.0251 
        1.31312         89.5805         14.8559 
        1.31925         88.9484         14.6898 
        1.32537         88.5963         14.5263 
        1.33151         87.8531         14.3648 
        1.33765         87.4998         14.2059 
        1.34378         87.1186         14.0497 
        1.34992         86.7629         13.8957 
        1.35606         86.2409         13.7437 
         1.3622         85.4883         13.5942 
        1.36833         85.1905         13.4473 
        1.37445         84.7496         13.3027 
        1.38059         84.0548         13.1597 
        1.38675         83.5815         13.0185 
        1.39288         83.4742         12.8799 
        1.39901         82.9265         12.7434 
        1.40515         82.3215         12.6086 
         1.4113         81.9632         12.4758 
        1.41742          81.568         12.3454 
        1.42355         81.0649         12.2166 
         1.4297          80.803         12.0893 
        1.43585         80.1787         11.9638 
        1.44198         79.7199         11.8406 
        1.44809          79.412         11.7194 
        1.45423         79.1001         11.5994 
        1.46036         78.6648         11.4813 
        1.46649         78.0621         11.3648 
        1.47263         77.5694         11.2498 
        1.47877         77.3986         11.1365 
        1.48491         76.7686         11.0246 
        1.49104         76.6165         10.9144 
        1.49718         76.1616         10.8057 
        1.50333         75.7819         10.6982 
        1.50947         75.3323         10.5925 
         1.5156          74.993         10.4883 
        1.52172         74.5448         10.3856 
        1.52787         74.1912          10.284 
          1.534         73.6971         10.1839 
        1.54013         73.3315         10.0852 
        1.54627         73.1094         9.98767 
        1.55241         72.5624          9.8914 
        1.55855          72.268         9.79654 
        1.56467         72.0606         9.70318 
         1.5708          71.513         9.61078 
        1.57695         71.4469         9.51944 
        1.58308         70.8325         9.42949 
        1.58922         70.5794         9.34065 
        1.59535         70.3043         9.25297 
         1.6015         69.7393          9.1663 
        1.60764         69.4991         9.08078 
        1.61376         69.1995         8.99658 
        1.61989         68.8309         8.91338 
        1.62604         68.5196         8.83105 
        1.63218         68.2983          8.7498 
        1.63831         67.5096         8.66977 
        1.64444         67.3385          8.5907 
        1.65059         67.1011         8.51243 
        1.65673         66.5918         8.43522 
        1.66285         66.3495         8.35918 
        1.66898         66.1561         8.28406 
        1.67512         65.5768         8.20971 
        1.68127         65.4537         8.13621 
         1.6874         64.9993         8.06377 
        1.69353         64.6892         7.99225 
        1.69967         64.4104         7.92143 
        1.70581         64.1616          7.8515 
        1.71193         63.8645         7.78268 
        1.71806         63.4881         7.71454 
        1.72421         63.1685         7.64707 
        1.73035         62.8848         7.58049 
        1.73649         62.6338         7.51472 
        1.74262         62.2109         7.44978 
        1.74876         62.0026         7.38556 
        1.75489         61.5984         7.32223 
        1.76101         61.4185         7.25967 
        1.76715         60.9253         7.19775 
        1.77329         60.7317         7.13647 
        1.77943         60.3852         7.07588 
        1.78557         60.2224         7.01609 
        1.79171         59.7704         6.95697 
        1.79785         59.4306         6.89852 
        1.80399          59.303         6.84076 
        1.81012         59.0595         6.78373 
        1.81625          58.708         6.72738 
        1.82239         58.4298         6.67158 
        1.82853         58.1836         6.61644 
        1.83466          57.919         6.56198 
        1.84078         57.5307         6.50819 
        1.84692         57.3009         6.45491 
        1.85306         57.0056         6.40216 
         1.8592         56.7963         6.35008 
        1.86533          56.477         6.29861 
        1.87147         56.0582         6.24764 
        1.87761         55.9777         6.19722 
        1.88375         55.6977         6.14742 
        1.88988         55.3286         6.09821 
        1.89601         55.1448         6.04951 
        1.90215         54.7546         6.00131 
        1.90829         54.5451         5.95366 
        1.91442         54.3629         5.90651 
        1.92056         54.0541         5.85992 
         1.9267         53.8239         5.81379 
        1.93284          53.477         5.76812 
        1.93897         53.3002         5.72303 
        1.94509          53.117         5.67851 
        1.95123         52.7824         5.63436 
        1.95737         52.4967         5.59065 
        1.96349          52.224         5.54751 
        1.96964         52.0092          5.5047 
        1.97578         51.7485         5.46232 
        1.98192         51.6736         5.42047 
        1.98805         51.2819         5.37906 
        1.99419         51.0313         5.33808 
        2.00033         50.8607          5.2975 
        2.00647           50.62         5.25735 
         2.0126         50.2521         5.21769 
        2.01874         50.0335         5.17838 
        2.02488         49.8971         5.13944 
        2.03101          49.634         5.10097 
        2.03714         49.3546         5.06292 
        2.04328          49.159         5.02523 
        2.04941         48.9281         4.98794 
        2.05554         48.7502         4.95106 
        2.06167         48.5422         4.91451 
        2.06781         48.1976         4.87832 
        2.07396         48.0093         4.84244 
        2.08009         47.8782         4.80698 
        2.08622          47.509         4.77192 
        2.09237         47.3671         4.73713 
        2.09851          47.244         4.70269 
        2.10464         46.9251         4.66865 
        2.11077         46.6681         4.63498 
        2.11691         46.4394         4.60157 
        2.12305         46.2961         4.56849 
        2.12918         46.1346         4.53581 
        2.13531         45.7732         4.50345 
        2.14145           45.58         4.47133 
         2.1476         45.3567         4.43948 
        2.15372         45.1589          4.4081 
        2.15985         45.0262         4.37699 
        2.16599         44.7789          4.3461 
        2.17213         44.6276         4.31553 
        2.17827         44.3607         4.28527 
         2.1844         44.1136         4.25532 
        2.19054         43.9135         4.22565 
        2.19666         43.6942          4.1963 
         2.2028         43.6287          4.1672 
        2.20893         43.3532         4.13837 
        2.21508         43.1938         4.10977 
        2.22122         43.0119         4.08144 
        2.22736         42.7761         4.05343 
        2.23349         42.5943         4.02569 
        2.23962         42.3218         3.99819 
        2.24577         42.0986         3.97093 
         2.2519         41.9479         3.94396 
        2.25802         41.8439         3.91728 
        2.26417         41.5647         3.89077 
        2.27031         41.4103         3.86449 
        2.27644          41.225         3.83852 
        2.28257         40.9816         3.81279 
        2.28872         40.7583         3.78725 
        2.29486         40.6535         3.76195 
        2.30099         40.5138         3.73693 
        2.30712         40.2971         3.71212 
        2.31326         40.0632          3.6875 
         2.3194         39.8502         3.66312 
        2.32553         39.6711         3.63899 
        2.33166         39.4576          3.6151 
         2.3378         39.3288         3.59138 
        2.34394         39.1827         3.56787 
        2.35007         38.9832         3.54461 
        2.35619         38.7753         3.52158 
        2.36233         38.5895         3.49869 
        2.36848         38.4997         3.47597 
        2.37462         38.2383         3.45349 
        2.38075         38.1682         3.43124 
        2.38689         37.9871         3.40916 
        2.39303         37.7366         3.38728 
        2.39916         37.5549         3.36561 
        2.40529         37.4637         3.34413 
        2.41143          37.295         3.32283 
        2.41757          37.098          3.3017 
         2.4237         36.9374         3.28079 
        2.42983         36.7799         3.26007 
        2.43598         36.6167         3.23947 
        2.44211         36.4614         3.21908 
        2.44823         36.3117         3.19891 
        2.45437         36.0918         3.17886 
        2.46052         35.9342         3.15897 
        2.46665         35.7884         3.13928 
        2.47279         35.5696         3.11976 
        2.47892         35.4931         3.10039 
        2.48507         35.3161         3.08118 
         2.4912         35.1986         3.06216 
