# k  (h/Mpc)    P(k)  (Mpc/h)^3    P_linear(k)  (Mpc/h)^3
     0.00783031         672.053         679.653 
       0.013688         817.403         820.128 
       0.019231         815.127         815.731 
      0.0249154         738.436         741.812 
      0.0312784         630.524         630.701 
      0.0375637         528.758         527.367 
      0.0433917         451.837         451.857 
      0.0492413          398.66         397.765 
      0.0555754         357.827         358.736 
      0.0619321         333.209         331.702 
       0.067871         309.421          310.12 
      0.0738098         286.552         287.277 
      0.0800417         258.914         260.078 
      0.0862327         230.764         230.933 
      0.0921407         204.055          203.81 
      0.0982031         179.339         179.387 
       0.104506         160.532         159.418 
       0.110769          146.26         145.301 
       0.116806         136.338         136.124 
       0.122832         130.299         129.684 
       0.129052          124.01         124.056 
       0.135211         117.924         118.015 
       0.141259         111.245           110.9 
       0.147318          103.39         102.664 
       0.153489         94.2966          93.809 
       0.159709         85.9657         85.3231 
       0.165845         79.3344         78.1255 
       0.171974         73.1319         72.4648 
       0.178125         69.1058         68.2786 
       0.184229         66.1755         65.2605 
        0.19034         63.2504         62.8719 
       0.196428         61.3202          60.624 
       0.202534         59.1806         58.1373 
       0.208729         56.0084          55.224 
       0.214876         52.6288         52.0147 
       0.220989         49.7126         48.7266 
       0.227147         46.2645         45.5789 
        0.23329         43.5347         42.8109 
       0.239377         41.4009          40.535 
       0.245482         39.3165         38.7052 
       0.251667         38.1365         37.2073 
       0.257832          36.756         35.9199 
       0.263955         35.5505         34.6975 
       0.270079         34.2602         33.4238 
        0.27624         33.0883         32.0507 
       0.282372         31.6519           30.61 
        0.28843         30.0843         29.1733 
       0.294538         28.7119         27.7843 
       0.300721         27.6151         26.4999 
        0.30691         26.2953         25.3701 
       0.313033          25.361         24.4024 
       0.319153         24.2798         23.5582 
       0.325316         23.8106         22.7872 
        0.33145          23.008         22.0566 
       0.337538          22.287         21.3343 
       0.343633         21.4729         20.6006 
       0.349808         20.7999         19.8477 
       0.355968         20.0593         19.1025 
       0.362074         19.3175           18.39 
       0.368217         18.6684         17.7159 
       0.374374          17.979         17.0951 
       0.380519         17.4777         16.5294 
       0.386598         16.9956         16.0171 
       0.392688         16.5617          15.539 
        0.39888         16.0545         15.0751 
       0.405048         15.6237          14.626 
       0.411186         15.1955         14.1853 
       0.417313         14.6918         13.7505 
       0.423458         14.2902         13.3236 
       0.429607         13.8405         12.9096 
       0.435692         13.4271          12.518 
       0.441815         13.0796         12.1457 
       0.447964         12.7999         11.7938 
       0.454126         12.3603         11.4615 
       0.460267         12.0781         11.1481 
       0.466387         11.7124         10.8491 
        0.47254         11.4736         10.5582 
       0.478662         11.2224         10.2766 
       0.484765         10.8846          10.003 
       0.490885         10.6154         9.73563 
       0.497035         10.4474         9.47492 
       0.503198          10.147         9.22322 
       0.509342         9.89702         8.98273 
       0.515458         9.65197         8.75353 
       0.521598         9.44348         8.53319 
       0.527764         9.19834          8.3212 
       0.533884         9.03777         8.11884 
           0.54         8.81958         7.92341 
       0.546137         8.63992         7.73301 
       0.552299         8.46152         7.54725 
       0.558452           8.218         7.36724 
       0.564573         8.08111         7.19353 
       0.570708         7.90835         7.02483 
       0.576825         7.70556         6.86212 
       0.582926         7.56771         6.70537 
       0.589034         7.35724         6.55395 
       0.595184         7.23208         6.40679 
       0.601379         7.07149         6.26347 
       0.607522         6.96289         6.12576 
       0.613639         6.85639         5.99261 
       0.619772         6.66658         5.86292 
       0.625918         6.58169         5.73669 
       0.632068          6.4719         5.61403 
       0.638161         6.31494           5.496 
         0.6443         6.18539         5.38052 
       0.650464         6.05148         5.26797 
       0.656582         5.98106         5.15954 
       0.662703         5.86629         5.05424 
       0.668861         5.76699         4.95143 
       0.675024          5.6431         4.85151 
       0.681124         5.53508         4.75541 
       0.687237          5.4544         4.66173 
       0.693381         5.36344         4.57011 
       0.699536         5.22056         4.48075 
       0.705665         5.14964         4.39412 
       0.711789         5.06587         4.30984 
       0.717957         4.97205         4.22722 
        0.72409         4.88622         4.14726 
       0.730186         4.80661          4.0699 
       0.736317         4.75725         3.99415 
       0.742472         4.67576         3.92009 
       0.748622         4.58552         3.84801 
        0.75476         4.49435         3.77791 
       0.760888         4.42837         3.70968 
       0.767043         4.37607         3.64286 
       0.773185         4.28386         3.57783 
       0.779291         4.23579         3.51476 
       0.785407         4.16299         3.45313 
       0.791564         4.10237         3.39259 
       0.797719         4.03863         3.33356 
       0.803834         3.99175         3.27632 
       0.809972         3.93429         3.22023 
       0.816124         3.85838         3.16536 
       0.822261         3.78923         3.11193 
       0.828378         3.74234          3.0599 
       0.834502         3.70692         3.00903 
       0.840667         3.62639         2.95901 
       0.846816         3.57109         2.91026 
       0.852925         3.54006         2.86293 
       0.859047         3.48856         2.81656 
       0.865192         3.44212         2.77107 
       0.871341         3.39936         2.72655 
       0.877463         3.35232         2.68323 
       0.883569         3.29147         2.64096 
       0.889708           3.243         2.59939 
       0.895864         3.20365         2.55861 
       0.902008         3.15467          2.5188 
       0.908149         3.12129         2.47987 
       0.914301         3.06233         2.44169 
       0.920448         3.02572         2.40437 
       0.926574         2.98232         2.36796 
       0.932687         2.94738         2.33238 
       0.938823         2.91648         2.29742 
       0.944975         2.87615         2.26309 
       0.951105         2.84288          2.2296 
       0.957225         2.82178         2.19684 
       0.963368         2.77919         2.16464 
       0.969511           2.738         2.13308 
       0.975621         2.69705         2.10233 
       0.981748         2.67293          2.0721 
       0.987916         2.63713         2.04229 
        0.99406         2.59387         2.01318 
        1.00019         2.57018          1.9847 
        1.00632         2.53838          1.9568 
        1.01246         2.50927          1.9294 
        1.01859         2.47987         1.90257 
        1.02471         2.44713         1.87629 
        1.03085         2.42136         1.85041 
        1.03698          2.3877         1.82509 
        1.04314         2.36595         1.80013 
        1.04929         2.33431          1.7757 
        1.05541         2.30902         1.75183 
        1.06154         2.28262         1.72834 
        1.06769          2.2612         1.70524 
        1.07382         2.22987         1.68265 
        1.07993         2.19832         1.66052 
        1.08607         2.18726          1.6387 
        1.09222         2.15655         1.61725 
        1.09836         2.13974         1.59622 
        1.10449         2.11472         1.57558 
        1.11063         2.08549         1.55529 
        1.11677         2.06332         1.53536 
         1.1229         2.04183         1.51582 
        1.12903         2.01716          1.4966 
        1.13518          2.0009          1.4777 
        1.14131         1.97234         1.45914 
        1.14745         1.94138         1.44091 
        1.15359         1.93197         1.42299 
        1.15973         1.90289         1.40537 
        1.16584         1.89465         1.38813 
        1.17197         1.87218         1.37115 
        1.17811         1.85498          1.3544 
        1.18424         1.83915         1.33799 
        1.19038         1.81653          1.3218 
        1.19652         1.79669         1.30589 
        1.20267         1.78313         1.29023 
        1.20881         1.75945         1.27484 
        1.21495          1.7461         1.25973 
        1.22108         1.72908         1.24487 
         1.2272         1.71679         1.23028 
        1.23334         1.69425         1.21589 
        1.23949         1.67548          1.2017 
        1.24562         1.66418         1.18778 
        1.25174         1.64503         1.17409 
        1.25789         1.63083         1.16059 
        1.26402         1.61002         1.14732 
        1.27014         1.59553         1.13429 
        1.27628         1.58852         1.12143 
        1.28244         1.56503         1.10874 
        1.28858         1.55318         1.09627 
        1.29471         1.53779         1.08402 
        1.30084         1.52157         1.07197 
        1.30697          1.5114         1.06008 
        1.31312         1.48864         1.04836 
        1.31925          1.4817         1.03685 
        1.32537         1.46791         1.02553 
        1.33151         1.45652         1.01433 
        1.33765         1.43951         1.00331 
        1.34378         1.42479        0.992481 
        1.34992         1.41836        0.981801 
        1.35606         1.39887        0.971255 
         1.3622         1.39109        0.960883 
        1.36833         1.37742        0.950688 
        1.37445         1.36208        0.940646 
        1.38059         1.35264         0.93072 
        1.38675         1.34783        0.920913 
        1.39288         1.32978        0.911286 
        1.39901         1.31754        0.901803 
        1.40515         1.30761        0.892433 
         1.4113         1.29609          0.8832 
        1.41742         1.28478        0.874134 
        1.42355         1.27996        0.865178 
         1.4297         1.26219        0.856321 
        1.43585         1.25378        0.847593 
        1.44198         1.24776        0.839019 
        1.44809           1.231        0.830581 
        1.45423         1.22185        0.822228 
        1.46036         1.21187        0.814005 
        1.46649         1.20187        0.805892 
        1.47263         1.19152        0.797883 
        1.47877         1.17988        0.789987 
        1.48491         1.17081        0.782186 
        1.49104         1.16199        0.774507 
        1.49718         1.15545        0.766926 
        1.50333         1.14317        0.759434 
        1.50947         1.13684        0.752059 
         1.5156         1.12585        0.744792 
        1.52172         1.11678        0.737622 
        1.52787         1.10675        0.730532 
          1.534         1.10058        0.723544 
        1.54013         1.08896        0.716656 
        1.54627         1.07996        0.709845 
        1.55241         1.07115        0.703121 
        1.55855         1.06403        0.696494 
        1.56467          1.0579        0.689972 
         1.5708         1.04548        0.683514 
        1.57695         1.04124         0.67713 
        1.58308         1.03334        0.670842 
        1.58922         1.02448         0.66463 
        1.59535         1.01708        0.658499 
         1.6015          1.0093        0.652437 
        1.60764         1.00302        0.646455 
        1.61376        0.994018        0.640564 
        1.61989        0.987318        0.634742 
        1.62604        0.978523         0.62898 
        1.63218        0.974844        0.623293 
        1.63831        0.964385        0.617689 
        1.64444        0.957164        0.612153 
        1.65059        0.952218        0.606671 
        1.65673        0.943036        0.601263 
        1.66285        0.936544        0.595936 
        1.66898        0.932884        0.590672 
        1.67512         0.92236        0.585461 
        1.68127        0.915759        0.580308 
         1.6874        0.912421        0.575229 
        1.69353        0.902779        0.570214 
        1.69967        0.896151        0.565247 
        1.70581        0.892506        0.560341 
        1.71193        0.884642        0.555512 
        1.71806        0.880282         0.55073 
        1.72421        0.872893        0.545995 
        1.73035        0.865685        0.541321 
        1.73649        0.861624        0.536703 
        1.74262        0.855323        0.532142 
        1.74876        0.848703        0.527632 
        1.75489        0.841213        0.523183 
        1.76101        0.836439        0.518787 
        1.76715        0.831266        0.514435 
        1.77329          0.8262        0.510129 
        1.77943        0.818898         0.50587 
        1.78557        0.813218        0.501666 
        1.79171        0.809894        0.497509 
        1.79785        0.803311        0.493398 
        1.80399        0.798134        0.489335 
        1.81012        0.794091        0.485323 
        1.81625        0.787356        0.481358 
        1.82239        0.782946        0.477432 
        1.82853        0.774509        0.473551 
        1.83466         0.77145        0.469717 
        1.84078        0.765381         0.46593 
        1.84692        0.762575        0.462178 
        1.85306        0.757014        0.458464 
         1.8592        0.753003        0.454796 
        1.86533        0.747168         0.45117 
        1.87147        0.742639         0.44758 
        1.87761        0.737743        0.444028 
        1.88375        0.730995        0.440518 
        1.88988        0.728803         0.43705 
        1.89601        0.722773        0.433617 
        1.90215        0.718677        0.430219 
        1.90829        0.713351        0.426859 
        1.91442        0.708944        0.423535 
        1.92056        0.705574        0.420249 
         1.9267        0.700024        0.416994 
        1.93284         0.69753        0.413772 
        1.93897        0.692163        0.410591 
        1.94509        0.687849        0.407449 
        1.95123        0.682912        0.404333 
        1.95737        0.679406        0.401246 
        1.96349        0.674009        0.398201 
        1.96964        0.671013        0.395177 
        1.97578        0.666437        0.392184 
        1.98192        0.663852        0.389229 
        1.98805        0.658043        0.386303 
        1.99419        0.655316        0.383407 
        2.00033        0.652701         0.38054 
        2.00647          0.6469        0.377702 
         2.0126        0.643459        0.374899 
        2.01874        0.639848         0.37212 
        2.02488        0.636797        0.369366 
        2.03101        0.630852        0.366646 
        2.03714        0.626687        0.363955 
        2.04328        0.625322        0.361288 
        2.04941        0.620889        0.358651 
        2.05554        0.616865        0.356042 
        2.06167        0.613229        0.353455 
        2.06781        0.609029        0.350893 
        2.07396        0.604908        0.348354 
        2.08009        0.602303        0.345843 
        2.08622        0.598388        0.343361 
        2.09237        0.596821        0.340898 
        2.09851        0.593184        0.338459 
        2.10464        0.589966        0.336047 
        2.11077        0.585939        0.333662 
        2.11691         0.58209        0.331295 
        2.12305        0.579085        0.328951 
        2.12918        0.576091        0.326635 
        2.13531        0.572428        0.324342 
        2.14145        0.569526        0.322065 
         2.1476        0.565623        0.319807 
        2.15372         0.56394        0.317583 
        2.15985         0.55927        0.315377 
        2.16599        0.555878        0.313186 
        2.17213        0.553401        0.311018 
        2.17827         0.55162        0.308872 
         2.1844        0.548678        0.306747 
        2.19054        0.545727        0.304642 
        2.19666        0.541632         0.30256 
         2.2028        0.538796        0.300495 
        2.20893        0.536164        0.298448 
        2.21508         0.53396        0.296419 
        2.22122        0.528824        0.294407 
        2.22736        0.526635        0.292418 
        2.23349        0.525757        0.290449 
        2.23962         0.52214        0.288496 
        2.24577         0.51807         0.28656 
         2.2519        0.515965        0.284644 
        2.25802        0.513225        0.282748 
        2.26417        0.509883        0.280865 
        2.27031        0.507408        0.278997 
        2.27644        0.505293        0.277152 
        2.28257        0.502846        0.275323 
        2.28872         0.49975        0.273507 
        2.29486        0.497073        0.271708 
        2.30099        0.494271        0.269929 
        2.30712         0.49217        0.268166 
        2.31326        0.489548        0.266415 
         2.3194          0.4884         0.26468 
        2.32553        0.485546        0.262964 
        2.33166        0.482764        0.261264 
         2.3378        0.480057        0.259577 
        2.34394        0.476306        0.257904 
        2.35007        0.474712        0.256248 
        2.35619        0.472673        0.254609 
        2.36233        0.469061         0.25298 
        2.36848        0.467697        0.251363 
        2.37462        0.464538        0.249762 
        2.38075        0.463776        0.248178 
        2.38689        0.460695        0.246605 
        2.39303        0.459082        0.245047 
        2.39916        0.455218        0.243504 
        2.40529        0.454047        0.241974 
        2.41143        0.452078        0.240456 
        2.41757        0.449539         0.23895 
         2.4237        0.447494         0.23746 
        2.42983        0.445447        0.235983 
        2.43598        0.443208        0.234515 
        2.44211        0.441502        0.233061 
        2.44823        0.439271        0.231624 
        2.45437        0.436567        0.230194 
        2.46052        0.435646        0.228775 
        2.46665        0.432601        0.227371 
        2.47279        0.430354        0.225979 
        2.47892        0.427832        0.224597 
        2.48507        0.426343        0.223226 
         2.4912        0.424513         0.22187 
