# k  (h/Mpc)    P(k)  (Mpc/h)^3    P_linear(k)  (Mpc/h)^3
     0.00783031           11282         11437.1 
       0.013688         13875.1           13780 
       0.019231         13721.8         13695.9 
      0.0249154         12238.2           12449 
      0.0312784         10498.3         10580.9 
      0.0375637         8861.85         8845.48 
      0.0433917         7486.08         7577.92 
      0.0492413         6651.99         6670.06 
      0.0555754         5880.07         6015.09 
      0.0619321         5594.39         5561.44 
       0.067871         5097.08         5199.34 
      0.0738098         4721.48         4816.18 
      0.0800417         4236.73         4360.03 
      0.0862327         3811.56         3871.34 
      0.0921407         3421.99         3416.57 
      0.0982031         3003.29          3007.1 
       0.104506          2755.3         2672.32 
       0.110769         2515.03         2435.64 
       0.116806         2346.38         2281.77 
       0.122832         2240.43          2173.8 
       0.129052         2097.21         2079.45 
       0.135211         1999.59         1978.18 
       0.141259         1910.23         1858.89 
       0.147318         1790.44         1720.84 
       0.153489         1631.28          1572.4 
       0.159709         1521.38         1430.15 
       0.165845         1436.14          1309.5 
       0.171974         1339.89         1214.61 
       0.178125         1270.38         1144.44 
       0.184229          1216.2         1093.85 
        0.19034         1144.66         1053.81 
       0.196428         1125.84         1016.13 
       0.202534          1089.4         974.449 
       0.208729         1035.27         925.615 
       0.214876         981.989         871.823 
       0.220989         944.164         816.708 
       0.227147         894.505         763.949 
        0.23329          853.47         717.552 
       0.239377         832.081         679.406 
       0.245482         775.811         648.734 
       0.251667         769.404         623.628 
       0.257832         741.262         602.048 
       0.263955         717.254          581.56 
       0.270079         690.805         560.211 
        0.27624         682.317         537.195 
       0.282372         653.833         513.048 
        0.28843         638.459         488.966 
       0.294538         605.976         465.686 
       0.300721         601.303         444.158 
        0.30691         573.817         425.221 
       0.313033         562.219         409.001 
       0.319153         545.318         394.853 
       0.325316           529.4         381.929 
        0.33145         514.366         369.684 
       0.337538         506.997         357.578 
       0.343633         491.173          345.28 
       0.349808         474.355          332.66 
       0.355968         469.807          320.17 
       0.362074         461.212         308.227 
       0.368217         448.153         296.929 
       0.374374         429.685         286.524 
       0.380519         426.679         277.043 
       0.386598         415.813         268.457 
       0.392688         412.995         260.442 
        0.39888         401.054         252.667 
       0.405048         392.774          245.14 
       0.411186         385.589         237.753 
       0.417313         378.139         230.466 
       0.423458         371.052          223.31 
       0.429607         363.996         216.373 
       0.435692         354.969         209.808 
       0.441815         352.012         203.568 
       0.447964         344.726          197.67 
       0.454126         334.933         192.101 
       0.460267         329.773         186.847 
       0.466387         325.848         181.836 
        0.47254         319.291          176.96 
       0.478662          318.28         172.241 
       0.484765          307.62         167.656 
       0.490885         304.407         163.174 
       0.497035         299.086         158.804 
       0.503198         293.864         154.586 
       0.509342         291.484         150.555 
       0.515458         287.735         146.713 
       0.521598         281.641          143.02 
       0.527764         277.329         139.467 
       0.533884         274.759         136.076 
           0.54         270.736           132.8 
       0.546137         269.525         129.609 
       0.552299         263.873         126.496 
       0.558452         261.864         123.478 
       0.564573         257.881         120.567 
       0.570708           252.9         117.739 
       0.576825         249.076         115.012 
       0.582926         246.446         112.385 
       0.589034         244.125         109.847 
       0.595184         241.656         107.381 
       0.601379          238.66         104.979 
       0.607522          234.56          102.67 
       0.613639          233.28         100.439 
       0.619772         228.199         98.2652 
       0.625918          226.92         96.1496 
       0.632068         223.605         94.0936 
       0.638161         222.546         92.1154 
         0.6443         218.994         90.1798 
       0.650464         216.792         88.2936 
       0.656582         214.953         86.4761 
       0.662703         213.578         84.7113 
       0.668861         209.725         82.9882 
       0.675024         207.276         81.3134 
       0.681124         206.377         79.7027 
       0.687237         203.595         78.1326 
       0.693381         200.514         76.5971 
       0.699536         199.023         75.0992 
       0.705665         197.817         73.6472 
       0.711789         195.197         72.2348 
       0.717957         194.548           70.85 
        0.72409         192.047         69.5098 
       0.730186         189.728         68.2132 
       0.736317         187.706         66.9436 
       0.742472         186.762         65.7023 
       0.748622         185.182         64.4942 
        0.75476         183.646         63.3194 
       0.760888         181.211         62.1758 
       0.767043         180.904         61.0559 
       0.773185          178.88         59.9659 
       0.779291         175.603         58.9088 
       0.785407         175.181         57.8758 
       0.791564         173.619         56.8613 
       0.797719           171.1         55.8718 
       0.803834         170.294         54.9124 
       0.809972         169.134         53.9724 
       0.816124         168.799         53.0527 
       0.822261         166.683         52.1571 
       0.828378          165.12         51.2852 
       0.834502          164.81         50.4326 
       0.840667         162.321         49.5941 
       0.846816         160.969         48.7772 
       0.852925         160.361         47.9839 
       0.859047         158.587         47.2066 
       0.865192         157.237         46.4442 
       0.871341         155.897         45.6981 
       0.877463         154.683          44.972 
       0.883569         154.098         44.2635 
       0.889708         152.649         43.5668 
       0.895864         150.886         42.8833 
       0.902008         150.171         42.2161 
       0.908149         149.644         41.5635 
       0.914301         147.893         40.9238 
       0.920448         146.793         40.2981 
       0.926574         145.985         39.6879 
       0.932687         145.759         39.0917 
       0.938823         143.738         38.5056 
       0.944975         142.373         37.9303 
       0.951105         141.861         37.3689 
       0.957225         140.426         36.8199 
       0.963368         138.894         36.2801 
       0.969511         138.671         35.7512 
       0.975621         137.822         35.2358 
       0.981748         137.259         34.7293 
       0.987916         135.759         34.2296 
        0.99406         134.725         33.7417 
        1.00019         134.557         33.2643 
        1.00632         133.173         32.7967 
        1.01246         132.456         32.3374 
        1.01859          131.54         31.8877 
        1.02471         130.382         31.4472 
        1.03085         129.198         31.0136 
        1.03698         128.784         30.5891 
        1.04314         127.552         30.1708 
        1.04929          126.79         29.7614 
        1.05541         126.196         29.3613 
        1.06154         125.418         28.9676 
        1.06769         125.269         28.5805 
        1.07382         124.172         28.2019 
        1.07993         123.148          27.831 
        1.08607         122.363         27.4652 
        1.09222          121.99         27.1058 
        1.09836         120.915         26.7532 
        1.10449         119.936         26.4073 
        1.11063         119.142         26.0672 
        1.11677         118.789         25.7332 
         1.1229         117.648         25.4056 
        1.12903         117.035         25.0835 
        1.13518         116.938         24.7668 
        1.14131         115.753         24.4557 
        1.14745         115.196         24.1502 
        1.15359         114.435         23.8498 
        1.15973         114.049         23.5545 
        1.16584         112.865         23.2655 
        1.17197         112.394         22.9809 
        1.17811         111.775         22.7003 
        1.18424         111.234         22.4252 
        1.19038         110.873         22.1538 
        1.19652          110.05         21.8871 
        1.20267          109.26         21.6248 
        1.20881         108.514         21.3668 
        1.21495         107.947         21.1135 
        1.22108         107.457         20.8644 
         1.2272         106.459         20.6199 
        1.23334         106.094         20.3787 
        1.23949         105.261         20.1409 
        1.24562         104.794         19.9075 
        1.25174         103.996         19.6782 
        1.25789         103.636         19.4519 
        1.26402         102.937         19.2295 
        1.27014         102.427         19.0112 
        1.27628         101.941         18.7956 
        1.28244         101.379         18.5829 
        1.28858         101.077         18.3739 
        1.29471         100.053         18.1685 
        1.30084         99.7745         17.9665 
        1.30697         99.0617         17.7673 
        1.31312         98.6877         17.5708 
        1.31925         97.8904          17.378 
        1.32537         97.5487         17.1882 
        1.33151         96.6506         17.0006 
        1.33765         96.3386         16.8159 
        1.34378         95.7985         16.6343 
        1.34992         95.5236         16.4553 
        1.35606         94.9196         16.2786 
         1.3622         94.1053         16.1047 
        1.36833         93.8907         15.9339 
        1.37445         93.2777         15.7656 
        1.38059         92.7446         15.5992 
        1.38675         92.1087         15.4348 
        1.39288         91.7947         15.2735 
        1.39901         91.4585         15.1145 
        1.40515         90.8128         14.9575 
         1.4113          90.219         14.8027 
        1.41742         90.1002         14.6508 
        1.42355         89.3413         14.5007 
         1.4297          89.028         14.3522 
        1.43585         88.3472         14.2059 
        1.44198         88.0058         14.0622 
        1.44809         87.4849         13.9208 
        1.45423          87.035         13.7808 
        1.46036         86.8219          13.643 
        1.46649         86.1717          13.507 
        1.47263         85.6798         13.3728 
        1.47877         85.5378         13.2404 
        1.48491         84.7748         13.1097 
        1.49104         84.5288          12.981 
        1.49718         83.9783         12.8539 
        1.50333         83.5528         12.7284 
        1.50947         83.1931         12.6047 
         1.5156         82.7032          12.483 
        1.52172         82.2695         12.3628 
        1.52787          82.046          12.244 
          1.534         81.4238         12.1268 
        1.54013         80.9271         12.0114 
        1.54627         80.7244         11.8972 
        1.55241         80.1763         11.7845 
        1.55855         79.9239         11.6735 
        1.56467         79.5075         11.5641 
         1.5708         79.0356         11.4559 
        1.57695         78.9315         11.3489 
        1.58308         78.0992         11.2435 
        1.58922         78.0284         11.1394 
        1.59535         77.7001         11.0367 
         1.6015          77.056         10.9351 
        1.60764          76.793         10.8348 
        1.61376         76.4858         10.7361 
        1.61989         76.0254         10.6385 
        1.62604         75.8122         10.5419 
        1.63218          75.389         10.4466 
        1.63831         74.7211         10.3527 
        1.64444         74.5313         10.2599 
        1.65059         74.1204          10.168 
        1.65673         73.6754         10.0774 
        1.66285         73.3831         9.98807 
        1.66898          73.017         9.89984 
        1.67512         72.5774         9.81251 
        1.68127         72.3506         9.72615 
         1.6874         71.9867         9.64102 
        1.69353         71.6373         9.55696 
        1.69967         71.1087         9.47371 
        1.70581         71.0349         9.39149 
        1.71193         70.7897         9.31056 
        1.71806         70.1797          9.2304 
        1.72421         69.8894         9.15104 
        1.73035         69.5725          9.0727 
        1.73649         69.2504          8.9953 
        1.74262         68.9508         8.91886 
        1.74876         68.6085         8.84327 
        1.75489          68.123         8.76871 
        1.76101         67.9692         8.69503 
        1.76715         67.5128          8.6221 
        1.77329         67.2906         8.54991 
        1.77943         66.8158         8.47853 
        1.78557         66.6826         8.40807 
        1.79171         66.2228          8.3384 
        1.79785         65.9353          8.2695 
        1.80399         65.7512          8.2014 
        1.81012         65.4791         8.13416 
        1.81625         64.9546         8.06771 
        1.82239         64.7334          8.0019 
        1.82853         64.4421         7.93685 
        1.83466          64.162          7.8726 
        1.84078         63.8379         7.80912 
        1.84692         63.3876         7.74625 
        1.85306         63.1583         7.68399 
         1.8592         62.7739         7.62252 
        1.86533         62.5893         7.56175 
        1.87147         62.1727         7.50158 
        1.87761         61.9681         7.44204 
        1.88375         61.6633         7.38321 
        1.88988         61.4559         7.32509 
        1.89601         61.0873         7.26756 
        1.90215         60.7992          7.2106 
        1.90829          60.585         7.15429 
        1.91442          60.264         7.09857 
        1.92056         59.8372         7.04349 
         1.9267         59.7069         6.98895 
        1.93284         59.3335         6.93494 
        1.93897         59.0316         6.88162 
        1.94509         58.7645         6.82897 
        1.95123         58.5193         6.77673 
        1.95737          58.308         6.72501 
        1.96349         57.8577         6.67396 
        1.96964         57.7552         6.62329 
        1.97578         57.4737         6.57312 
        1.98192         57.1926         6.52358 
        1.98805         57.0579         6.47455 
        1.99419         56.6188         6.42601 
        2.00033         56.3726         6.37795 
        2.00647         56.1594          6.3304 
         2.0126         55.7207         6.28341 
        2.01874         55.5661         6.23683 
        2.02488         55.3873         6.19068 
        2.03101         55.1022         6.14508 
        2.03714         54.8169         6.09999 
        2.04328         54.6194          6.0553 
        2.04941         54.3048         6.01109 
        2.05554          54.024         5.96736 
        2.06167         53.7973           5.924 
        2.06781         53.5776         5.88107 
        2.07396         53.2863          5.8385 
        2.08009         53.1168         5.79643 
        2.08622         52.8168         5.75482 
        2.09237          52.534         5.71354 
        2.09851         52.4064         5.67266 
        2.10464         52.0978         5.63224 
        2.11077         51.7984         5.59227 
        2.11691         51.5805          5.5526 
        2.12305         51.4017         5.51331 
        2.12918         51.1478          5.4745 
        2.13531         50.8386         5.43606 
        2.14145         50.6362          5.3979 
         2.1476         50.4376         5.36006 
        2.15372         50.1505         5.32277 
        2.15985         49.9317         5.28581 
        2.16599         49.7073         5.24908 
        2.17213         49.5343         5.21275 
        2.17827         49.2849         5.17677 
         2.1844          49.012         5.14116 
        2.19054         48.7411         5.10588 
        2.19666         48.5279         5.07098 
         2.2028         48.4046         5.03637 
        2.20893         48.2057         5.00207 
        2.21508         48.0084         4.96805 
        2.22122         47.7338         4.93434 
        2.22736         47.5635         4.90101 
        2.23349         47.3455         4.86799 
        2.23962         46.9827         4.83527 
        2.24577         46.7858         4.80281 
         2.2519         46.5428          4.7707 
        2.25802         46.5112         4.73893 
        2.26417          46.182         4.70737 
        2.27031         46.0177         4.67606 
        2.27644         45.8275         4.64513 
        2.28257         45.5629         4.61448 
        2.28872         45.2807         4.58405 
        2.29486         45.1845          4.5539 
        2.30099         45.0161         4.52409 
        2.30712         44.7939         4.49452 
        2.31326         44.5035         4.46518 
         2.3194         44.2778         4.43611 
        2.32553         44.0969         4.40735 
        2.33166         43.9322         4.37886 
         2.3378         43.6549         4.35058 
        2.34394         43.4987         4.32254 
        2.35007         43.2352         4.29479 
        2.35619         43.0951         4.26731 
        2.36233         42.9982         4.24002 
        2.36848         42.7272          4.2129 
        2.37462         42.5289         4.18608 
        2.38075         42.3787         4.15952 
        2.38689         42.2308         4.13317 
        2.39303         41.9978         4.10705 
        2.39916         41.7878         4.08118 
        2.40529           41.59         4.05554 
        2.41143         41.4583          4.0301 
        2.41757         41.2237         4.00486 
         2.4237         41.1458         3.97989 
        2.42983         40.9002         3.95514 
        2.43598         40.6889         3.93053 
        2.44211         40.5243         3.90617 
        2.44823         40.3422         3.88207 
        2.45437         40.1683          3.8581 
        2.46052          39.881         3.83433 
        2.46665         39.7715         3.81079 
        2.47279          39.647         3.78746 
        2.47892         39.4433         3.76431 
        2.48507         39.2363         3.74133 
         2.4912         39.1339         3.71859 
