#  k  (h/Mpc)          P(k)  (Mpc/h)^3     P_linear(k) (Mpc/h)^3
     0.00783031         2339.34         2351.67 
       0.013688         3093.42          3134.9 
       0.019231         3360.57         3382.72 
      0.0249154         3319.86         3320.61 
      0.0312784         3040.33         3052.76 
      0.0375637         2708.34         2727.65 
      0.0433917         2449.32         2451.38 
      0.0492413         2216.99         2229.58 
      0.0555754         2051.65         2052.83 
      0.0619321         1890.75         1921.98 
       0.067871         1803.13         1817.79 
      0.0738098         1700.82         1711.67 
      0.0800417          1581.2         1587.46 
      0.0862327         1440.88         1451.68 
      0.0921407         1309.64         1319.33 
      0.0982031         1191.07         1192.35 
       0.104506         1070.33         1080.01 
       0.110769         986.275         993.022 
       0.116806         935.547         931.181 
       0.122832         881.522         885.584 
       0.129052         846.856         847.644 
       0.135211         816.036         811.567 
       0.141259         770.906         772.431 
       0.147318         719.864         727.787 
       0.153489         676.205         678.225 
       0.159709          633.25         627.844 
       0.165845          578.99         581.839 
       0.171974         553.365         542.589 
       0.178125         523.832         511.139 
       0.184229         493.086         487.171 
        0.19034         480.015         468.436 
       0.196428         464.034         452.424 
       0.202534         440.172         436.583 
       0.208729         429.111          419.03 
       0.214876         413.108         399.588 
       0.220989         385.226         378.792 
       0.227147         373.359         357.624 
        0.23329         356.197         337.705 
       0.239377         342.438         320.238 
       0.245482         325.146         305.481 
       0.251667         311.415         293.232 
       0.257832         306.598           283.1 
       0.263955         292.213         274.196 
       0.270079         283.319         265.578 
        0.27624         271.812          256.57 
       0.282372         263.884         246.997 
        0.28843         260.151         237.068 
       0.294538         248.106         226.941 
       0.300721         237.056         217.065 
        0.30691         232.094         207.966 
       0.313033         222.655         199.983 
       0.319153         218.606          193.03 
       0.325316         210.322         186.896 
        0.33145         204.535         181.366 
       0.337538         198.861         176.147 
       0.343633         193.367         170.937 
       0.349808         187.723         165.556 
       0.355968         182.596          160.06 
       0.362074         178.975         154.599 
       0.368217         174.436          149.23 
       0.374374         170.654         144.129 
       0.380519         163.329         139.423 
       0.386598         159.537          135.17 
       0.392688         155.428         131.289 
        0.39888         152.612         127.637 
       0.405048         149.426         124.191 
       0.411186         146.471          120.86 
       0.417313         142.806         117.559 
       0.423458         139.238         114.257 
       0.429607         136.938          110.98 
       0.435692           134.5         107.796 
       0.441815          130.17         104.706 
       0.447964         126.579         101.761 
       0.454126         124.283         98.9818 
       0.460267         123.415          96.385 
       0.466387         120.419         93.9519 
        0.47254         119.047         91.6216 
       0.478662         115.228         89.3827 
       0.484765         113.384         87.2067 
       0.490885         110.663         85.0658 
       0.497035         109.791         82.9465 
       0.503198         107.047         80.8666 
       0.509342         104.504         78.8535 
       0.515458          103.44         76.9228 
       0.521598         100.999         75.0631 
       0.527764         99.8976         73.2781 
       0.533884         98.6201         71.5874 
           0.54         96.3409         69.9693 
       0.546137         93.8565         68.4018 
       0.552299         92.5845         66.8722 
       0.558452         90.9112         65.3834 
       0.564573         90.5112         63.9382 
       0.570708         87.8499         62.5245 
       0.576825         86.9913         61.1499 
       0.582926         85.9071         59.8172 
       0.589034         84.4671         58.5248 
       0.595184          83.383         57.2694 
       0.601379         81.2383         56.0515 
       0.607522         80.2744          54.885 
       0.613639         79.3927         53.7596 
       0.619772         78.0977         52.6634 
       0.625918          76.888         51.5943 
       0.632068         76.1576         50.5527 
       0.638161         74.7037         49.5474 
         0.6443         74.0117         48.5603 
       0.650464         72.4559         47.5947 
       0.656582          72.105         46.6617 
       0.662703         71.3212         45.7537 
       0.668861         69.6896         44.8663 
       0.675024         69.3263         44.0043 
       0.681124         68.4856         43.1762 
       0.687237         67.1531         42.3696 
       0.693381         66.4246         41.5806 
       0.699536         65.9912         40.8102 
       0.705665         64.8504         40.0617 
       0.711789         63.9212         39.3316 
       0.717957         62.9787         38.6139 
        0.72409         62.4547         37.9178 
       0.730186         62.1183         37.2432 
       0.736317         61.0219          36.582 
       0.742472         60.3761         35.9353 
       0.748622         59.4871         35.3058 
        0.75476         58.4401         34.6933 
       0.760888          58.322         34.0968 
       0.767043         57.3628         33.5122 
       0.773185         56.9429         32.9426 
       0.779291          56.266         32.3893 
       0.785407         55.4022         31.8478 
       0.791564         55.3666         31.3152 
       0.797719          54.486         30.7951 
       0.803834         54.0411         30.2901 
       0.809972         53.3148         29.7948 
       0.816124          52.816         29.3097 
       0.822261         52.2444         28.8371 
       0.828378         51.8946         28.3765 
       0.834502         51.3629         27.9259 
       0.840667         50.9228         27.4823 
       0.846816         50.0025         27.0499 
       0.852925         49.9393         26.6296 
       0.859047         49.4748         26.2174 
       0.865192         48.7806         25.8128 
       0.871341         48.2819         25.4164 
       0.877463         47.9293         25.0303 
       0.883569         47.7241         24.6532 
       0.889708         47.1506          24.282 
       0.895864         46.6236         23.9176 
       0.902008         46.1067         23.5615 
       0.908149         45.8047          23.213 
       0.914301         45.5313          22.871 
       0.920448         45.0146         22.5364 
       0.926574         44.4209         22.2097 
       0.932687         44.1407         21.8902 
       0.938823         43.6792          21.576 
       0.944975         43.3347         21.2673 
       0.951105         42.9562         20.9658 
       0.957225         42.7789         20.6708 
       0.963368         42.2299         20.3805 
       0.969511          41.917         20.0959 
       0.975621         41.5502         19.8183 
       0.981748         41.1303         19.5452 
       0.987916         40.9038         19.2757 
        0.99406         40.4807         19.0123 
        1.00019         40.2122         18.7544 
        1.00632         39.9036         18.5016 
        1.01246         39.6351         18.2531 
        1.01859         39.2076         18.0096 
        1.02471          38.882         17.7709 
        1.03085         38.7817         17.5358 
        1.03698         38.4327         17.3055 
        1.04314         38.0993         17.0783 
        1.04929         37.7263         16.8559 
        1.05541         37.6031         16.6383 
        1.06154         37.3882         16.4241 
        1.06769         36.9243         16.2133 
        1.07382         36.6525          16.007 
        1.07993         36.3385         15.8048 
        1.08607         36.1607         15.6053 
        1.09222         35.8757         15.4091 
        1.09836         35.6106         15.2165 
        1.10449         35.4022         15.0274 
        1.11063         35.1476         14.8414 
        1.11677         35.0734         14.6587 
         1.1229         34.7194         14.4794 
        1.12903         34.5184         14.3029 
        1.13518         34.2687         14.1293 
        1.14131         34.0415         13.9587 
        1.14745         33.6405          13.791 
        1.15359         33.4139         13.6261 
        1.15973         33.1686         13.4638 
        1.16584         32.9787          13.305 
        1.17197         32.6739         13.1485 
        1.17811         32.5105          12.994 
        1.18424         32.2633         12.8425 
        1.19038         32.1229         12.6931 
        1.19652         31.8821          12.546 
        1.20267         31.7061         12.4014 
        1.20881         31.4807          12.259 
        1.21495         31.2529         12.1192 
        1.22108         31.2285         11.9815 
         1.2272         31.0014         11.8464 
        1.23334         30.7787          11.713 
        1.23949         30.5607         11.5814 
        1.24562         30.2786         11.4522 
        1.25174         30.1662         11.3252 
        1.25789         30.0175         11.1997 
        1.26402         29.8674         11.0764 
        1.27014         29.6767         10.9553 
        1.27628         29.3844         10.8356 
        1.28244         29.3924         10.7175 
        1.28858         29.0698         10.6014 
        1.29471         28.8572         10.4872 
        1.30084         28.6903         10.3748 
        1.30697          28.623         10.2639 
        1.31312         28.3567         10.1545 
        1.31925         28.2251         10.0471 
        1.32537         28.0473         9.94129 
        1.33151         27.8859         9.83667 
        1.33765          27.801         9.73363 
        1.34378         27.6236         9.63228 
        1.34992          27.478         9.53233 
        1.35606         27.2603         9.43358 
         1.3622         27.0509         9.33642 
        1.36833         26.9886         9.24088 
        1.37445         26.8792         9.14674 
        1.38059         26.7024         9.05363 
        1.38675         26.4875          8.9616 
        1.39288           26.35         8.87123 
        1.39901          26.247         8.78216 
        1.40515         26.0933         8.69413 
         1.4113         25.9748         8.60734 
        1.41742         25.8505         8.52208 
        1.42355         25.6448         8.43783 
         1.4297         25.5189         8.35447 
        1.43585         25.4042         8.27228 
        1.44198         25.3035         8.19152 
        1.44809         25.1574           8.112 
        1.45423         25.0049         8.03325 
        1.46036         24.8902         7.95569 
        1.46649         24.7305         7.87915 
        1.47263         24.6524         7.80355 
        1.47877         24.5552         7.72899 
        1.48491         24.3899         7.65529 
        1.49104         24.2476         7.58271 
        1.49718         24.1458         7.51103 
        1.50333         24.0447         7.44016 
        1.50947         23.9268         7.37036 
         1.5156         23.7844         7.30157 
        1.52172         23.6549         7.23366 
        1.52787         23.5239         7.16649 
          1.534         23.4779         7.10025 
        1.54013         23.3579         7.03493 
        1.54627         23.1997         6.97032 
        1.55241          23.065         6.90652 
        1.55855         22.9906         6.84361 
        1.56467         22.9157         6.78166 
         1.5708         22.8167         6.72031 
        1.57695         22.6559         6.65964 
        1.58308         22.5049         6.59986 
        1.58922         22.4329         6.54078 
        1.59535         22.2918         6.48244 
         1.6015          22.166         6.42475 
        1.60764         22.1111         6.36779 
        1.61376          22.052         6.31168 
        1.61989         21.8879         6.25621 
        1.62604         21.8283         6.20128 
        1.63218         21.7112         6.14705 
        1.63831         21.5868         6.09361 
        1.64444         21.4953         6.04078 
        1.65059         21.3842         5.98846 
        1.65673         21.3207         5.93682 
        1.66285         21.1795         5.88594 
        1.66898          21.136         5.83564 
        1.67512         21.0534         5.78583 
        1.68127         20.8887         5.73657 
         1.6874         20.8438         5.68799 
        1.69353         20.7111         5.64001 
        1.69967         20.6174         5.59248 
        1.70581          20.576         5.54551 
        1.71193         20.4318         5.49927 
        1.71806         20.3884         5.45345 
        1.72421         20.2777         5.40808 
        1.73035         20.1622         5.36327 
        1.73649         20.1117         5.31898 
        1.74262         19.9557         5.27523 
        1.74876         19.9263         5.23195 
        1.75489         19.8421         5.18925 
        1.76101         19.7473         5.14704 
        1.76715         19.6578         5.10524 
        1.77329         19.5778         5.06386 
        1.77943         19.4543         5.02292 
        1.78557         19.4292          4.9825 
        1.79171         19.3081         4.94252 
        1.79785         19.2783         4.90298 
        1.80399         19.1407         4.86387 
        1.81012         19.1006         4.82525 
        1.81625         18.9557         4.78707 
        1.82239         18.8943         4.74925 
        1.82853         18.8349         4.71186 
        1.83466         18.7135         4.67491 
        1.84078         18.6975          4.6384 
        1.84692           18.64         4.60222 
        1.85306         18.5463         4.56638 
         1.8592         18.4586         4.53099 
        1.86533         18.3462         4.49599 
        1.87147         18.2862         4.46132 
        1.87761         18.1894         4.42701 
        1.88375         18.1494          4.3931 
        1.88988         18.0273         4.35959 
        1.89601         17.9835         4.32641 
        1.90215         17.8809         4.29355 
        1.90829         17.8114         4.26105 
        1.91442         17.7293         4.22888 
        1.92056         17.7383         4.19708 
         1.9267         17.6319         4.16557 
        1.93284         17.5994         4.13438 
        1.93897         17.4758         4.10356 
        1.94509          17.425         4.07312 
        1.95123         17.3652         4.04292 
        1.95737         17.3142         4.01301 
        1.96349          17.179         3.98347 
        1.96964         17.1368         3.95415 
        1.97578         17.0984         3.92512 
        1.98192         16.9947         3.89643 
        1.98805         16.9338         3.86803 
        1.99419         16.8751         3.83992 
        2.00033         16.8301         3.81207 
        2.00647         16.7492         3.78451 
         2.0126         16.6946         3.75726 
        2.01874         16.5806         3.73025 
        2.02488         16.5538         3.70348 
        2.03101         16.4695         3.67702 
        2.03714         16.4262         3.65085 
        2.04328         16.3213          3.6249 
        2.04941         16.2505         3.59923 
        2.05554         16.2479         3.57383 
        2.06167          16.174         3.54864 
        2.06781         16.0887         3.52369 
        2.07396         16.0847         3.49895 
        2.08009         15.9521         3.47448 
        2.08622         15.9317         3.45029 
        2.09237         15.8872         3.42627 
        2.09851         15.7844         3.40248 
        2.10464         15.7662         3.37896 
        2.11077         15.6703         3.35569 
        2.11691         15.6518         3.33259 
        2.12305         15.5631         3.30971 
        2.12918         15.4639          3.2871 
        2.13531         15.4604         3.26469 
        2.14145         15.3879         3.24245 
         2.1476         15.3109         3.22039 
        2.15372         15.2724         3.19865 
        2.15985         15.2284         3.17708 
        2.16599         15.1614         3.15566 
        2.17213         15.1334         3.13445 
        2.17827         15.0561         3.11345 
         2.1844         15.0109         3.09266 
        2.19054         14.9666         3.07206 
        2.19666         14.9049         3.05167 
         2.2028         14.8346         3.03145 
        2.20893         14.7952          3.0114 
        2.21508         14.7311         2.99151 
        2.22122         14.6708          2.9718 
        2.22736         14.6422         2.95231 
        2.23349         14.5772           2.933 
        2.23962         14.5398         2.91385 
        2.24577         14.4835         2.89486 
         2.2519         14.4344         2.87606 
        2.25802         14.3262         2.85746 
        2.26417         14.3456         2.83898 
        2.27031          14.266         2.82064 
        2.27644         14.2219         2.80252 
        2.28257         14.1337         2.78456 
        2.28872          14.142         2.76672 
        2.29486         14.0808         2.74905 
        2.30099         14.0327         2.73157 
        2.30712          13.943         2.71423 
        2.31326         13.8784         2.69701 
         2.3194         13.8672         2.67995 
        2.32553         13.7857         2.66307 
        2.33166         13.7518         2.64635 
         2.3378         13.7111         2.62974 
        2.34394         13.6797         2.61328 
        2.35007          13.609         2.59697 
        2.35619         13.5742         2.58083 
        2.36233         13.4932         2.56479 
        2.36848          13.475         2.54885 
        2.37462         13.4298         2.53308 
        2.38075         13.3984         2.51746 
        2.38689         13.3504         2.50196 
        2.39303         13.2617          2.4866 
        2.39916         13.2488         2.47138 
        2.40529         13.2058         2.45629 
        2.41143         13.1519         2.44131 
        2.41757         13.0997         2.42646 
         2.4237         13.0651         2.41175 
        2.42983         13.0059         2.39717 
        2.43598         12.9812         2.38267 
        2.44211         12.9437         2.36832 
        2.44823         12.8834         2.35412 
        2.45437          12.841         2.33999 
        2.46052         12.8139         2.32597 
        2.46665         12.7677         2.31209 
        2.47279         12.7278         2.29833 
        2.47892          12.657         2.28467 
        2.48507         12.6345         2.27112 
         2.4912         12.5784         2.25769 
