# k  (h/Mpc)    P(k)  (Mpc/h)^3    P_linear(k)  (Mpc/h)^3
     0.00783031         3873.81         3899.81 
       0.013688         5099.36         5186.61 
       0.019231         5557.29         5608.43 
      0.0249154          5521.9         5526.97 
      0.0312784         5069.29         5103.42 
      0.0375637         4521.16         4571.33 
      0.0433917         4092.86         4107.18 
      0.0492413         3690.16         3725.65 
      0.0555754         3403.23         3416.11 
      0.0619321         3113.18         3187.92 
       0.067871         2972.16         3013.25 
      0.0738098         2812.14         2843.87 
      0.0800417         2626.34         2650.47 
      0.0862327         2404.83          2437.9 
      0.0921407         2196.23          2225.7 
      0.0982031         2004.54          2015.3 
       0.104506         1795.96         1821.85 
       0.110769         1648.11         1666.01 
       0.116806         1558.66         1551.83 
       0.122832            1459         1467.45 
       0.129052         1397.67          1400.8 
       0.135211         1352.16         1343.11 
       0.141259         1279.83         1284.65 
       0.147318         1199.49         1218.72 
       0.153489         1135.43         1143.44 
       0.159709         1072.75         1063.15 
       0.165845         979.013         985.707 
       0.171974         939.203         915.891 
       0.178125         888.353         857.134 
       0.184229         827.427         810.986 
        0.19034         805.291         775.353 
       0.196428         778.822         747.083 
       0.202534         736.853          722.03 
       0.208729         723.644         696.368 
       0.214876         699.891          668.36 
       0.220989         655.201         637.421 
       0.227147         639.262         604.146 
        0.23329         612.164         570.811 
       0.239377         591.942         539.751 
       0.245482         560.099         512.158 
       0.251667         535.926         488.605 
       0.257832         528.507         469.356 
       0.263955         501.609         453.459 
       0.270079         486.695         439.435 
        0.27624         467.446         425.875 
       0.282372         456.789         411.894 
        0.28843         453.439         397.168 
       0.294538          432.04         381.473 
       0.300721         415.136         365.275 
        0.30691         407.712         349.477 
       0.313033         390.512         334.948 
       0.319153         382.997         321.946 
       0.325316         371.527         310.512 
        0.33145          362.38         300.593 
       0.337538         351.105         291.795 
       0.343633         340.961         283.552 
       0.349808         332.089         275.361 
       0.355968          324.72         267.036 
       0.362074         317.623         258.576 
       0.368217         312.127         249.917 
       0.374374         305.316          241.32 
       0.380519         292.696         233.064 
       0.386598         287.408         225.407 
       0.392688          280.75         218.381 
        0.39888         274.601         211.873 
       0.405048         269.628         205.956 
       0.411186         266.152         200.469 
       0.417313         260.406         195.215 
       0.423458         253.918         190.046 
       0.429607         249.263         184.892 
       0.435692         244.529          179.78 
       0.441815         239.103         174.683 
       0.447964         232.659         169.678 
       0.454126          228.65         164.848 
       0.460267         226.615         160.289 
       0.466387         222.087         156.032 
        0.47254         219.601         152.014 
       0.478662         212.772         148.248 
       0.484765         210.093         144.676 
       0.490885         206.555         141.214 
       0.497035         204.927         137.806 
       0.503198         200.946         134.446 
       0.509342         195.848         131.152 
       0.515458         194.073         127.931 
       0.521598         189.533          124.78 
       0.527764         187.489         121.727 
       0.533884         186.747         118.827 
           0.54         182.074         116.061 
       0.546137         177.993         113.406 
       0.552299         176.352         110.852 
       0.558452         173.259         108.399 
       0.564573         172.536         106.035 
       0.570708         168.079         103.721 
       0.576825         166.153          101.46 
       0.582926         164.415         99.2546 
       0.589034          162.15         97.1006 
       0.595184         160.574         94.9923 
       0.601379         156.648         92.9339 
       0.607522          154.62         90.9586 
       0.613639         153.305         89.0586 
       0.619772         151.253         87.2216 
       0.625918         149.893         85.4444 
       0.632068         147.138         83.7216 
       0.638161         144.944         82.0617 
         0.6443         144.344         80.4294 
       0.650464         141.806         78.8279 
       0.656582         141.152         77.2763 
       0.662703         139.556         75.7632 
       0.668861         136.735          74.282 
       0.675024         136.734         72.8414 
       0.681124         134.543          71.456 
       0.687237         132.056         70.1062 
       0.693381         131.635         68.7869 
       0.699536         130.027         67.5012 
       0.705665          128.05         66.2554 
       0.711789         126.525         65.0433 
       0.717957         125.237         63.8537 
        0.72409         124.523         62.7005 
       0.730186         123.557         61.5823 
       0.736317         121.368         60.4843 
       0.742472         120.211          59.408 
       0.748622         118.475         58.3584 
        0.75476          117.83         57.3363 
       0.760888          117.21         56.3404 
       0.767043         115.244          55.365 
       0.773185         114.043         54.4158 
       0.779291         112.826         53.4952 
       0.785407         111.335         52.5956 
       0.791564         111.341         51.7116 
       0.797719         110.195         50.8487 
       0.803834         109.034         50.0113 
       0.809972         108.444         49.1896 
       0.816124         107.238         48.3845 
       0.822261         105.866         47.5994 
       0.828378         105.602          46.834 
       0.834502         103.954         46.0848 
       0.840667         103.501         45.3472 
       0.846816         102.432         44.6279 
       0.852925         101.608          43.929 
       0.859047         101.072         43.2439 
       0.865192         99.6287         42.5713 
       0.871341         98.6409         41.9129 
       0.877463         98.1355         41.2716 
       0.883569         97.7897         40.6455 
       0.889708         96.9568         40.0294 
       0.895864         96.0048         39.4247 
       0.902008         95.2412         38.8338 
       0.908149         94.2657         38.2555 
       0.914301         93.9002         37.6882 
       0.920448         93.3354          37.133 
       0.926574         91.6982          36.591 
       0.932687         91.3735         36.0611 
       0.938823         90.6125         35.5399 
       0.944975          89.698         35.0279 
       0.951105         88.9702         34.5279 
       0.957225         88.9449         34.0385 
       0.963368         87.9599         33.5571 
       0.969511         87.1853         33.0851 
       0.975621         86.6295         32.6248 
       0.981748         85.7829         32.1722 
       0.987916         85.1737         31.7253 
        0.99406         84.7505         31.2887 
        1.00019         83.9056         30.8613 
        1.00632         83.4094         30.4423 
        1.01246         82.8059         30.0305 
        1.01859         82.4233         29.6271 
        1.02471         81.4452         29.2316 
        1.03085         81.0562         28.8421 
        1.03698         80.5092         28.4605 
        1.04314         80.0504         28.0843 
        1.04929          79.412         27.7158 
        1.05541         78.8959         27.3555 
        1.06154         78.5306         27.0007 
        1.06769         77.5363         26.6517 
        1.07382         77.2556         26.3101 
        1.07993         76.8058         25.9754 
        1.08607         76.1733         25.6451 
        1.09222         75.9073         25.3202 
        1.09836         75.2568         25.0015 
        1.10449         74.7991         24.6886 
        1.11063         74.1818         24.3808 
        1.11677         74.1089         24.0783 
         1.1229         73.2821         23.7816 
        1.12903         73.1702         23.4896 
        1.13518         72.8823         23.2024 
        1.14131         72.1162         22.9201 
        1.14745          71.385         22.6428 
        1.15359         70.8699           22.37 
        1.15973         70.6879         22.1016 
        1.16584         70.2492         21.8389 
        1.17197         69.4797         21.5801 
        1.17811         69.2422         21.3248 
        1.18424         68.4985         21.0743 
        1.19038          68.396         20.8272 
        1.19652         68.1165         20.5841 
        1.20267         67.6217          20.345 
        1.20881         67.1471         20.1097 
        1.21495         66.8891         19.8786 
        1.22108         66.5276         19.6511 
         1.2272         66.0721         19.4278 
        1.23334         65.6682         19.2075 
        1.23949         65.3197           18.99 
        1.24562         64.7697         18.7766 
        1.25174         64.4225         18.5668 
        1.25789         64.4627         18.3596 
        1.26402         63.8701         18.1559 
        1.27014         63.4395         17.9558 
        1.27628         62.9396         17.7582 
        1.28244         62.7626         17.5632 
        1.28858         62.3367         17.3714 
        1.29471         62.1384         17.1829 
        1.30084         61.5987         16.9973 
        1.30697         61.4323         16.8143 
        1.31312         60.8856         16.6337 
        1.31925         60.5277         16.4564 
        1.32537          60.285         16.2818 
        1.33151         59.9127         16.1091 
        1.33765         59.6419         15.9391 
        1.34378          59.413         15.7719 
        1.34992         58.9981          15.607 
        1.35606         58.6587         15.4441 
         1.3622         58.2243         15.2838 
        1.36833         57.9126         15.1262 
        1.37445         57.5821         14.9709 
        1.38059         57.3882         14.8173 
        1.38675         56.8132         14.6656 
        1.39288         56.8002         14.5165 
        1.39901         56.3763         14.3697 
        1.40515         56.1383         14.2245 
         1.4113         56.0845         14.0814 
        1.41742         55.7053         13.9409 
        1.42355         55.1696          13.802 
         1.4297         54.8927         13.6646 
        1.43585         54.5188         13.5291 
        1.44198         54.2944          13.396 
        1.44809         54.0602         13.2649 
        1.45423         53.8531         13.1352 
        1.46036         53.5606         13.0074 
        1.46649         53.3482         12.8812 
        1.47263         52.9469         12.7567 
        1.47877         52.7792         12.6338 
        1.48491         52.5957         12.5124 
        1.49104         52.1772         12.3929 
        1.49718         51.9429         12.2748 
        1.50333         51.8089         12.1581 
        1.50947         51.3589         12.0431 
         1.5156         51.1853         11.9298 
        1.52172         50.7933          11.818 
        1.52787         50.5883         11.7074 
          1.534         50.3891         11.5984 
        1.54013          50.166         11.4909 
        1.54627          49.758         11.3845 
        1.55241          49.601         11.2795 
        1.55855         49.3938         11.1759 
        1.56467         49.2215          11.074 
         1.5708         48.9728          10.973 
        1.57695         48.6891         10.8732 
        1.58308         48.2878         10.7748 
        1.58922         48.0949         10.6776 
        1.59535         47.9529         10.5816 
         1.6015         47.8084         10.4867 
        1.60764         47.5756          10.393 
        1.61376         47.2405         10.3007 
        1.61989          46.975         10.2094 
        1.62604         46.8148         10.1191 
        1.63218         46.5312         10.0299 
        1.63831         46.4619         9.94199 
        1.64444         46.1413         9.85512 
        1.65059         45.9403         9.76908 
        1.65673         45.6496         9.68417 
        1.66285         45.5682         9.60051 
        1.66898         45.1791         9.51781 
        1.67512            45.1         9.43594 
        1.68127         44.8406         9.35495 
         1.6874         44.6312          9.2751 
        1.69353          44.467         9.19624 
        1.69967         44.2718          9.1181 
        1.70581         43.8482         9.04092 
        1.71193         43.6984         8.96492 
        1.71806         43.6062         8.88964 
        1.72421         43.4317         8.81508 
        1.73035         43.1436         8.74146 
        1.73649         42.8627          8.6687 
        1.74262         42.6434         8.59683 
        1.74876         42.4053         8.52573 
        1.75489         42.3227         8.45559 
        1.76101         42.1921         8.38626 
        1.76715          41.953         8.31762 
        1.77329         41.7047         8.24966 
        1.77943         41.6631         8.18244 
        1.78557         41.3696         8.11607 
        1.79171          41.217         8.05043 
        1.79785         40.9841          7.9855 
        1.80399          40.831         7.92131 
        1.81012         40.6756         7.85791 
        1.81625         40.3577         7.79523 
        1.82239         40.2245         7.73315 
        1.82853          40.088         7.67177 
        1.83466         39.8786         7.61112 
        1.84078         39.6526          7.5512 
        1.84692         39.4969         7.49182 
        1.85306         39.2741         7.43302 
         1.8592         39.1504         7.37494 
        1.86533         38.9675         7.31751 
        1.87147         38.7925         7.26064 
        1.87761         38.5983         7.20434 
        1.88375         38.5355         7.14871 
        1.88988         38.2365         7.09374 
        1.89601         38.0655         7.03931 
        1.90215         37.9313         6.98541 
        1.90829         37.7851          6.9321 
        1.91442          37.532         6.87935 
        1.92056         37.4165          6.8272 
         1.9267         37.2736         6.77553 
        1.93284          37.096         6.72437 
        1.93897         36.9197         6.67384 
        1.94509         36.7826         6.62394 
        1.95123         36.6098         6.57442 
        1.95737         36.4602         6.52538 
        1.96349         36.2274         6.47696 
        1.96964         36.2029          6.4289 
        1.97578         35.9625          6.3813 
        1.98192         35.7714         6.33429 
        1.98805         35.5344         6.28774 
        1.99419         35.5393         6.24166 
        2.00033          35.312         6.19603 
        2.00647         35.1719         6.15086 
         2.0126         34.9801         6.10622 
        2.01874         34.8002         6.06196 
        2.02488         34.7211          6.0181 
        2.03101         34.4921         5.97475 
        2.03714         34.3611         5.93188 
        2.04328         34.2426         5.88938 
        2.04941         34.0573         5.84733 
        2.05554         33.9925         5.80573 
        2.06167         33.7926         5.76447 
        2.06781         33.6528         5.72361 
        2.07396         33.5648         5.68309 
        2.08009         33.3804         5.64303 
        2.08622          33.202         5.60341 
        2.09237          33.086         5.56409 
        2.09851         32.8415         5.52514 
        2.10464         32.7576         5.48663 
        2.11077         32.7151         5.44854 
        2.11691         32.5005         5.41072 
        2.12305         32.3763         5.37326 
        2.12918         32.2132         5.33625 
        2.13531         32.1025         5.29959 
        2.14145         31.9195         5.26318 
         2.1476          31.751         5.22708 
        2.15372         31.6187         5.19149 
        2.15985         31.5471         5.15621 
        2.16599         31.3896         5.12115 
        2.17213         31.2877         5.08646 
        2.17827         31.0709          5.0521 
         2.1844         30.9701         5.01808 
        2.19054         30.9009         4.98437 
        2.19666         30.7174         4.95102 
         2.2028         30.6322         4.91795 
        2.20893         30.4023         4.88516 
        2.21508         30.3149         4.85263 
        2.22122         30.1896         4.82039 
        2.22736         30.0852         4.78851 
        2.23349         29.9265         4.75693 
        2.23962         29.8908         4.72562 
        2.24577         29.6813         4.69456 
         2.2519         29.5866         4.66383 
        2.25802          29.387         4.63342 
        2.26417         29.2779          4.6032 
        2.27031         29.2081         4.57322 
        2.27644         29.1378         4.54359 
        2.28257         28.9772         4.51423 
        2.28872         28.8616         4.48507 
        2.29486         28.7318         4.45618 
        2.30099         28.5529         4.42761 
        2.30712         28.5133         4.39927 
        2.31326         28.3343         4.37113 
         2.3194         28.2583         4.34326 
        2.32553         28.1184         4.31567 
        2.33166         27.9625         4.28834 
         2.3378         27.9353         4.26121 
        2.34394         27.7869          4.2343 
        2.35007         27.6817         4.20767 
        2.35619         27.5312          4.1813 
        2.36233         27.4463         4.15509 
        2.36848         27.3147         4.12906 
        2.37462         27.1729          4.1033 
        2.38075         27.0552         4.07779 
        2.38689         26.9523         4.05247 
        2.39303         26.8754         4.02738 
        2.39916         26.7407         4.00252 
        2.40529         26.5861         3.97787 
        2.41143         26.5447         3.95342 
        2.41757         26.3779         3.92916 
         2.4237         26.2796         3.90515 
        2.42983         26.2011         3.88134 
        2.43598         26.0892         3.85767 
        2.44211         25.9785         3.83424 
        2.44823         25.8913         3.81105 
        2.45437         25.7796         3.78799 
        2.46052         25.6504         3.76511 
        2.46665         25.5848         3.74245 
        2.47279         25.4143         3.71999 
        2.47892         25.3507          3.6977 
        2.48507         25.2521         3.67557 
         2.4912         25.1442         3.65366 
