# k  (h/Mpc)    P(k)  (Mpc/h)^3    P_linear(k)  (Mpc/h)^3
     0.00783031         1205.43         1215.69 
       0.013688         1496.74          1514.1 
       0.019231         1536.57         1544.46 
      0.0249154         1435.44         1435.21 
      0.0312784         1244.28         1245.63 
      0.0375637          1057.3         1059.92 
      0.0433917          922.71         920.738 
      0.0492413         818.777         819.534 
      0.0555754         748.043         745.511 
      0.0619321         687.649         693.074 
       0.067871         648.873         649.907 
      0.0738098         602.833         603.243 
      0.0800417          548.33          547.32 
      0.0862327         487.335         487.561 
      0.0921407         432.421         432.318 
      0.0982031         385.043          383.01 
       0.104506         342.756         343.119 
       0.110769         315.377          315.21 
       0.116806         299.322         297.102 
       0.122832         284.339         284.071 
       0.129052          273.14         272.008 
       0.135211         260.472         258.453 
       0.141259         243.204         242.339 
       0.147318         223.705         223.917 
       0.153489         205.517         204.528 
       0.159709         188.586         186.421 
       0.165845         171.918         171.502 
       0.171974         163.007         160.121 
       0.178125         154.618         151.922 
       0.184229          147.59         146.024 
        0.19034         143.667          141.12 
       0.196428         138.404         136.109 
       0.202534         130.985         130.241 
       0.208729         125.399         123.266 
       0.214876         118.625         115.687 
       0.220989         109.803         108.139 
       0.227147         104.501         101.176 
        0.23329         98.9185         95.3101 
       0.239377          94.634         90.6881 
       0.245482          90.581         87.0875 
       0.251667         87.0005         84.1462 
       0.257832         85.2684         81.4924 
       0.263955         81.5907         78.7733 
       0.270079         78.5476         75.7692 
        0.27624         74.8602         72.4374 
       0.282372          71.638         68.9569 
        0.28843         69.3049         65.5663 
       0.294538          65.929         62.4041 
       0.300721         62.6988          59.604 
        0.30691          61.018         57.2392 
       0.313033         58.7194         55.2756 
       0.319153         57.5984         53.5605 
       0.325316         55.1489         51.9446 
        0.33145         53.3892         50.3272 
       0.337538         51.8109         48.6498 
       0.343633          50.255         46.8931 
       0.349808         48.3254         45.0805 
       0.355968         46.5605         43.3118 
       0.362074          45.357         41.6628 
       0.368217         43.7877         40.1594 
       0.374374         42.7404         38.8151 
       0.380519         41.0284         37.6204 
       0.386598         39.8212         36.5414 
       0.392688         38.6714         35.5146 
        0.39888         37.8757         34.4892 
       0.405048         36.9147         33.4601 
       0.411186         35.8324         32.4246 
       0.417313         34.7629         31.3959 
       0.423458         33.6228          30.388 
       0.429607         32.9593         29.4261 
       0.435692         32.2582         28.5387 
       0.441815          31.048         27.7112 
       0.447964         30.1056         26.9409 
       0.454126         29.5736         26.2194 
       0.460267         29.1759         25.5329 
       0.466387         28.3225         24.8653 
        0.47254         27.8174         24.2041 
       0.478662          26.972         23.5547 
       0.484765         26.3476          22.916 
       0.490885         25.5622         22.2912 
       0.497035         25.0042         21.6874 
       0.503198         24.4827         21.1124 
       0.509342         23.7838         20.5684 
       0.515458          23.433         20.0546 
       0.521598         22.8924         19.5642 
       0.527764         22.5338         19.0918 
       0.533884         21.9035         18.6371 
           0.54         21.5048         18.1924 
       0.546137         20.8593         17.7553 
       0.552299         20.4822          17.327 
       0.558452         20.0313         16.9113 
       0.564573         19.7527         16.5106 
       0.570708           19.28         16.1228 
       0.576825         18.9428          15.751 
       0.582926         18.5594         15.3956 
       0.589034         18.1993         15.0537 
       0.595184         17.9572         14.7214 
       0.601379         17.4736         14.3965 
       0.607522         17.1639         14.0825 
       0.613639          16.816         13.7774 
       0.619772          16.549         13.4796 
       0.625918         16.2033         13.1895 
       0.632068         16.0134         12.9078 
       0.638161         15.6876          12.637 
         0.6443         15.3954         12.3725 
       0.650464         15.0226         12.1151 
       0.656582         14.9071         11.8674 
       0.662703          14.693         11.6271 
       0.668861         14.2947         11.3926 
       0.675024         14.0735         11.1645 
       0.681124         14.0271          10.945 
       0.687237         13.7115         10.7306 
       0.693381         13.3717         10.5205 
       0.699536         13.2975         10.3154 
       0.705665         13.0441         10.1164 
       0.711789         12.7834         9.92277 
       0.717957         12.5224         9.73304 
        0.72409         12.4031          9.5496 
       0.730186         12.3139          9.3723 
       0.736317         12.0347         9.19878 
       0.742472         11.8834         9.02918 
       0.748622         11.6994          8.8641 
        0.75476         11.4009         8.70351 
       0.760888         11.3289         8.54706 
       0.767043         11.1014         8.39374 
       0.773185         10.9659         8.24441 
       0.779291         10.8922          8.0995 
       0.785407         10.6783         7.95785 
       0.791564         10.5563         7.81869 
       0.797719          10.347         7.68296 
       0.803834         10.2665         7.55136 
       0.809972         10.0724         7.42243 
       0.816124         9.95297          7.2963 
       0.822261         9.82712         7.17348 
       0.828378         9.69059          7.0539 
       0.834502           9.577         6.93697 
       0.840667         9.47485         6.82197 
       0.846816         9.27478         6.70991 
       0.852925         9.19879         6.60109 
       0.859047         9.07638         6.49446 
       0.865192          8.9495         6.38984 
       0.871341         8.82487         6.28746 
       0.877463         8.71224          6.1878 
       0.883569         8.63596         6.09057 
       0.889708         8.50066         5.99493 
       0.895864         8.39408         5.90111 
       0.902008         8.28069         5.80951 
       0.908149         8.16765         5.71992 
       0.914301         8.09957         5.63208 
       0.920448         7.99217         5.54618 
       0.926574         7.94377         5.46238 
       0.932687         7.80856         5.38049 
       0.938823         7.69085             5.3 
       0.944975          7.6386         5.22098 
       0.951105         7.51407         5.14387 
       0.957225         7.46893         5.06845 
       0.963368         7.37224         4.99429 
       0.969511         7.28656         4.92161 
       0.975621         7.19896         4.85078 
       0.981748         7.08437         4.78117 
       0.987916         7.02579         4.71249 
        0.99406         6.97342         4.64543 
        1.00019         6.90092          4.5798 
        1.00632         6.83172         4.51551 
        1.01246          6.7377         4.45237 
        1.01859         6.66416         4.39053 
        1.02471         6.56669         4.32995 
        1.03085         6.53696         4.27031 
        1.03698         6.46567         4.21193 
        1.04314         6.39704         4.15439 
        1.04929         6.30575         4.09806 
        1.05541         6.25201         4.04301 
        1.06154         6.19702         3.98884 
        1.06769         6.16549         3.93558 
        1.07382         6.05569         3.88348 
        1.07993          5.9898         3.83244 
        1.08607         5.95831         3.78211 
        1.09222         5.87746         3.73264 
        1.09836         5.86329         3.68412 
        1.10449         5.74328         3.63651 
        1.11063         5.71996          3.5897 
        1.11677         5.67121         3.54373 
         1.1229         5.61174         3.49866 
        1.12903         5.57074         3.45432 
        1.13518         5.48764         3.41073 
        1.14131           5.439         3.36791 
        1.14745          5.3738         3.32585 
        1.15359         5.33025         3.28451 
        1.15973           5.276         3.24385 
        1.16584         5.23575         3.20407 
        1.17197         5.18241          3.1649 
        1.17811         5.13251         3.12627 
        1.18424         5.08673         3.08839 
        1.19038         5.04762         3.05104 
        1.19652         5.00926         3.01431 
        1.20267         4.96509          2.9782 
        1.20881         4.91236         2.94268 
        1.21495         4.87036          2.9078 
        1.22108         4.82931         2.87349 
         1.2272         4.77236         2.83982 
        1.23334         4.76402         2.80661 
        1.23949          4.7009         2.77386 
        1.24562         4.66772         2.74172 
        1.25174         4.63646         2.71013 
        1.25789          4.5679         2.67895 
        1.26402         4.54114         2.64832 
        1.27014         4.50711         2.61824 
        1.27628         4.45949         2.58854 
        1.28244          4.4365         2.55925 
        1.28858         4.40613         2.53044 
        1.29471         4.34564         2.50215 
        1.30084         4.30931         2.47431 
        1.30697         4.29252         2.44686 
        1.31312         4.25099         2.41979 
        1.31925         4.21441         2.39321 
        1.32537         4.18792         2.36706 
        1.33151         4.14645          2.3412 
        1.33765         4.11566         2.31575 
        1.34378         4.09744         2.29073 
        1.34992         4.05729         2.26606 
        1.35606         4.02822          2.2417 
         1.3622         3.99625         2.21774 
        1.36833         3.95644          2.1942 
        1.37445         3.92063           2.171 
        1.38059         3.89312         2.14807 
        1.38675         3.86415         2.12542 
        1.39288         3.84574         2.10319 
        1.39901         3.80108         2.08128 
        1.40515         3.78119         2.05964 
         1.4113         3.75267         2.03832 
        1.41742         3.72063         2.01737 
        1.42355         3.69174         1.99669 
         1.4297           3.671         1.97623 
        1.43585         3.64597         1.95607 
        1.44198         3.61372         1.93626 
        1.44809         3.59565         1.91677 
        1.45423         3.56639         1.89747 
        1.46036         3.54265         1.87848 
        1.46649         3.50681         1.85974 
        1.47263          3.4966         1.84123 
        1.47877         3.47121         1.82299 
        1.48491         3.44184         1.80497 
        1.49104         3.41729         1.78723 
        1.49718         3.39867         1.76971 
        1.50333         3.36882          1.7524 
        1.50947         3.34177         1.73536 
         1.5156         3.32526         1.71857 
        1.52172         3.30403           1.702 
        1.52787         3.28143         1.68562 
          1.534         3.26087         1.66947 
        1.54013         3.23712         1.65355 
        1.54627         3.21308         1.63782 
        1.55241         3.18604         1.62228 
        1.55855         3.17366         1.60697 
        1.56467         3.15192         1.59189 
         1.5708         3.13014         1.57697 
        1.57695         3.10082         1.56222 
        1.58308         3.07984         1.54769 
        1.58922         3.07091         1.53333 
        1.59535         3.04541         1.51916 
         1.6015         3.02153         1.50516 
        1.60764         3.00998         1.49133 
        1.61376         2.98342         1.47772 
        1.61989         2.96229         1.46427 
        1.62604         2.94217         1.45095 
        1.63218         2.93284         1.43781 
        1.63831         2.91866         1.42486 
        1.64444         2.89384         1.41206 
        1.65059         2.88187          1.3994 
        1.65673         2.85453          1.3869 
        1.66285         2.83928         1.37459 
        1.66898         2.82283         1.36242 
        1.67512         2.80032         1.35038 
        1.68127         2.78355         1.33847 
         1.6874         2.77638         1.32674 
        1.69353         2.74734         1.31515 
        1.69967          2.7342         1.30367 
        1.70581         2.72319         1.29233 
        1.71193         2.69442         1.28117 
        1.71806          2.6853         1.27012 
        1.72421         2.67224         1.25918 
        1.73035         2.65178         1.24838 
        1.73649         2.64014         1.23771 
        1.74262         2.62439         1.22717 
        1.74876         2.60887         1.21674 
        1.75489         2.59198         1.20646 
        1.76101         2.57384          1.1963 
        1.76715          2.5665         1.18625 
        1.77329         2.54629          1.1763 
        1.77943         2.53214         1.16645 
        1.78557         2.51894         1.15674 
        1.79171         2.50701         1.14713 
        1.79785         2.49295         1.13763 
        1.80399         2.47605         1.12824 
        1.81012         2.46251         1.11897 
        1.81625         2.44439         1.10981 
        1.82239         2.43613         1.10073 
        1.82853          2.4209         1.09177 
        1.83466         2.40041         1.08291 
        1.84078         2.38965         1.07415 
        1.84692         2.37796         1.06548 
        1.85306         2.36688          1.0569 
         1.8592         2.35265         1.04842 
        1.86533         2.34057         1.04004 
        1.87147         2.32884         1.03175 
        1.87761         2.31881         1.02354 
        1.88375         2.30276         1.01543 
        1.88988         2.29153         1.00741 
        1.89601         2.27436        0.999481 
        1.90215         2.26216        0.991628 
        1.90829         2.25752        0.983863 
        1.91442         2.23935        0.976181 
        1.92056         2.23348        0.968587 
         1.9267          2.2209        0.961067 
        1.93284         2.20778        0.953622 
        1.93897         2.19169        0.946269 
        1.94509         2.18415         0.93901 
        1.95123         2.17163        0.931809 
        1.95737         2.16367        0.924678 
        1.96349         2.14941         0.91764 
        1.96964         2.14117        0.910654 
        1.97578          2.1275        0.903738 
        1.98192          2.1121        0.896908 
        1.98805         2.10725        0.890148 
        1.99419         2.09383        0.883457 
        2.00033         2.08026        0.876831 
        2.00647         2.07702        0.870275 
         2.0126         2.06651        0.863797 
        2.01874         2.05524        0.857375 
        2.02488         2.04311        0.851013 
        2.03101         2.03212        0.844727 
        2.03714         2.02596         0.83851 
        2.04328         2.01408        0.832349 
        2.04941         2.00476        0.826255 
        2.05554         1.99477        0.820226 
        2.06167         1.98241        0.814249 
        2.06781         1.97444        0.808331 
        2.07396         1.96474        0.802463 
        2.08009         1.95859        0.796664 
        2.08622         1.94678        0.790928 
        2.09237         1.94161        0.785238 
        2.09851         1.92544        0.779602 
        2.10464         1.92066        0.774031 
        2.11077         1.91332        0.768521 
        2.11691         1.89967        0.763053 
        2.12305         1.89112        0.757637 
        2.12918         1.88073        0.752287 
        2.13531         1.87399        0.746988 
        2.14145         1.86633        0.741728 
         2.1476         1.85225        0.736512 
        2.15372         1.84609        0.731373 
        2.15985          1.8373        0.726277 
        2.16599         1.83242        0.721215 
        2.17213           1.824        0.716208 
        2.17827         1.81245        0.711248 
         2.1844         1.80443         0.70634 
        2.19054         1.79638        0.701477 
        2.19666         1.78915        0.696666 
         2.2028         1.77884        0.691897 
        2.20893         1.77252        0.687169 
        2.21508         1.76519         0.68248 
        2.22122         1.75665        0.677834 
        2.22736         1.74627         0.67324 
        2.23349         1.73862         0.66869 
        2.23962         1.73558         0.66418 
        2.24577         1.72496        0.659707 
         2.2519         1.71624        0.655281 
        2.25802         1.71173        0.650903 
        2.26417         1.70349        0.646553 
        2.27031         1.69501        0.642239 
        2.27644         1.68821        0.637976 
        2.28257         1.67795        0.633752 
        2.28872         1.67465        0.629559 
        2.29486          1.6654        0.625404 
        2.30099         1.65633        0.621295 
        2.30712          1.6537        0.617222 
        2.31326         1.64498        0.613177 
         2.3194         1.63604        0.609172 
        2.32553         1.63152        0.605209 
        2.33166          1.6264        0.601282 
         2.3378         1.61809        0.597386 
        2.34394         1.60936        0.593522 
        2.35007         1.59948        0.589698 
        2.35619         1.59728        0.585912 
        2.36233         1.59045        0.582151 
        2.36848         1.58392        0.578415 
        2.37462          1.5769        0.574719 
        2.38075         1.57036         0.57106 
        2.38689         1.56605        0.567429 
        2.39303         1.55916         0.56383 
        2.39916         1.55037        0.560266 
        2.40529         1.54526        0.556733 
        2.41143         1.53793        0.553228 
        2.41757         1.53356        0.549752 
         2.4237         1.52591        0.546311 
        2.42983         1.51951        0.542901 
        2.43598         1.51546         0.53951 
        2.44211         1.50788        0.536155 
        2.44823         1.50251        0.532835 
        2.45437         1.49595        0.529534 
        2.46052         1.49076        0.526258 
        2.46665         1.48557        0.523015 
        2.47279         1.47799        0.519801 
        2.47892         1.47253        0.516612 
        2.48507         1.46614        0.513447 
         2.4912         1.46173        0.510314 
