# k  (h/Mpc)    P(k)  (Mpc/h)^3    P_linear(k)  (Mpc/h)^3
     0.00783031         6740.94         6788.18 
       0.013688         8284.44         8448.86 
       0.019231         8524.41          8615.5 
      0.0249154         8015.12         8004.49 
      0.0312784         6907.25         6946.17 
      0.0375637         5848.23         5910.06 
      0.0433917         5126.36         5133.68 
      0.0492413         4534.89         4569.21 
      0.0555754          4155.1         4156.36 
      0.0619321         3773.33         3863.91 
       0.067871          3581.5         3623.18 
      0.0738098          3338.7         3362.97 
      0.0800417         3040.47         3051.17 
      0.0862327         2699.47            2718 
      0.0921407         2404.63         2410.01 
      0.0982031         2157.39         2135.12 
       0.104506         1913.15         1912.73 
       0.110769         1766.78         1757.15 
       0.116806         1690.06         1656.19 
       0.122832         1596.11         1583.55 
       0.129052         1530.07         1516.29 
       0.135211         1472.53         1440.73 
       0.141259          1367.8          1350.9 
       0.147318         1255.02          1248.2 
       0.153489         1163.46         1140.12 
       0.159709         1087.81         1039.18 
       0.165845         986.074         956.013 
       0.171974         953.032         892.571 
       0.178125         910.836         846.867 
       0.184229         854.532         813.985 
        0.19034         838.139          786.65 
       0.196428         811.576         758.715 
       0.202534         759.633         726.003 
       0.208729         740.157         687.124 
       0.214876         704.787         644.876 
       0.220989         653.888         602.798 
       0.227147         633.245         563.986 
        0.23329         605.241         531.286 
       0.239377         590.575         505.521 
       0.245482         560.869         485.451 
       0.251667         539.577         469.055 
       0.257832         534.128         454.261 
       0.263955         505.814         439.104 
       0.270079         487.831         422.358 
        0.27624         466.666         403.786 
       0.282372         453.806         384.384 
        0.28843         448.404         365.484 
       0.294538          424.83         347.857 
       0.300721         409.317         332.248 
        0.30691         402.297         319.066 
       0.313033         384.706         308.121 
       0.319153         378.322          298.56 
       0.325316         369.177         289.552 
        0.33145         359.835         280.537 
       0.337538         347.277         271.186 
       0.343633         336.468         261.394 
       0.349808         326.922          251.29 
       0.355968         319.638         241.431 
       0.362074         310.619         232.239 
       0.368217         306.304         223.858 
       0.374374         299.094         216.365 
       0.380519         286.861         209.705 
       0.386598         282.503         203.691 
       0.392688         275.361         197.967 
        0.39888         269.047         192.251 
       0.405048         263.729         186.515 
       0.411186         261.074         180.742 
       0.417313         255.748         175.008 
       0.423458         248.822          169.39 
       0.429607         242.898         164.028 
       0.435692         238.657         159.081 
       0.441815         233.685         154.469 
       0.447964         227.351         150.175 
       0.454126          223.81         146.153 
       0.460267         221.139         142.326 
       0.466387         216.519         138.605 
        0.47254         213.895         134.919 
       0.478662         207.385         131.299 
       0.484765         204.821         127.739 
       0.490885         201.551         124.256 
       0.497035         199.171         120.891 
       0.503198         196.408         117.685 
       0.509342         191.175         114.653 
       0.515458         188.874         111.789 
       0.521598         184.485         109.055 
       0.527764         182.537         106.422 
       0.533884         181.806         103.888 
           0.54          177.35         101.408 
       0.546137         173.415          98.972 
       0.552299         171.717         96.5849 
       0.558452         168.691         94.2676 
       0.564573          167.78         92.0337 
       0.570708         163.634          89.872 
       0.576825          161.57         87.7996 
       0.582926         159.825         85.8184 
       0.589034         157.449         83.9127 
       0.595184         156.052         82.0601 
       0.601379         152.686         80.2495 
       0.607522         150.016         78.4988 
       0.613639         148.883         76.7985 
       0.619772         146.984         75.1384 
       0.625918         145.882         73.5213 
       0.632068         142.623         71.9508 
       0.638161         141.077         70.4416 
         0.6443         140.306          68.967 
       0.650464         137.574          67.532 
       0.656582         136.913         66.1513 
       0.662703         135.372         64.8121 
       0.668861         132.601         63.5048 
       0.675024         132.635         62.2336 
       0.681124         130.448         61.0097 
       0.687237         128.486         59.8148 
       0.693381         127.546         58.6438 
       0.699536          125.98         57.5002 
       0.705665         124.432         56.3909 
       0.711789         122.908         55.3117 
       0.717957         121.512         54.2541 
        0.72409         120.545         53.2315 
       0.730186         120.109         52.2433 
       0.736317          118.04          51.276 
       0.742472         116.479         50.3307 
       0.748622         114.751         49.4104 
        0.75476         114.851         48.5152 
       0.760888         113.822         47.6432 
       0.767043         111.737         46.7885 
       0.773185         110.501         45.9561 
       0.779291         109.275         45.1484 
       0.785407         108.277         44.3588 
       0.791564         107.791         43.5831 
       0.797719          106.37         42.8265 
       0.803834          105.87         42.0929 
       0.809972         105.095         41.3743 
       0.816124         103.675         40.6711 
       0.822261         102.539         39.9865 
       0.828378         102.348           39.32 
       0.834502         100.805         38.6682 
       0.840667         100.281         38.0271 
       0.846816         99.3772         37.4025 
       0.852925         98.2163         36.7959 
       0.859047         97.7603         36.2015 
       0.865192         96.6415         35.6183 
       0.871341         95.6107         35.0477 
       0.877463         94.9483         34.4922 
       0.883569         94.7823         33.9501 
       0.889708         93.9014          33.417 
       0.895864         93.0716         32.8941 
       0.902008         92.1774         32.3835 
       0.908149         91.0064          31.884 
       0.914301         90.9145         31.3944 
       0.920448         90.5457         30.9156 
       0.926574         88.7638         30.4485 
       0.932687         88.6277          29.992 
       0.938823         87.9445         29.5434 
       0.944975         86.9202         29.1029 
       0.951105         86.2287          28.673 
       0.957225         86.0997         28.2526 
       0.963368         85.1534         27.8392 
       0.969511         84.5379         27.4341 
       0.975621          83.808         27.0393 
       0.981748         83.0935         26.6513 
       0.987916         82.5411         26.2684 
        0.99406         82.2177         25.8946 
        1.00019         81.1993         25.5288 
        1.00632         80.6786         25.1704 
        1.01246         80.2074         24.8184 
        1.01859         79.8864         24.4738 
        1.02471         79.1009         24.1361 
        1.03085          78.435         23.8036 
        1.03698         77.9899         23.4782 
        1.04314         77.3975         23.1574 
        1.04929         76.9963         22.8435 
        1.05541         76.4692         22.5366 
        1.06154         76.0122         22.2346 
        1.06769         75.2909         21.9378 
        1.07382          74.651         21.6473 
        1.07993         74.4634         21.3628 
        1.08607         73.8483         21.0823 
        1.09222          73.601         20.8065 
        1.09836         72.8767          20.536 
        1.10449         72.4981         20.2707 
        1.11063         71.9715         20.0098 
        1.11677         71.6146         19.7535 
         1.1229         70.9674         19.5022 
        1.12903         70.7544         19.2551 
        1.13518          70.492         19.0121 
        1.14131         69.8012         18.7734 
        1.14745          69.348          18.539 
        1.15359          68.568         18.3085 
        1.15973         68.5617         18.0819 
        1.16584         68.0607         17.8602 
        1.17197         67.4812         17.6418 
        1.17811         67.1407         17.4265 
        1.18424         66.4095         17.2153 
        1.19038         66.3833         17.0071 
        1.19652         65.9996         16.8024 
        1.20267         65.5078         16.6011 
        1.20881         65.1185         16.4031 
        1.21495         64.7822         16.2087 
        1.22108         64.5784         16.0174 
         1.2272         63.8997         15.8297 
        1.23334         63.6848         15.6446 
        1.23949         63.2685         15.4621 
        1.24562         62.8141         15.2829 
        1.25174         62.4641         15.1069 
        1.25789         62.4146          14.933 
        1.26402          61.879         14.7623 
        1.27014         61.6413         14.5946 
        1.27628         61.0431         14.4291 
        1.28244         60.9521         14.2658 
        1.28858         60.5264         14.1052 
        1.29471         60.1621         13.9475 
        1.30084         59.6196         13.7923 
        1.30697         59.6987         13.6393 
        1.31312         59.1574         13.4884 
        1.31925         58.7351         13.3402 
        1.32537         58.4726         13.1945 
        1.33151         58.1863         13.0503 
        1.33765         57.8783         12.9085 
        1.34378         57.6031          12.769 
        1.34992          57.276         12.6315 
        1.35606         56.8723         12.4957 
         1.3622         56.6531         12.3622 
        1.36833         56.3098         12.2309 
        1.37445         55.7954         12.1016 
        1.38059         55.7517         11.9738 
        1.38675          55.165         11.8475 
        1.39288         55.1813         11.7236 
        1.39901         54.6879         11.6015 
        1.40515         54.5105         11.4809 
         1.4113         54.3798          11.362 
        1.41742         53.9926         11.2453 
        1.42355         53.6862         11.1299 
         1.4297         53.4069         11.0159 
        1.43585          53.069         10.9035 
        1.44198         52.7483         10.7931 
        1.44809         52.4565         10.6845 
        1.45423          52.267         10.5769 
        1.46036         51.9907          10.471 
        1.46649         51.7981         10.3666 
        1.47263         51.4803         10.2634 
        1.47877         51.2997         10.1617 
        1.48491         51.0291         10.0613 
        1.49104         50.6138         9.96237 
        1.49718         50.4549         9.86473 
        1.50333         50.2312         9.76825 
        1.50947         49.9585         9.67325 
         1.5156         49.7543         9.57966 
        1.52172         49.3886         9.48731 
        1.52787         49.1535         9.39599 
          1.534         48.9223         9.30598 
        1.54013         48.8572         9.21725 
        1.54627         48.3752         9.12952 
        1.55241         48.1532         9.04291 
        1.55855         48.0699         8.95756 
        1.56467         47.6667         8.87354 
         1.5708         47.6101         8.79036 
        1.57695          47.314         8.70812 
        1.58308         46.9929         8.62713 
        1.58922         46.8182         8.54711 
        1.59535         46.6719         8.46813 
         1.6015         46.5955         8.39005 
        1.60764         46.2335         8.31299 
        1.61376           45.97         8.23711 
        1.61989         45.6735         8.16211 
        1.62604         45.5174         8.08789 
        1.63218          45.239         8.01463 
        1.63831         45.1508         7.94245 
        1.64444         44.9078         7.87113 
        1.65059         44.6725         7.80052 
        1.65673         44.4147         7.73086 
        1.66285          44.333         7.66223 
        1.66898           43.93         7.59442 
        1.67512         43.8436          7.5273 
        1.68127         43.6247         7.46093 
         1.6874         43.3965          7.3955 
        1.69353         43.2991          7.3309 
        1.69967         43.1086         7.26692 
        1.70581         42.7736         7.20373 
        1.71193         42.6037         7.14152 
        1.71806         42.4344         7.07992 
        1.72421         42.2531         7.01893 
        1.73035         42.0328         6.95872 
        1.73649         41.7518         6.89923 
        1.74262         41.4899         6.84048 
        1.74876         41.5068         6.78238 
        1.75489         41.1979         6.72507 
        1.76101         41.0488         6.66844 
        1.76715         40.9556         6.61239 
        1.77329         40.5638         6.55691 
        1.77943          40.567         6.50205 
        1.78557         40.3819         6.44789 
        1.79171         40.1687         6.39434 
        1.79785         39.9712         6.34139 
        1.80399         39.7844         6.28905 
        1.81012         39.6552         6.23737 
        1.81625         39.3247         6.18629 
        1.82239         39.1929         6.13571 
        1.82853         39.0739         6.08572 
        1.83466         38.8515         6.03633 
        1.84078          38.702         5.98755 
        1.84692         38.4916         5.93922 
        1.85306         38.2833         5.89137 
         1.8592         38.2017         5.84412 
        1.86533          38.018         5.79742 
        1.87147         37.8353         5.75117 
        1.87761         37.5973         5.70541 
        1.88375         37.5092          5.6602 
        1.88988          37.367         5.61552 
        1.89601         37.1106         5.57131 
        1.90215         36.9896         5.52753 
        1.90829         36.8235         5.48425 
        1.91442         36.6402         5.44143 
        1.92056         36.4956          5.3991 
         1.9267         36.4214         5.35718 
        1.93284           36.17         5.31568 
        1.93897         36.1005         5.27469 
        1.94509         35.8443         5.23423 
        1.95123         35.7491         5.19409 
        1.95737         35.5143         5.15434 
        1.96349         35.4552         5.11511 
        1.96964          35.285         5.07617 
        1.97578           35.07         5.03762 
        1.98192         34.9199         4.99955 
        1.98805         34.7497         4.96186 
        1.99419         34.6422         4.92456 
        2.00033         34.4652         4.88763 
        2.00647         34.4012         4.85109 
         2.0126         34.1754         4.81498 
        2.01874         34.0267         4.77918 
        2.02488         33.8471         4.74372 
        2.03101         33.7061         4.70868 
        2.03714         33.5889         4.67402 
        2.04328         33.4745         4.63968 
        2.04941          33.284         4.60571 
        2.05554         33.1647          4.5721 
        2.06167         32.9999         4.53879 
        2.06781         32.8856          4.5058 
        2.07396         32.7397         4.47309 
        2.08009         32.5929         4.44076 
        2.08622         32.4418         4.40879 
        2.09237         32.3346         4.37707 
        2.09851         32.1631         4.34566 
        2.10464         31.9972          4.3146 
        2.11077         31.9456         4.28389 
        2.11691         31.7186         4.25341 
        2.12305         31.5806         4.22322 
        2.12918         31.4804          4.1934 
        2.13531         31.3589         4.16386 
        2.14145         31.2341         4.13454 
         2.1476         31.0579         4.10546 
        2.15372         30.9975         4.07681 
        2.15985         30.7958         4.04841 
        2.16599         30.6187          4.0202 
        2.17213         30.5481         3.99228 
        2.17827         30.4122         3.96464 
         2.1844         30.3022         3.93728 
        2.19054         30.1873         3.91017 
        2.19666          30.002         3.88336 
         2.2028         29.9331         3.85677 
        2.20893         29.8213         3.83042 
        2.21508         29.6935         3.80428 
        2.22122         29.5441         3.77838 
        2.22736         29.3925         3.75277 
        2.23349          29.271         3.72741 
        2.23962         29.1791         3.70227 
        2.24577         29.0581         3.67733 
         2.2519         28.9093         3.65267 
        2.25802         28.7801         3.62826 
        2.26417         28.6373         3.60401 
        2.27031         28.5843         3.57996 
        2.27644         28.5051          3.5562 
        2.28257         28.3362         3.53266 
        2.28872         28.2644         3.50928 
        2.29486         28.0891         3.48612 
        2.30099         27.9328         3.46322 
        2.30712         27.8698         3.44051 
        2.31326         27.7333         3.41797 
         2.3194         27.6347         3.39564 
        2.32553         27.5248         3.37355 
        2.33166         27.4109         3.35166 
         2.3378         27.3129         3.32994 
        2.34394         27.1823         3.30841 
        2.35007         27.1248         3.28709 
        2.35619         27.0108         3.26599 
        2.36233         26.8328         3.24502 
        2.36848         26.7322          3.2242 
        2.37462         26.6815          3.2036 
        2.38075         26.5118          3.1832 
        2.38689         26.3747         3.16296 
        2.39303         26.3677          3.1429 
        2.39916         26.1715         3.12303 
        2.40529          26.077         3.10334 
        2.41143         25.9777          3.0838 
        2.41757         25.8499         3.06442 
         2.4237         25.7784         3.04525 
        2.42983         25.6482         3.02623 
        2.43598         25.5356         3.00733 
        2.44211         25.4572         2.98863 
        2.44823         25.3112         2.97012 
        2.45437         25.3132         2.95172 
        2.46052          25.149         2.93346 
        2.46665         25.0426         2.91539 
        2.47279         24.8995         2.89747 
        2.47892         24.8319         2.87969 
        2.48507         24.7406         2.86205 
         2.4912         24.6719         2.84459 
