# k  (h/Mpc)    Pcb(k)  (Mpc/h)^3    Pcb_linear(k)  (Mpc/h)^3
     0.00783031         7733.66          7777.8 
       0.013688         9314.34         9498.35 
       0.019231         9464.84         9564.73 
      0.0249154          8829.1         8808.76 
      0.0312784         7547.71         7587.86 
      0.0375637         6342.81         6409.31 
      0.0433917         5517.59         5522.99 
      0.0492413          4838.7         4871.69 
      0.0555754         4395.78         4391.64 
      0.0619321         3965.18         4058.07 
       0.067871          3759.1         3798.85 
      0.0738098         3512.21         3532.76 
      0.0800417         3211.41         3219.02 
      0.0862327         2861.36         2879.45 
      0.0921407         2553.57         2556.76 
      0.0982031         2286.41         2258.36 
       0.104506         2012.07         2006.63 
       0.110769         1840.78         1822.64 
       0.116806         1745.46         1699.89 
       0.122832         1639.35         1614.14 
       0.129052         1568.52         1543.44 
       0.135211         1515.85         1472.72 
       0.141259         1415.78          1391.6 
       0.147318         1307.97         1296.69 
       0.153489         1217.59          1191.7 
       0.159709         1140.43         1087.36 
       0.165845         1030.11          995.38 
       0.171974         989.872         920.241 
       0.178125         938.759          862.92 
       0.184229         874.325         821.246 
        0.19034         855.253           789.5 
       0.196428         828.522         761.865 
       0.202534         777.271          733.11 
       0.208729         761.762         699.878 
       0.214876         728.299         662.515 
       0.220989         678.073         622.858 
       0.227147         656.807         583.364 
        0.23329         626.482         547.271 
       0.239377         609.924         516.607 
       0.245482         576.663         491.482 
       0.251667         552.991         471.089 
       0.257832         546.267         454.257 
       0.263955         517.311         439.177 
       0.270079         499.389         424.151 
        0.27624         478.864         408.099 
       0.282372         466.883         391.009 
        0.28843         461.948         373.452 
       0.294538         437.595         355.895 
       0.300721         421.761          339.14 
        0.30691         413.867         324.033 
       0.313033         394.789         310.989 
       0.319153         387.697           299.7 
       0.325316         378.623         289.696 
        0.33145         369.006         280.543 
       0.337538         355.993         271.757 
       0.343633         345.198          262.92 
       0.349808         335.724         253.787 
       0.355968         328.524         244.578 
       0.362074         318.767          235.55 
       0.368217         314.721         226.833 
       0.374374          307.17         218.657 
       0.380519         294.436         211.178 
       0.386598         290.055         204.437 
       0.392688         282.529          198.24 
        0.39888         275.894         192.362 
       0.405048         270.349          186.76 
       0.411186         267.931          181.31 
       0.417313         262.666         175.936 
       0.423458         255.575         170.595 
       0.429607         249.171          165.35 
       0.435692         244.898         160.327 
       0.441815         239.888          155.49 
       0.447964         233.383         150.901 
       0.454126         229.809         146.585 
       0.460267         226.907         142.536 
       0.466387         222.098         138.711 
        0.47254         219.365         135.034 
       0.478662         212.869         131.496 
       0.484765         210.187         128.054 
       0.490885         206.931          124.68 
       0.497035         204.232         121.375 
       0.503198         201.769         118.157 
       0.509342         196.377         115.058 
       0.515458         193.847         112.098 
       0.521598         189.387         109.257 
       0.527764         187.388          106.53 
       0.533884         186.554         103.934 
           0.54         182.121         101.439 
       0.546137         178.088         99.0212 
       0.552299          176.36         96.6679 
       0.558452         173.275         94.3811 
       0.564573         172.301          92.166 
       0.570708         168.087         90.0089 
       0.576825         165.948         87.9249 
       0.582926         164.166         85.9148 
       0.589034         161.668         83.9694 
       0.595184         160.234         82.0771 
       0.601379         156.972         80.2371 
       0.607522         154.019         78.4745 
       0.613639         152.921         76.7756 
       0.619772         151.058         75.1231 
       0.625918         149.877         73.5133 
       0.632068         146.491         71.9458 
       0.638161         145.068         70.4348 
         0.6443         144.165         68.9553 
       0.650464         141.353         67.5132 
       0.656582         140.595         66.1241 
       0.662703         139.074         64.7755 
       0.668861         136.224         63.4583 
       0.675024         136.236         62.1777 
       0.681124         134.041         60.9462 
       0.687237         132.175         59.7462 
       0.693381         130.976         58.5732 
       0.699536          129.47         57.4298 
       0.705665         127.957         56.3218 
       0.711789         126.366         55.2439 
       0.717957         124.917         54.1866 
        0.72409         123.833         53.1626 
       0.730186         123.533         52.1713 
       0.736317         121.462            51.2 
       0.742472         119.764         50.2501 
       0.748622         117.978         49.3258 
        0.75476         118.263         48.4271 
       0.760888         117.038         47.5527 
       0.767043         114.901         46.6967 
       0.773185         113.662         45.8639 
       0.779291         112.387         45.0563 
       0.785407         111.462          44.267 
       0.791564          110.82         43.4917 
       0.797719         109.304         42.7354 
       0.803834         108.966         42.0019 
       0.809972         108.101          41.283 
       0.816124         106.566         40.5796 
       0.822261         105.478         39.8945 
       0.828378         105.278         39.2274 
       0.834502          103.76         38.5752 
       0.840667         103.207         37.9337 
       0.846816          102.23         37.3087 
       0.852925          101.05         36.7019 
       0.859047         100.485         36.1074 
       0.865192          99.477         35.5242 
       0.871341         98.4481         34.9536 
       0.877463         97.7095         34.3981 
       0.883569         97.5619         33.8562 
       0.889708         96.6335         33.3233 
       0.895864          95.788         32.8006 
       0.902008         94.8244         32.2902 
       0.908149         93.6079          31.791 
       0.914301         93.5329         31.3016 
       0.920448         93.2304          30.823 
       0.926574          91.358         30.3562 
       0.932687         91.2553            29.9 
       0.938823         90.5708         29.4517 
       0.944975         89.5478         29.0115 
       0.951105         88.7804          28.582 
       0.957225         88.6329         28.1619 
       0.963368         87.6635         27.7489 
       0.969511         87.0936         27.3443 
       0.975621         86.2401         26.9499 
       0.981748         85.5863         26.5623 
       0.987916         84.9961           26.18 
        0.99406         84.7097         25.8066 
        1.00019         83.6585         25.4414 
        1.00632         83.0782         25.0835 
        1.01246         82.6349         24.7321 
        1.01859         82.2943          24.388 
        1.02471         81.5399         24.0509 
        1.03085         80.8153         23.7191 
        1.03698         80.3171         23.3943 
        1.04314          79.725         23.0742 
        1.04929         79.3496         22.7609 
        1.05541         78.7825         22.4546 
        1.06154          78.292         22.1533 
        1.06769         77.6404         21.8571 
        1.07382         76.9394         21.5673 
        1.07993         76.7369         21.2835 
        1.08607         76.1175         21.0036 
        1.09222           75.83         20.7285 
        1.09836         75.1112         20.4586 
        1.10449         74.7075         20.1939 
        1.11063         74.1974         19.9336 
        1.11677         73.7748          19.678 
         1.1229         73.1343         19.4273 
        1.12903         72.9077         19.1808 
        1.13518         72.5664         18.9384 
        1.14131         71.9133         18.7003 
        1.14745         71.5305         18.4665 
        1.15359         70.6639         18.2366 
        1.15973         70.6464         18.0105 
        1.16584         70.1556         17.7893 
        1.17197         69.6305         17.5716 
        1.17811         69.2005         17.3568 
        1.18424         68.5274         17.1462 
        1.19038         68.4778         16.9385 
        1.19652         68.0439         16.7344 
        1.20267         67.5461         16.5336 
        1.20881         67.1681         16.3362 
        1.21495         66.7777         16.1423 
        1.22108         66.6053         15.9517 
         1.2272         65.8813         15.7645 
        1.23334         65.7077           15.58 
        1.23949         65.2455         15.3979 
        1.24562         64.7716         15.2193 
        1.25174         64.4509         15.0438 
        1.25789          64.334         14.8706 
        1.26402          63.829         14.7004 
        1.27014         63.5737         14.5333 
        1.27628         62.9811         14.3683 
        1.28244         62.9102         14.2055 
        1.28858           62.43         14.0455 
        1.29471         62.0317         13.8884 
        1.30084         61.4845         13.7338 
        1.30697         61.5796         13.5813 
        1.31312         61.0589         13.4309 
        1.31925         60.6204         13.2833 
        1.32537         60.3457          13.138 
        1.33151         60.0626         12.9944 
        1.33765         59.7439         12.8531 
        1.34378         59.4117         12.7141 
        1.34992         59.1424         12.5771 
        1.35606         58.7047         12.4418 
         1.3622         58.5146         12.3088 
        1.36833         58.1335          12.178 
        1.37445         57.6124         12.0492 
        1.38059         57.5443         11.9219 
        1.38675         56.9599         11.7961 
        1.39288         56.9693         11.6726 
        1.39901         56.4489          11.551 
        1.40515         56.2782         11.4308 
         1.4113         56.1014         11.3123 
        1.41742         55.6928         11.1961 
        1.42355         55.4721         11.0812 
         1.4297         55.1593         10.9676 
        1.43585         54.8216         10.8556 
        1.44198         54.4891         10.7456 
        1.44809          54.164         10.6374 
        1.45423         53.9851         10.5302 
        1.46036         53.6892         10.4248 
        1.46649         53.4523         10.3207 
        1.47263         53.1657          10.218 
        1.47877         52.9804         10.1167 
        1.48491         52.6561         10.0166 
        1.49104         52.2705         9.91814 
        1.49718         52.1094          9.8209 
        1.50333         51.8647         9.72482 
        1.50947          51.613         9.63021 
         1.5156         51.4124         9.53702 
        1.52172         51.0169         9.44505 
        1.52787         50.7726         9.35412 
          1.534         50.5157          9.2645 
        1.54013         50.4738         9.17615 
        1.54627         49.9703         9.08879 
        1.55241         49.7693         9.00256 
        1.55855         49.6238         8.91758 
        1.56467         49.2086         8.83392 
         1.5708         49.1685         8.75111 
        1.57695         48.8551         8.66924 
        1.58308         48.5637          8.5886 
        1.58922         48.3719         8.50893 
        1.59535         48.2528         8.43031 
         1.6015         48.1425         8.35257 
        1.60764          47.774         8.27585 
        1.61376         47.5156         8.20031 
        1.61989         47.1774         8.12565 
        1.62604         47.0412         8.05175 
        1.63218         46.7344         7.97881 
        1.63831         46.6578         7.90695 
        1.64444         46.4381         7.83594 
        1.65059         46.1438         7.76564 
        1.65673         45.8991         7.69628 
        1.66285         45.7871         7.62796 
        1.66898         45.4099         7.56044 
        1.67512         45.2863         7.49362 
        1.68127         45.1026         7.42754 
         1.6874         44.8628          7.3624 
        1.69353         44.7244         7.29809 
        1.69967         44.5358          7.2344 
        1.70581         44.2118         7.17149 
        1.71193         44.0501         7.10957 
        1.71806         43.8537         7.04825 
        1.72421         43.6755         6.98753 
        1.73035         43.4477          6.9276 
        1.73649         43.1582         6.86839 
        1.74262          42.889         6.80991 
        1.74876         42.9442         6.75208 
        1.75489         42.6044         6.69504 
        1.76101         42.4497         6.63868 
        1.76715         42.3359         6.58289 
        1.77329         41.9283         6.52767 
        1.77943         41.9531         6.47306 
        1.78557         41.7498         6.41916 
        1.79171         41.5238         6.36587 
        1.79785         41.3434         6.31317 
        1.80399         41.1252         6.26108 
        1.81012         40.9823         6.20964 
        1.81625         40.6867         6.15881 
        1.82239         40.5278         6.10847 
        1.82853         40.4029         6.05872 
        1.83466         40.1928         6.00958 
        1.84078         40.0427         5.96103 
        1.84692         39.8173         5.91294 
        1.85306         39.6126         5.86532 
         1.8592          39.499         5.81829 
        1.86533          39.322         5.77182 
        1.87147         39.1347         5.72579 
        1.87761         38.9132         5.68025 
        1.88375         38.7744         5.63525 
        1.88988         38.6477         5.59079 
        1.89601         38.4098         5.54679 
        1.90215          38.235         5.50322 
        1.90829         38.0972         5.46015 
        1.91442         37.8971         5.41753 
        1.92056         37.7722          5.3754 
         1.9267         37.6828         5.33368 
        1.93284         37.4384         5.29238 
        1.93897         37.3343         5.25159 
        1.94509         37.0609         5.21132 
        1.95123         36.9802         5.17137 
        1.95737         36.7547         5.13181 
        1.96349         36.7003         5.09277 
        1.96964         36.4745         5.05402 
        1.97578         36.2901         5.01566 
        1.98192         36.1156         4.97777 
        1.98805         35.9581         4.94027 
        1.99419         35.8443         4.90316 
        2.00033         35.6765         4.86641 
        2.00647         35.5939         4.83004 
         2.0126         35.3552         4.79411 
        2.01874         35.2343         4.75849 
        2.02488         35.0156          4.7232 
        2.03101         34.9158         4.68834 
        2.03714          34.765         4.65385 
        2.04328         34.6476         4.61968 
        2.04941          34.449         4.58588 
        2.05554         34.3232         4.55244 
        2.06167         34.1766         4.51929 
        2.06781         34.0219         4.48646 
        2.07396         33.8718         4.45392 
        2.08009         33.7327         4.42175 
        2.08622         33.5913         4.38994 
        2.09237         33.4504         4.35837 
        2.09851         33.3123         4.32712 
        2.10464         33.1599         4.29622 
        2.11077         33.0701         4.26566 
        2.11691         32.8119         4.23533 
        2.12305         32.6728          4.2053 
        2.12918         32.5896         4.17562 
        2.13531         32.4475         4.14624 
        2.14145         32.3322         4.11706 
         2.1476         32.1768         4.08814 
        2.15372         32.0991         4.05963 
        2.15985         31.8699         4.03137 
        2.16599         31.7092          4.0033 
        2.17213         31.6267         3.97552 
        2.17827         31.4928         3.94802 
         2.1844         31.3505          3.9208 
        2.19054         31.2552         3.89382 
        2.19666         31.0594         3.86714 
         2.2028         30.9513         3.84069 
        2.20893          30.877         3.81447 
        2.21508         30.7372         3.78846 
        2.22122         30.6031         3.76269 
        2.22736         30.4187         3.73721 
        2.23349         30.3341         3.71197 
        2.23962         30.2064         3.68695 
        2.24577         30.0847         3.66215 
         2.2519         29.9154          3.6376 
        2.25802         29.8031         3.61332 
        2.26417         29.6667         3.58919 
        2.27031          29.579         3.56526 
        2.27644         29.5216         3.54162 
        2.28257         29.3191          3.5182 
        2.28872         29.2689         3.49494 
        2.29486         29.0953          3.4719 
        2.30099         28.9268         3.44911 
        2.30712         28.8611         3.42651 
        2.31326         28.7233         3.40408 
         2.3194         28.5987         3.38187 
        2.32553         28.5053         3.35989 
        2.33166         28.3794         3.33811 
         2.3378         28.2579          3.3165 
        2.34394         28.1496         3.29507 
        2.35007         28.0848         3.27386 
        2.35619         27.9704         3.25286 
        2.36233         27.7926           3.232 
        2.36848         27.7096         3.21128 
        2.37462         27.6258         3.19078 
        2.38075         27.4514         3.17049 
        2.38689         27.3362         3.15035 
        2.39303         27.2966         3.13039 
        2.39916         27.0971         3.11062 
        2.40529         27.0201         3.09103 
        2.41143         26.9008         3.07159 
        2.41757          26.805          3.0523 
         2.4237         26.7124         3.03322 
        2.42983         26.5568         3.01431 
        2.43598         26.4496          2.9955 
        2.44211         26.3645         2.97689 
        2.44823         26.2293         2.95848 
        2.45437          26.218         2.94017 
        2.46052         26.0531           2.922 
        2.46665         25.9392         2.90402 
        2.47279         25.7939          2.8862 
        2.47892         25.7252         2.86851 
        2.48507         25.6301         2.85095 
         2.4912         25.5557         2.83358 
