# k  (h/Mpc)    P(k)  (Mpc/h)^3    P_linear(k)  (Mpc/h)^3
     0.00783031         20021.8         20320.2 
       0.013688         24802.6         24519.9 
       0.019231         24609.5         24562.7 
      0.0249154         22060.6         22618.1 
      0.0312784         19324.6         19612.9 
      0.0375637         16742.5         16786.7 
      0.0433917         14349.3         14691.6 
      0.0492413         12991.8         13144.7 
      0.0555754         11484.1         11950.7 
      0.0619321         10988.5         11024.6 
       0.067871         9850.74         10219.5 
      0.0738098          9047.2         9371.06 
      0.0800417         8040.17         8422.01 
      0.0862327         7270.21         7479.34 
      0.0921407         6638.43         6658.17 
      0.0982031         5926.61          5955.5 
       0.104506         5574.13         5397.98 
       0.110769         5155.34         4998.84 
       0.116806         4860.39         4714.48 
       0.122832         4612.96         4475.96 
       0.129052         4262.33         4230.63 
       0.135211          4023.3         3962.59 
       0.141259          3843.1         3674.26 
       0.147318         3613.26          3377.9 
       0.153489         3305.73         3093.22 
       0.159709         3127.71         2845.15 
       0.165845         3020.56         2648.34 
       0.171974          2860.5         2496.73 
       0.178125         2722.72         2378.03 
       0.184229         2595.64         2277.76 
        0.19034          2471.1         2180.49 
       0.196428         2411.79         2077.51 
       0.202534         2309.82         1965.85 
       0.208729         2207.87          1847.8 
       0.214876         2127.41         1733.09 
       0.220989         2051.44         1628.42 
       0.227147         1972.43         1537.04 
        0.23329         1896.38         1460.94 
       0.239377         1870.38         1398.11 
       0.245482         1759.66         1343.52 
       0.251667         1749.81         1292.19 
       0.257832          1679.4         1241.28 
       0.263955         1622.54         1189.19 
       0.270079         1568.85         1135.76 
        0.27624         1547.96         1082.21 
       0.282372         1485.46         1031.24 
        0.28843         1483.59         984.879 
       0.294538         1412.43         943.053 
       0.300721          1400.8         905.664 
        0.30691         1352.04          872.24 
       0.313033         1323.31         841.822 
       0.319153         1307.24         812.744 
       0.325316         1263.31         783.927 
        0.33145         1237.25         755.336 
       0.337538         1211.75         727.238 
       0.343633          1190.3         699.843 
       0.349808          1152.2         673.404 
       0.355968         1142.37          648.78 
       0.362074         1133.76         626.223 
       0.368217         1095.92         605.315 
       0.374374         1059.85         585.793 
       0.380519         1062.72         567.366 
       0.386598         1030.42         549.828 
       0.392688         1025.48         532.696 
        0.39888         997.171         515.682 
       0.405048         988.068         499.168 
       0.411186         973.516         483.293 
       0.417313         952.789         468.151 
       0.423458         935.861         453.742 
       0.429607         926.173         440.116 
       0.435692         907.983          427.38 
       0.441815         899.134         415.188 
       0.447964         881.707         403.458 
       0.454126          876.81         392.129 
       0.460267         854.076         381.194 
       0.466387         841.954          370.61 
        0.47254         842.847         360.303 
       0.478662         829.494         350.411 
       0.484765         807.751         340.928 
       0.490885         803.102         331.804 
       0.497035         785.883         323.027 
       0.503198          781.58         314.606 
       0.509342         772.404         306.539 
       0.515458         768.845         298.796 
       0.521598         750.412         291.283 
       0.527764         737.964         283.982 
       0.533884         734.656          276.96 
           0.54         729.487         270.162 
       0.546137         719.517         263.561 
       0.552299          712.37          257.16 
       0.558452         704.997         250.997 
       0.564573         697.307         245.081 
       0.570708         689.385         239.353 
       0.576825         672.742         233.831 
       0.582926         675.758         228.502 
       0.589034         667.732         223.332 
       0.595184         661.697         218.287 
       0.601379         653.046         213.358 
       0.607522         643.309         208.615 
       0.613639          642.67         204.034 
       0.619772         631.573          199.58 
       0.625918         626.236         195.255 
       0.632068         618.755          191.06 
       0.638161         615.478          187.03 
         0.6443         606.157          183.09 
       0.650464         604.446          179.25 
       0.656582         597.612         175.547 
       0.662703         596.001         171.946 
       0.668861         586.469         168.426 
       0.675024         580.996         165.001 
       0.681124         577.301         161.707 
       0.687237          573.45         158.497 
       0.693381         565.657          155.36 
       0.699536         555.773         152.303 
       0.705665         555.971         149.343 
       0.711789         552.494         146.464 
       0.717957         547.622         143.642 
        0.72409         544.669         140.911 
       0.730186         536.866         138.267 
       0.736317         534.154         135.677 
       0.742472         529.911         133.144 
       0.748622          524.57         130.679 
        0.75476         516.592         128.282 
       0.760888         513.056         125.948 
       0.767043         511.659         123.664 
       0.773185         507.333         121.442 
       0.779291         502.304         119.287 
       0.785407         497.635         117.182 
       0.791564         493.205         115.114 
       0.797719         491.732         113.097 
       0.803834         484.992         111.142 
       0.809972         483.604         109.226 
       0.816124         482.012         107.352 
       0.822261          475.03         105.526 
       0.828378         472.563         103.749 
       0.834502         467.412         102.011 
       0.840667         463.704         100.302 
       0.846816         461.428         98.6372 
       0.852925         458.352         97.0208 
       0.859047         456.387         95.4373 
       0.865192         450.076         93.8841 
       0.871341          446.59         92.3646 
       0.877463         446.228         90.8857 
       0.883569         441.281          89.443 
       0.889708         439.244         88.0245 
       0.895864         438.179         86.6331 
       0.902008         434.118         85.2748 
       0.908149         427.246         83.9465 
       0.914301         426.143         82.6445 
       0.920448         424.289         81.3714 
       0.926574         417.584         80.1297 
       0.932687         416.189         78.9166 
       0.938823         412.569         77.7243 
       0.944975         412.105          76.554 
       0.951105         408.143         75.4122 
       0.957225         405.037         74.2956 
       0.963368         400.402         73.1979 
       0.969511         399.472         72.1224 
       0.975621         397.273         71.0744 
       0.981748         393.739         70.0446 
       0.987916         391.699         69.0288 
        0.99406         386.404          68.037 
        1.00019          384.49         67.0667 
        1.00632         382.853         66.1163 
        1.01246         379.665         65.1829 
        1.01859         378.797         64.2691 
        1.02471         374.298         63.3739 
        1.03085         372.708         62.4928 
        1.03698         370.329         61.6303 
        1.04314         367.717         60.7804 
        1.04929         363.984         59.9486 
        1.05541         364.594         59.1358 
        1.06154         358.895          58.336 
        1.06769         357.526         57.5498 
        1.07382         354.471         56.7808 
        1.07993         352.856         56.0275 
        1.08607         351.775         55.2849 
        1.09222         347.336          54.555 
        1.09836         344.892         53.8391 
        1.10449         343.186         53.1369 
        1.11063         338.376         52.4464 
        1.11677         339.732         51.7685 
         1.1229          336.51         51.1038 
        1.12903         334.454         50.4501 
        1.13518         330.877         49.8074 
        1.14131          329.48         49.1762 
        1.14745         326.969         48.5564 
        1.15359         325.344         47.9471 
        1.15973         323.481         47.3481 
        1.16584         320.538          46.762 
        1.17197         319.889          46.185 
        1.17811         316.741          45.616 
        1.18424          313.92         45.0582 
        1.19038         312.864         44.5082 
        1.19652         310.835         43.9676 
        1.20267         309.613         43.4359 
        1.20881         306.919         42.9132 
        1.21495         304.827         42.3999 
        1.22108         302.904         41.8952 
         1.2272         301.075         41.3998 
        1.23334          299.67         40.9113 
        1.23949         296.193         40.4295 
        1.24562         294.976         39.9569 
        1.25174         293.858         39.4925 
        1.25789         290.651          39.034 
        1.26402         289.069         38.5837 
        1.27014         287.197         38.1416 
        1.27628         284.678          37.705 
        1.28244         285.119         37.2745 
        1.28858          282.11         36.8513 
        1.29471         281.138         36.4355 
        1.30084         278.213         36.0266 
        1.30697         277.651         35.6233 
        1.31312         274.407         35.2257 
        1.31925         272.986         34.8353 
        1.32537         272.256         34.4513 
        1.33151         269.577         34.0716 
        1.33765          267.22          33.698 
        1.34378         266.714         33.3306 
        1.34992         265.211         32.9685 
        1.35606         263.439          32.611 
         1.3622         261.079         32.2594 
        1.36833         260.164         31.9138 
        1.37445         258.029         31.5735 
        1.38059         256.362          31.237 
        1.38675         254.809         30.9047 
        1.39288         253.456         30.5786 
        1.39901          251.65         30.2573 
        1.40515         250.729         29.9398 
         1.4113         248.723         29.6271 
        1.41742         246.823           29.32 
        1.42355         245.473         29.0167 
         1.4297         243.881         28.7168 
        1.43585         242.543         28.4212 
        1.44198         241.865          28.131 
        1.44809         239.166         27.8453 
        1.45423         237.835         27.5625 
        1.46036          236.56         27.2842 
        1.46649         235.409         27.0096 
        1.47263         233.946         26.7386 
        1.47877         232.096         26.4714 
        1.48491         229.805         26.2074 
        1.49104          229.19         25.9476 
        1.49718         227.399         25.6911 
        1.50333          226.76         25.4377 
        1.50947         225.112         25.1882 
         1.5156         223.249         24.9425 
        1.52172          222.52            24.7 
        1.52787         220.618         24.4602 
          1.534         219.989         24.2239 
        1.54013         217.821          23.991 
        1.54627         217.077         23.7607 
        1.55241         215.664         23.5334 
        1.55855          213.32         23.3094 
        1.56467         213.503         23.0889 
         1.5708         211.737         22.8706 
        1.57695         210.312         22.6549 
        1.58308         208.958         22.4424 
        1.58922         207.179         22.2324 
        1.59535         206.096         22.0252 
         1.6015          204.82         21.8204 
        1.60764         203.979         21.6183 
        1.61376         202.772         21.4193 
        1.61989         201.543         21.2226 
        1.62604         199.963          21.028 
        1.63218         199.138         20.8359 
        1.63831         197.587         20.6466 
        1.64444         196.528         20.4597 
        1.65059         195.669         20.2746 
        1.65673         194.289          20.092 
        1.66285         192.829         19.9121 
        1.66898         192.024         19.7344 
        1.67512         190.903         19.5585 
        1.68127         189.101         19.3846 
         1.6874         188.391         19.2132 
        1.69353         187.171          19.044 
        1.69967         185.904         18.8764 
        1.70581         184.972         18.7108 
        1.71193         183.488         18.5479 
        1.71806         182.921         18.3866 
        1.72421         181.484         18.2269 
        1.73035         180.917         18.0693 
        1.73649         179.655         17.9135 
        1.74262         178.383         17.7597 
        1.74876         177.072         17.6076 
        1.75489         176.468         17.4576 
        1.76101         174.946         17.3094 
        1.76715         174.245         17.1628 
        1.77329         173.107         17.0176 
        1.77943         172.197          16.874 
        1.78557         170.935         16.7323 
        1.79171         170.239         16.5922 
        1.79785         168.854         16.4537 
        1.80399         168.039         16.3168 
        1.81012         167.076         16.1816 
        1.81625          166.21          16.048 
        1.82239         164.993         15.9157 
        1.82853          164.22          15.785 
        1.83466         163.388         15.6559 
        1.84078         162.379         15.5283 
        1.84692         161.249         15.4019 
        1.85306         160.411         15.2768 
         1.8592         159.526         15.1533 
        1.86533         158.848         15.0312 
        1.87147         157.691         14.9103 
        1.87761         156.704         14.7907 
        1.88375         155.861         14.6725 
        1.88988         154.245         14.5558 
        1.89601         154.208         14.4403 
        1.90215         153.233         14.3259 
        1.90829         151.909         14.2128 
        1.91442         151.434         14.1009 
        1.92056         150.399         13.9903 
         1.9267         149.234         13.8808 
        1.93284         148.544         13.7724 
        1.93897         147.836         13.6653 
        1.94509         147.061         13.5597 
        1.95123         146.052         13.4548 
        1.95737         145.125          13.351 
        1.96349         144.488         13.2486 
        1.96964         143.362         13.1469 
        1.97578         142.576         13.0463 
        1.98192          141.67         12.9469 
        1.98805         140.989         12.8485 
        1.99419         140.114         12.7512 
        2.00033         139.381         12.6548 
        2.00647         138.602         12.5594 
         2.0126         137.525         12.4652 
        2.01874         137.236         12.3718 
        2.02488         136.554         12.2792 
        2.03101         135.501         12.1878 
        2.03714         134.768         12.0974 
        2.04328         133.799         12.0078 
        2.04941         133.332         11.9192 
        2.05554         132.133         11.8315 
        2.06167          131.67         11.7446 
        2.06781         130.781         11.6586 
        2.07396         130.257         11.5733 
        2.08009         129.192          11.489 
        2.08622         128.349         11.4056 
        2.09237         127.806         11.3229 
        2.09851         127.103          11.241 
        2.10464          126.59           11.16 
        2.11077         125.874           11.08 
        2.11691         125.052         11.0005 
        2.12305         124.375         10.9218 
        2.12918          123.71         10.8441 
        2.13531         123.018         10.7671 
        2.14145         122.069         10.6907 
         2.1476         121.296         10.6149 
        2.15372         121.108         10.5403 
        2.15985         120.172         10.4662 
        2.16599         119.513         10.3927 
        2.17213         119.036           10.32 
        2.17827         118.088          10.248 
         2.1844         117.514         10.1767 
        2.19054         117.025         10.1061 
        2.19666         116.212         10.0362 
         2.2028         115.559         9.96699 
        2.20893         115.089         9.89836 
        2.21508         114.287         9.83029 
        2.22122          113.63         9.76284 
        2.22736         113.002         9.69616 
        2.23349         112.529         9.63011 
        2.23962         111.877         9.56465 
        2.24577          111.14         9.49973 
         2.2519         110.625         9.43551 
        2.25802         109.815         9.37198 
        2.26417         109.446         9.30886 
        2.27031         108.769         9.24625 
        2.27644         108.207         9.18441 
        2.28257         107.619         9.12313 
        2.28872         106.942         9.06229 
        2.29486         106.303         9.00202 
        2.30099         105.778         8.94242 
        2.30712         105.214         8.88333 
        2.31326         104.681         8.82467 
         2.3194         103.917         8.76658 
        2.32553         103.295          8.7091 
        2.33166         102.854         8.65217 
         2.3378         102.502         8.59566 
        2.34394           101.7         8.53964 
        2.35007         101.208         8.48419 
        2.35619         100.598         8.42931 
        2.36233         100.182         8.37478 
        2.36848         99.6197         8.32062 
        2.37462         99.1002         8.26705 
        2.38075         98.5501           8.214 
        2.38689         98.0755         8.16137 
        2.39303         97.3175         8.10921 
        2.39916         96.9379         8.05756 
        2.40529         96.6877         8.00636 
        2.41143         96.0189         7.95556 
        2.41757         95.4627         7.90519 
         2.4237         94.9259         7.85534 
        2.42983         94.5359         7.80592 
        2.43598         93.8195          7.7568 
        2.44211          93.414         7.70818 
        2.44823         92.8261         7.66008 
        2.45437         92.5458         7.61227 
        2.46052          91.833         7.56482 
        2.46665          91.468         7.51785 
        2.47279         91.0631          7.4713 
        2.47892         90.4704         7.42511 
        2.48507         90.0582         7.37927 
         2.4912         89.5664          7.3339 
