# k  (h/Mpc)    P(k)  (Mpc/h)^3    P_linear(k)  (Mpc/h)^3
     0.00783031           12129         12236.8 
       0.013688           14071         14428.4 
       0.019231         13804.6         13998.8 
      0.0249154           12430         12389.5 
      0.0312784           10205         10265.3 
      0.0375637         8374.55         8474.07 
      0.0433917         7273.29         7280.18 
      0.0492413         6443.12         6491.27 
      0.0555754         5937.58         5938.65 
      0.0619321         5358.41         5507.74 
       0.067871         5019.38         5086.19 
      0.0738098         4575.13         4596.27 
      0.0800417            4043         4032.79 
      0.0862327         3498.58         3491.13 
      0.0921407         3089.37         3052.44 
      0.0982031         2790.37         2713.83 
       0.104506         2510.03         2478.56 
       0.110769         2368.94         2331.09 
       0.116806         2291.42         2228.24 
       0.122832         2159.54         2125.75 
       0.129052         2029.98         1995.26 
       0.135211         1918.02          1837.5 
       0.141259          1735.9         1668.66 
       0.147318         1570.61          1506.5 
       0.153489         1452.63         1366.53 
       0.159709         1378.91         1259.97 
       0.165845         1268.92         1186.92 
       0.171974         1247.17         1136.26 
       0.178125          1205.4         1095.06 
       0.184229         1122.84         1052.34 
        0.19034         1093.69         1001.12 
       0.196428         1047.49         941.156 
       0.202534         965.565         876.462 
       0.208729         937.194         812.869 
       0.214876         887.426         757.588 
       0.220989         831.343         713.265 
       0.227147         810.626         679.064 
        0.23329         780.325         652.601 
       0.239377          771.17         630.075 
       0.245482         731.929         607.596 
       0.251667         702.865         582.623 
       0.257832         690.816         555.128 
       0.263955         651.366         526.435 
       0.270079         625.657         498.264 
        0.27624         598.088         472.367 
       0.282372         584.717         450.086 
        0.28843         577.922         431.632 
       0.294538         548.454         415.909 
       0.300721         533.318         401.749 
        0.30691         523.029         388.146 
       0.313033         499.169         374.404 
       0.319153         490.954         360.134 
       0.325316         481.361         345.424 
        0.33145         468.797         331.011 
       0.337538         450.957         317.495 
       0.343633         437.789         305.148 
       0.349808         426.443         293.995 
       0.355968           418.1         284.042 
       0.362074         403.473         275.035 
       0.368217         400.435         266.428 
       0.374374         392.411         257.968 
       0.380519         376.244         249.543 
       0.386598         371.667         241.214 
       0.392688         362.002         233.032 
        0.39888         352.819         225.029 
       0.405048         345.288         217.515 
       0.411186         343.825         210.584 
       0.417313         338.364         204.161 
       0.423458         328.843         198.138 
       0.429607         319.344         192.424 
       0.435692         314.495         186.962 
       0.441815          308.68         181.579 
       0.447964         301.289         176.288 
       0.454126         297.545         171.111 
       0.460267          292.77         166.111 
       0.466387         286.442         161.336 
        0.47254          282.74          156.78 
       0.478662         275.854          152.48 
       0.484765         272.045         148.401 
       0.490885         268.795         144.496 
       0.497035         263.751         140.721 
       0.503198         262.444         137.057 
       0.509342         255.956         133.499 
       0.515458          251.69         130.054 
       0.521598         246.924         126.703 
       0.527764         243.906         123.456 
       0.533884         242.283         120.353 
           0.54         238.044         117.371 
       0.546137         232.634         114.497 
       0.552299         231.139         111.724 
       0.558452           227.2         109.056 
       0.564573         225.772         106.487 
       0.570708         221.006         103.986 
       0.576825         217.559         101.563 
       0.582926         215.692          99.218 
       0.589034         212.161         96.9434 
       0.595184         210.579         94.7278 
       0.601379          207.09         92.5701 
       0.607522         202.447         90.4999 
       0.613639         201.548         88.5043 
       0.619772         200.113         86.5663 
       0.625918         197.317         84.6843 
       0.632068         193.818         82.8581 
       0.638161         192.688         81.1022 
         0.6443         190.419          79.384 
       0.650464         187.251         77.7081 
       0.656582         185.649         76.0915 
       0.662703         184.424         74.5199 
       0.668861         180.594          72.984 
       0.675024          180.19         71.4909 
       0.681124         177.681         70.0559 
       0.687237         176.139         68.6588 
       0.693381         173.421         67.2942 
       0.699536         172.289         65.9651 
       0.705665         170.437         64.6779 
       0.711789          168.21         63.4264 
       0.717957          166.69         62.1992 
        0.72409         164.507          61.011 
       0.730186         165.162         59.8611 
       0.736317         162.545         58.7344 
       0.742472         160.254         57.6328 
       0.748622         158.065         56.5605 
        0.75476         158.504         55.5181 
       0.760888         156.346         54.5039 
       0.767043         153.778         53.5112 
       0.773185         152.464         52.5455 
       0.779291         150.832         51.6094 
       0.785407         149.988         50.6949 
       0.791564         148.648         49.7969 
       0.797719         146.202         48.9213 
       0.803834         146.811         48.0725 
       0.809972         145.118         47.2408 
       0.816124         142.617         46.4271 
       0.822261         141.861         45.6349 
       0.828378         141.351         44.8637 
       0.834502         139.692         44.1097 
       0.840667         139.281         43.3683 
       0.846816         137.009         42.6461 
       0.852925         136.261         41.9451 
       0.859047          134.98         41.2583 
       0.865192         134.389         40.5849 
       0.871341         132.934          39.926 
       0.877463         131.663         39.2849 
       0.883569         131.638         38.6596 
       0.889708         130.318         38.0448 
       0.895864         128.992         37.4418 
       0.902008         127.662         36.8532 
       0.908149         126.376         36.2777 
       0.914301         125.808         35.7137 
       0.920448         125.706         35.1622 
       0.926574         123.551         34.6243 
       0.932687          123.48         34.0989 
       0.938823         122.478         33.5826 
       0.944975         121.599         33.0759 
       0.951105         120.396         32.5814 
       0.957225         119.777          32.098 
       0.963368         118.814         31.6227 
       0.969511         117.794         31.1571 
       0.975621         116.372         30.7034 
       0.981748         115.938         30.2576 
       0.987916          115.27         29.8179 
        0.99406         114.622         29.3886 
        1.00019         113.759         28.9687 
        1.00632         112.774         28.5573 
        1.01246         112.126         28.1534 
        1.01859         111.399          27.758 
        1.02471         110.642         27.3707 
        1.03085         109.689         26.9894 
        1.03698         108.864         26.6163 
        1.04314         108.479         26.2486 
        1.04929         107.948         25.8888 
        1.05541         107.151         25.5371 
        1.06154         106.146         25.1912 
        1.06769         105.584         24.8512 
        1.07382         105.015         24.5186 
        1.07993         104.266         24.1929 
        1.08607         103.754         23.8717 
        1.09222         102.926         23.5561 
        1.09836         102.219         23.2466 
        1.10449         101.626         22.9431 
        1.11063         100.892         22.6446 
        1.11677         100.381         22.3516 
         1.1229         99.4402         22.0643 
        1.12903         98.8724         21.7819 
        1.13518         98.1989         21.5041 
        1.14131         97.8032         21.2314 
        1.14745         97.2711         20.9636 
        1.15359         96.2944         20.7003 
        1.15973         95.9918         20.4415 
        1.16584         95.3401         20.1883 
        1.17197         94.9076          19.939 
        1.17811          94.072         19.6932 
        1.18424         93.5513         19.4522 
        1.19038         93.1151         19.2146 
        1.19652         92.6191         18.9811 
        1.20267         91.9451         18.7514 
        1.20881         91.2645         18.5256 
        1.21495         90.9269         18.3039 
        1.22108         90.4175         18.0858 
         1.2272         89.8122         17.8718 
        1.23334         89.5125         17.6608 
        1.23949         88.9302         17.4528 
        1.24562         88.1775         17.2486 
        1.25174          87.994          17.048 
        1.25789         87.2499         16.8501 
        1.26402         86.9507         16.6556 
        1.27014         86.2163         16.4646 
        1.27628         85.7867         16.2761 
        1.28244         85.6029         16.0902 
        1.28858         84.8148         15.9075 
        1.29471         84.3744          15.728 
        1.30084          83.723         15.5514 
        1.30697         83.4653         15.3773 
        1.31312         82.9791         15.2056 
        1.31925          82.322         15.0371 
        1.32537         81.9916         14.8713 
        1.33151         81.8959         14.7074 
        1.33765         81.1503         14.5461 
        1.34378         80.7704         14.3875 
        1.34992         80.4834         14.2312 
        1.35606         79.9595         14.0769 
         1.3622         79.7567         13.9252 
        1.36833         79.0023          13.776 
        1.37445         78.7239         13.6291 
        1.38059         78.3215          13.484 
        1.38675         77.7118         13.3405 
        1.39288          77.306         13.1998 
        1.39901         76.9157         13.0611 
        1.40515         76.5214         12.9242 
         1.4113         76.1202         12.7892 
        1.41742         75.7425         12.6567 
        1.42355         75.4767         12.5258 
         1.4297         74.9466         12.3964 
        1.43585         74.6411         12.2689 
        1.44198         74.0296         12.1437 
        1.44809         73.5496         12.0204 
        1.45423         73.6139         11.8984 
        1.46036         73.0014         11.7783 
        1.46649         72.4957         11.6598 
        1.47263         72.1038         11.5429 
        1.47877         71.8412         11.4276 
        1.48491         71.4052         11.3137 
        1.49104         70.8993         11.2016 
        1.49718         70.6582          11.091 
        1.50333         70.3997         10.9816 
        1.50947         70.0705          10.874 
         1.5156         69.8356         10.7679 
        1.52172          69.169         10.6633 
        1.52787         68.9008         10.5599 
          1.534         68.5393         10.4579 
        1.54013         68.3568         10.3574 
        1.54627         67.7414         10.2581 
        1.55241         67.7206           10.16 
        1.55855         66.9977         10.0634 
        1.56467         66.5875         9.96826 
         1.5708         66.3857         9.87411 
        1.57695         66.0729         9.78103 
        1.58308         65.7658         9.68936 
        1.58922         65.5652         9.59881 
        1.59535         65.3784         9.50946 
         1.6015         64.8861         9.42111 
        1.60764          64.547         9.33393 
        1.61376         64.3129          9.2481 
        1.61989          63.747         9.16328 
        1.62604         63.6311         9.07933 
        1.63218         63.3122         8.99649 
        1.63831         63.0296         8.91487 
        1.64444         62.7322         8.83424 
        1.65059         62.3305         8.75441 
        1.65673         62.0942         8.67566 
        1.66285         61.6611         8.59809 
        1.66898          61.283         8.52145 
        1.67512          60.993          8.4456 
        1.68127         60.8907          8.3706 
         1.6874         60.4821         8.29668 
        1.69353         60.1548          8.2237 
        1.69967           59.92         8.15142 
        1.70581         59.6278         8.08003 
        1.71193          59.249         8.00978 
        1.71806         59.1069          7.9402 
        1.72421         58.8062         7.87132 
        1.73035         58.4748         7.80333 
        1.73649         58.1658         7.73616 
        1.74262         57.8205         7.66983 
        1.74876         57.6749         7.60424 
        1.75489         57.3569         7.53955 
        1.76101         57.1019         7.47563 
        1.76715         56.7697         7.41236 
        1.77329         56.4684         7.34975 
        1.77943         56.4046         7.28784 
        1.78557         56.0638         7.22673 
        1.79171         55.6624         7.16631 
        1.79785         55.4424         7.10657 
        1.80399         55.2788         7.04752 
        1.81012         54.9196         6.98922 
        1.81625         54.6767         6.93161 
        1.82239         54.3658         6.87456 
        1.82853         54.1488         6.81819 
        1.83466         53.8427         6.76249 
        1.84078         53.5969         6.70748 
        1.84692         53.5519         6.65299 
        1.85306         53.2021         6.59904 
         1.8592          52.916         6.54578 
        1.86533         52.6794         6.49313 
        1.87147         52.3766           6.441 
        1.87761          52.089         6.38942 
        1.88375         51.9607         6.33846 
        1.88988         51.5943         6.28812 
        1.89601         51.5101         6.23829 
        1.90215         51.1243         6.18897 
        1.90829         50.9091          6.1402 
        1.91442         50.5982         6.09195 
        1.92056         50.5219         6.04427 
         1.9267         50.2269         5.99705 
        1.93284         50.0213          5.9503 
        1.93897         49.6679         5.90414 
        1.94509         49.4974         5.85857 
        1.95123         49.2741         5.81337 
        1.95737         49.1579         5.76861 
        1.96349         48.8718         5.72443 
        1.96964         48.5998         5.68059 
        1.97578         48.3485         5.63719 
        1.98192         48.0728         5.59433 
        1.98805         47.7733         5.55191 
        1.99419         47.7633         5.50992 
        2.00033         47.4572         5.46835 
        2.00647         47.2237         5.42723 
         2.0126          47.049         5.38659 
        2.01874         46.9718          5.3463 
        2.02488          46.653          5.3064 
        2.03101          46.462         5.26697 
        2.03714         46.1972         5.22798 
        2.04328         46.0209         5.18934 
        2.04941         45.6225         5.15113 
        2.05554         45.5507         5.11333 
        2.06167         45.3723         5.07585 
        2.06781         45.1949         5.03874 
        2.07396         44.8885         5.00196 
        2.08009         44.7231          4.9656 
        2.08622         44.5568         4.92964 
        2.09237         44.3312         4.89398 
        2.09851         44.0206         4.85865 
        2.10464         43.8487         4.82374 
        2.11077         43.7184         4.78921 
        2.11691         43.4995         4.75494 
        2.12305         43.3051           4.721 
        2.12918         43.0554         4.68747 
        2.13531         42.8338         4.65427 
        2.14145         42.6878         4.62132 
         2.1476         42.6686         4.58864 
        2.15372         42.3647         4.55644 
        2.15985         42.0985         4.52452 
        2.16599         41.9156         4.49282 
        2.17213         41.7602         4.46145 
        2.17827         41.5966         4.43039 
         2.1844          41.282         4.39965 
        2.19054          41.307         4.36919 
        2.19666         41.0454         4.33906 
         2.2028         40.7612          4.3092 
        2.20893         40.6168         4.27959 
        2.21508         40.4025         4.25024 
        2.22122         40.2037         4.22114 
        2.22736         40.0247         4.19238 
        2.23349         39.8951          4.1639 
        2.23962         39.7552         4.13566 
        2.24577         39.5355         4.10767 
         2.2519         39.3137         4.07997 
        2.25802         39.1207         4.05256 
        2.26417         38.9378         4.02534 
        2.27031         38.8157         3.99834 
        2.27644         38.6772         3.97166 
        2.28257          38.438         3.94523 
        2.28872         38.3473         3.91899 
        2.29486         38.1364         3.89299 
        2.30099         37.9244         3.86728 
        2.30712         37.7658          3.8418 
        2.31326         37.6521          3.8165 
         2.3194          37.463         3.79144 
        2.32553         37.2868         3.76664 
        2.33166         37.1157         3.74208 
         2.3378         36.9002         3.71771 
        2.34394         36.7968         3.69355 
        2.35007         36.6449         3.66963 
        2.35619         36.4477         3.64595 
        2.36233         36.2689         3.62243 
        2.36848         36.1627         3.59906 
        2.37462         35.8982         3.57596 
        2.38075         35.8447         3.55307 
        2.38689         35.6507         3.53037 
        2.39303         35.5057         3.50787 
        2.39916         35.3257         3.48559 
        2.40529         35.2013          3.4635 
        2.41143         35.0786         3.44159 
        2.41757         34.9331         3.41986 
         2.4237         34.7536         3.39835 
        2.42983         34.5867         3.37703 
        2.43598         34.4377         3.35584 
        2.44211         34.2182         3.33487 
        2.44823         34.1013         3.31412 
        2.45437          33.975         3.29349 
        2.46052         33.7621         3.27302 
        2.46665         33.6909         3.25276 
        2.47279         33.4373         3.23267 
        2.47892         33.3725         3.21275 
        2.48507         33.2576         3.19297 
         2.4912         33.0218         3.17339 
