# k  (h/Mpc)    P(k)  (Mpc/h)^3    P_linear(k)  (Mpc/h)^3
     0.00783031         6266.85         6363.72 
       0.013688          7421.5         7403.97 
       0.019231         7111.28          7102.8 
      0.0249154         6149.58         6220.72 
      0.0312784         5084.61         5098.78 
      0.0375637         4189.02         4169.48 
      0.0433917         3540.26         3557.23 
      0.0492413         3159.87         3157.16 
      0.0555754         2845.04          2881.6 
      0.0619321         2691.26         2671.23 
       0.067871          2443.2         2467.05 
      0.0738098         2208.55         2228.67 
      0.0800417         1926.87         1952.37 
      0.0862327         1680.92         1684.88 
      0.0921407         1480.66         1467.05 
      0.0982031         1304.21         1298.28 
       0.104506         1210.43         1181.01 
       0.110769         1131.32         1108.39 
       0.116806         1071.61          1059.4 
       0.122832         1028.08         1012.03 
       0.129052         954.485         951.811 
       0.135211          884.89         877.931 
       0.141259         818.132         797.547 
       0.147318         747.348         719.117 
       0.153489         674.846         650.426 
       0.159709         627.723         597.439 
       0.165845         597.569         560.823 
       0.171974         565.152         535.673 
       0.178125         544.222         515.989 
       0.184229         524.056         496.408 
        0.19034         489.818         473.233 
       0.196428         472.417         445.868 
       0.202534         449.578         415.838 
       0.208729         418.668         385.733 
       0.214876         391.017         359.024 
       0.220989         374.029          337.19 
       0.227147          353.76         320.108 
        0.23329          339.63         306.925 
       0.239377         331.135         295.995 
       0.245482         310.914         285.473 
       0.251667         305.695         274.082 
       0.257832         293.791         261.612 
       0.263955         281.011          248.47 
       0.270079         268.162         235.367 
        0.27624         261.217         223.078 
       0.282372         250.427         212.299 
        0.28843         240.516          203.25 
       0.294538         230.005         195.502 
       0.300721           226.7         188.622 
        0.30691         216.342          182.16 
       0.313033         210.654         175.793 
       0.319153         201.508         169.246 
       0.325316         196.726         162.516 
        0.33145         189.082         155.855 
       0.337538         185.284         149.529 
       0.343633         178.438         143.659 
       0.349808         172.572         138.289 
       0.355968         169.103         133.471 
       0.362074         164.241         129.122 
       0.368217         159.472         125.023 
       0.374374         154.298         121.046 
       0.380519         151.232         117.136 
       0.386598         147.037         113.293 
       0.392688         144.358         109.505 
        0.39888         140.371          105.78 
       0.405048          136.68         102.249 
       0.411186         133.521         98.9545 
       0.417313         130.195         95.8922 
       0.423458         127.195         93.0152 
       0.429607         124.086         90.2952 
       0.435692         119.951         87.7184 
       0.441815         118.844         85.2005 
       0.447964         116.648         82.7329 
       0.454126         111.413         80.3252 
       0.460267         110.103          77.997 
       0.466387         108.174         75.7618 
        0.47254         105.842         73.6143 
       0.478662         104.672         71.5831 
       0.484765         101.431         69.6539 
       0.490885         99.6127         67.8052 
       0.497035         98.3195         66.0229 
       0.503198         95.4765         64.3011 
       0.509342         93.5655          62.637 
       0.515458         92.0817         61.0274 
       0.521598         90.6256         59.4608 
       0.527764         89.1909         57.9403 
       0.533884         87.7707         56.4853 
           0.54         85.9115         55.0849 
       0.546137          85.027         53.7319 
       0.552299          83.626         52.4249 
       0.558452         81.6344         51.1681 
       0.564573         80.1655         49.9604 
       0.570708         78.9676         48.7879 
       0.576825         77.8256         47.6534 
       0.582926         76.1473         46.5554 
       0.589034         74.7749         45.4897 
       0.595184         73.7808         44.4505 
       0.601379         72.7287          43.438 
       0.607522         71.0089         42.4663 
       0.613639          70.744         41.5294 
       0.619772          69.144         40.6195 
       0.625918          68.352         39.7357 
       0.632068         67.5275         38.8783 
       0.638161         66.6007         38.0541 
         0.6443         65.6335         37.2479 
       0.650464         64.7627         36.4621 
       0.656582         63.8677         35.7043 
       0.662703         62.6333         34.9677 
       0.668861          61.846         34.2476 
       0.675024         61.0949         33.5475 
       0.681124         60.2228         32.8743 
       0.687237         59.1061         32.2187 
       0.693381         58.5286         31.5784 
       0.699536         57.6312         30.9547 
       0.705665         57.8022         30.3507 
       0.711789         56.2368         29.7636 
       0.717957         55.7273         29.1881 
        0.72409         54.9554          28.631 
       0.730186         54.0563         28.0919 
       0.736317         53.8559         27.5637 
       0.742472         53.0991         27.0472 
       0.748622         52.5046         26.5446 
        0.75476         51.9043         26.0559 
       0.760888           51.11         25.5803 
       0.767043         50.5642         25.1149 
       0.773185         49.9225         24.6622 
       0.779291         49.5982         24.2233 
       0.785407         49.1181         23.7945 
       0.791564          48.464         23.3735 
       0.797719         47.5954          22.963 
       0.803834         47.4361         22.5651 
       0.809972         46.6139         22.1752 
       0.816124         46.1383         21.7937 
       0.822261          45.762         21.4223 
       0.828378         45.4603         21.0607 
       0.834502         44.8867         20.7072 
       0.840667         44.4354         20.3596 
       0.846816         43.7847         20.0211 
       0.852925         43.4395         19.6924 
       0.859047         42.8558         19.3704 
       0.865192         42.5372         19.0546 
       0.871341         42.3567         18.7457 
       0.877463         41.5125         18.4451 
       0.883569         41.2121         18.1519 
       0.889708         40.9465         17.8636 
       0.895864         40.5426         17.5809 
       0.902008         40.1583         17.3049 
       0.908149         39.8084         17.0351 
       0.914301         39.5474         16.7706 
       0.920448         39.0944          16.512 
       0.926574         38.6804         16.2598 
       0.932687         38.4055         16.0135 
       0.938823         37.8176         15.7714 
       0.944975         37.6764         15.5338 
       0.951105         37.2875         15.3019 
       0.957225         36.8222         15.0753 
       0.963368         36.8244         14.8524 
       0.969511         36.4432         14.6341 
       0.975621         36.1479         14.4214 
       0.981748         35.6831         14.2124 
       0.987916         35.4495         14.0063 
        0.99406         35.2094          13.805 
        1.00019         34.7972         13.6081 
        1.00632         34.5969         13.4153 
        1.01246         34.3915         13.2259 
        1.01859         33.8619         13.0405 
        1.02471         33.8529          12.859 
        1.03085         33.5326         12.6802 
        1.03698         33.1123         12.5053 
        1.04314         32.8689         12.3329 
        1.04929         32.6352         12.1642 
        1.05541          32.289         11.9993 
        1.06154         32.2316         11.8371 
        1.06769         31.9245         11.6777 
        1.07382         31.7012         11.5217 
        1.07993         31.5338          11.369 
        1.08607         31.1617         11.2184 
        1.09222         31.0368         11.0704 
        1.09836         30.7629         10.9252 
        1.10449         30.5185         10.7829 
        1.11063         30.1509         10.6429 
        1.11677         30.0205         10.5055 
         1.1229         29.8714         10.3707 
        1.12903         29.4686         10.2383 
        1.13518          29.464          10.108 
        1.14131         29.2937         9.98006 
        1.14745         28.9132         9.85443 
        1.15359         28.8911         9.73095 
        1.15973         28.5331         9.60955 
        1.16584         28.3194         9.49077 
        1.17197          28.262         9.37384 
        1.17811          27.974         9.25854 
        1.18424         27.7309         9.14551 
        1.19038         27.6563         9.03406 
        1.19652         27.5296         8.92452 
        1.20267         27.3138          8.8168 
        1.20881         27.0717         8.71089 
        1.21495         26.8906         8.60689 
        1.22108         26.7263         8.50461 
         1.2272         26.4447         8.40425 
        1.23334         26.3681         8.30528 
        1.23949         26.2583         8.20767 
        1.24562         26.0224         8.11192 
        1.25174         25.9273         8.01784 
        1.25789         25.7138         7.92497 
        1.26402         25.5549         7.83374 
        1.27014         25.2925         7.74418 
        1.27628         25.1932         7.65575 
        1.28244         25.0581         7.56853 
        1.28858         24.9481          7.4828 
        1.29471         24.8055         7.39858 
        1.30084         24.6532         7.31574 
        1.30697         24.4641         7.23405 
        1.31312         24.2441         7.15349 
        1.31925         24.1548         7.07442 
        1.32537         24.0435         6.99663 
        1.33151         23.8614         6.91972 
        1.33765         23.8012         6.84403 
        1.34378          23.631         6.76962 
        1.34992         23.3881         6.69627 
        1.35606         23.2944         6.62385 
         1.3622         23.1701         6.55264 
        1.36833          23.005         6.48264 
        1.37445         23.0064         6.41371 
        1.38059         22.8037         6.34557 
        1.38675         22.5589         6.27827 
        1.39288         22.5525         6.21221 
        1.39901         22.3576         6.14713 
        1.40515         22.2707         6.08285 
         1.4113         22.1532         6.01951 
        1.41742         21.9404         5.95732 
        1.42355         21.9098         5.89589 
         1.4297         21.7798         5.83515 
        1.43585         21.7191         5.77529 
        1.44198         21.5089          5.7165 
        1.44809          21.406         5.65864 
        1.45423         21.3142         5.60138 
        1.46036         21.2511         5.54501 
        1.46649         21.0926          5.4894 
        1.47263         20.9539          5.4345 
        1.47877         20.8903         5.38039 
        1.48491         20.8059         5.32693 
        1.49104         20.6946          5.2743 
        1.49718         20.5059         5.22235 
        1.50333         20.4697         5.17102 
        1.50947         20.3774         5.12049 
         1.5156         20.2325         5.07071 
        1.52172         20.1001         5.02159 
        1.52787         20.0824         4.97302 
          1.534         19.9115         4.92516 
        1.54013         19.7654         4.87798 
        1.54627         19.7154         4.83133 
        1.55241         19.5839         4.78529 
        1.55855         19.4831         4.73991 
        1.56467         19.3795         4.69525 
         1.5708         19.3561         4.65103 
        1.57695         19.1561         4.60733 
        1.58308         19.1689         4.56428 
        1.58922         19.0393         4.52176 
        1.59535          18.917          4.4798 
         1.6015         18.8301         4.43831 
        1.60764         18.7872         4.39737 
        1.61376         18.6138         4.35705 
        1.61989         18.5148         4.31721 
        1.62604         18.5031         4.27779 
        1.63218         18.3821         4.23888 
        1.63831         18.3258         4.20054 
        1.64444          18.194         4.16267 
        1.65059         18.1008         4.12517 
        1.65673         18.0073         4.08818 
        1.66285         17.9515         4.05174 
        1.66898         17.8831         4.01574 
        1.67512         17.8153         3.98011 
        1.68127         17.6997         3.94488 
         1.6874         17.6086         3.91015 
        1.69353         17.5376         3.87586 
        1.69967         17.4242         3.84191 
        1.70581         17.3555         3.80837 
        1.71193         17.2964         3.77536 
        1.71806          17.192         3.74268 
        1.72421         17.1194         3.71032 
        1.73035         17.0223         3.67837 
        1.73649          16.989         3.64681 
        1.74262         16.9183         3.61565 
        1.74876         16.8542         3.58483 
        1.75489         16.7523         3.55444 
        1.76101         16.6674          3.5244 
        1.76715         16.6127         3.49468 
        1.77329         16.5482         3.46526 
        1.77943         16.4395         3.43616 
        1.78557         16.4002         3.40745 
        1.79171         16.3325         3.37905 
        1.79785         16.2117         3.35098 
        1.80399         16.1515         3.32323 
        1.81012         16.1405         3.29584 
        1.81625         16.0446         3.26876 
        1.82239         16.0153         3.24195 
        1.82853         15.8734         3.21546 
        1.83466         15.7827         3.18928 
        1.84078         15.7104         3.16343 
        1.84692         15.7004         3.13782 
        1.85306         15.6051         3.11246 
         1.8592         15.5396         3.08742 
        1.86533         15.4824         3.06268 
        1.87147         15.4075         3.03817 
        1.87761         15.3772         3.01392 
        1.88375         15.3022         2.98997 
        1.88988         15.2264         2.96631 
        1.89601         15.1375         2.94288 
        1.90215          15.096          2.9197 
        1.90829         15.0542         2.89677 
        1.91442         14.9851         2.87409 
        1.92056         14.9129         2.85167 
         1.9267         14.8426         2.82947 
        1.93284         14.7714         2.80749 
        1.93897         14.7257         2.78579 
        1.94509         14.6629         2.76436 
        1.95123         14.5953          2.7431 
        1.95737         14.5556         2.72206 
        1.96349         14.4772         2.70129 
        1.96964         14.4156         2.68067 
        1.97578         14.3656         2.66026 
        1.98192         14.2911         2.64011 
        1.98805         14.2546         2.62016 
        1.99419         14.1831         2.60042 
        2.00033         14.0937         2.58087 
        2.00647         14.0524         2.56152 
         2.0126         14.0087         2.54241 
        2.01874         13.9314         2.52347 
        2.02488         13.9017          2.5047 
        2.03101          13.852         2.48616 
        2.03714         13.8025         2.46782 
        2.04328         13.7157         2.44964 
        2.04941         13.6507         2.43167 
        2.05554         13.6463         2.41389 
        2.06167         13.5796         2.39626 
        2.06781         13.5337         2.37881 
        2.07396         13.4893          2.3615 
        2.08009         13.4364          2.3444 
        2.08622         13.3319         2.32749 
        2.09237         13.3088         2.31071 
        2.09851         13.2643         2.29409 
        2.10464         13.2088         2.27766 
        2.11077         13.1313         2.26142 
        2.11691         13.1048          2.2453 
        2.12305         13.0669         2.22933 
        2.12918         12.9902         2.21356 
        2.13531         12.9497         2.19794 
        2.14145         12.8845         2.18243 
         2.1476         12.8682         2.16706 
        2.15372         12.8068         2.15191 
        2.15985         12.7264         2.13689 
        2.16599          12.712         2.12197 
        2.17213         12.6501         2.10721 
        2.17827         12.6176          2.0926 
         2.1844         12.5561         2.07813 
        2.19054          12.505          2.0638 
        2.19666         12.4971         2.04962 
         2.2028         12.4451         2.03557 
        2.20893         12.3748         2.02164 
        2.21508         12.3041         2.00782 
        2.22122         12.2638         1.99413 
        2.22736         12.2408         1.98059 
        2.23349         12.1749         1.96719 
        2.23962         12.1189          1.9539 
        2.24577         12.0781         1.94072 
         2.2519          12.068         1.92768 
        2.25802         12.0152         1.91479 
        2.26417         11.9864         1.90197 
        2.27031         11.9007         1.88926 
        2.27644         11.8841         1.87671 
        2.28257         11.8282         1.86427 
        2.28872         11.7886         1.85191 
        2.29486         11.7462         1.83968 
        2.30099          11.707         1.82757 
        2.30712         11.6824         1.81558 
        2.31326         11.6223         1.80366 
         2.3194         11.5952         1.79187 
        2.32553         11.5353          1.7802 
        2.33166         11.4718         1.76863 
         2.3378         11.4425         1.75716 
        2.34394         11.4158         1.74578 
        2.35007         11.3497         1.73452 
        2.35619         11.2903         1.72337 
        2.36233         11.2859         1.71229 
        2.36848         11.2615         1.70129 
        2.37462         11.2276         1.69041 
        2.38075         11.1551         1.67964 
        2.38689         11.1345         1.66895 
        2.39303         11.0818         1.65835 
        2.39916         11.0552         1.64786 
        2.40529         11.0036         1.63746 
        2.41143         10.9803         1.62714 
        2.41757         10.9393          1.6169 
         2.4237         10.9016         1.60678 
        2.42983         10.8524         1.59674 
        2.43598         10.8256         1.58676 
        2.44211         10.7831         1.57688 
        2.44823         10.7334          1.5671 
        2.45437         10.7204         1.55739 
        2.46052         10.6665         1.54775 
        2.46665         10.6221          1.5382 
        2.47279         10.5715         1.52874 
        2.47892         10.5586         1.51936 
        2.48507         10.5303         1.51004 
         2.4912         10.4948         1.50082 
