# k  (h/Mpc)    Pcb(k)  (Mpc/h)^3    Pcb_linear(k)  (Mpc/h)^3
     0.00783031         7438.11         7492.68 
       0.013688         8182.92         8335.94 
       0.019231         7556.05         7623.42 
      0.0249154         6347.84         6309.82 
      0.0312784         4850.41         4844.01 
      0.0375637         3744.71         3755.46 
      0.0433917         3133.42         3116.49 
      0.0492413         2753.29         2752.72 
      0.0555754         2553.65         2537.23 
      0.0619321         2336.68          2371.7 
       0.067871         2173.74         2179.89 
      0.0738098         1934.59         1929.97 
      0.0800417         1651.76          1634.7 
      0.0862327         1374.37         1360.35 
      0.0921407         1174.36         1154.36 
      0.0982031         1043.27          1013.1 
       0.104506         944.492         931.994 
       0.110769         906.561         893.409 
       0.116806         887.574         868.337 
       0.122832         841.894         832.812 
       0.129052         786.206          773.89 
       0.135211          720.61         696.512 
       0.141259         635.903         614.924 
       0.147318         561.058         541.616 
       0.153489         508.943         484.885 
       0.159709         478.032         448.172 
       0.165845         446.122         428.139 
       0.171974         443.022         416.825 
       0.178125         429.122         406.171 
       0.184229          405.31         390.378 
        0.19034         387.943         367.333 
       0.196428         363.406         339.058 
       0.202534         328.361         309.565 
       0.208729          311.68         282.834 
       0.214876         293.073         262.184 
       0.220989         272.851         247.932 
       0.227147         266.958         238.561 
        0.23329         258.358         231.813 
       0.239377         253.561         225.225 
       0.245482         241.257         216.962 
       0.251667         229.273         206.365 
       0.257832         223.009         194.217 
       0.263955         207.305         181.889 
       0.270079          196.07         170.644 
        0.27624         186.586         161.279 
       0.282372         180.363         154.082 
        0.28843         178.098          148.66 
       0.294538         170.066         144.131 
       0.300721         163.763          139.72 
        0.30691         160.597         134.869 
       0.313033         152.968         129.469 
       0.319153         149.345         123.619 
       0.325316         143.532         117.692 
        0.33145         138.079          112.16 
       0.337538         132.535         107.335 
       0.343633         128.308         103.244 
       0.349808         124.139         99.7446 
       0.355968         121.029         96.6691 
       0.362074         118.092         93.7575 
       0.368217         115.284         90.7882 
       0.374374         111.988           87.67 
       0.380519         107.139         84.4591 
       0.386598         104.556         81.2987 
       0.392688         100.917         78.2659 
        0.39888         99.0432         75.4314 
       0.405048         96.3916         72.8982 
       0.411186         94.4122         70.6271 
       0.417313         91.9485         68.5534 
       0.423458         89.4441         66.5807 
       0.429607         87.2637         64.6341 
       0.435692         85.9257         62.7105 
       0.441815         83.0886         60.7784 
       0.447964          80.376         58.8605 
       0.454126         78.8221         57.0029 
       0.460267         77.9857         55.2579 
       0.466387         75.7241         53.6345 
        0.47254         74.7678         52.1086 
       0.478662         72.1008         50.6835 
       0.484765         70.8097         49.3333 
       0.490885         68.9795         48.0213 
       0.497035         68.2946         46.7252 
       0.503198         66.8003         45.4483 
       0.509342         64.9719         44.2071 
       0.515458         63.8148         43.0113 
       0.521598         62.1433         41.8566 
       0.527764         61.4146         40.7474 
       0.533884         60.7441         39.7004 
           0.54         59.0274         38.7058 
       0.546137         57.5053         37.7496 
       0.552299         56.3527         36.8215 
       0.558452         55.3137         35.9183 
       0.564573          54.939         35.0417 
       0.570708          53.328         34.1874 
       0.576825         52.7392         33.3623 
       0.582926         52.0131         32.5676 
       0.589034         50.9527         31.7999 
       0.595184         50.2018         31.0539 
       0.601379         49.0262         30.3289 
       0.607522         47.9416         29.6349 
       0.613639         47.5352          28.967 
       0.619772         46.4837         28.3189 
       0.625918         46.0352         27.6891 
       0.632068         45.1954         27.0771 
       0.638161         44.3976         26.4875 
         0.6443         44.0119         25.9098 
       0.650464         42.8718         25.3465 
       0.656582         42.7014         24.8041 
       0.662703         41.9922         24.2779 
       0.668861          41.031         23.7651 
       0.675024         40.7847         23.2678 
       0.681124          40.218         22.7904 
       0.687237         39.4821         22.3259 
       0.693381         38.8767         21.8722 
       0.699536         38.4784         21.4301 
       0.705665         37.8967         21.0017 
       0.711789         37.2917         20.5851 
       0.717957         36.6909         20.1767 
        0.72409         36.2527         19.7815 
       0.730186         35.9986         19.3993 
       0.736317         35.3389         19.0252 
       0.742472          34.854         18.6597 
       0.748622         34.3394         18.3043 
        0.75476          33.867          17.959 
       0.760888         33.7287         17.6233 
       0.767043         32.9887          17.295 
       0.773185         32.5087         16.9757 
       0.779291          32.147         16.6664 
       0.785407          31.811         16.3643 
       0.791564         31.6793         16.0679 
       0.797719         30.9558         15.7789 
       0.803834          30.808         15.4989 
       0.809972         30.3685         15.2247 
       0.816124         30.0021         14.9566 
       0.822261         29.5619         14.6957 
       0.828378         29.4212         14.4418 
       0.834502         29.0518         14.1937 
       0.840667         28.7518         13.9498 
       0.846816         28.3539         13.7124 
       0.852925         28.0618          13.482 
       0.859047         27.9124         13.2564 
       0.865192         27.4636         13.0353 
       0.871341         27.1583         12.8191 
       0.877463         26.8148         12.6088 
       0.883569          26.719         12.4038 
       0.889708         26.3529         12.2022 
       0.895864         26.0744         12.0047 
       0.902008         25.8346          11.812 
       0.908149         25.4621         11.6236 
       0.914301         25.2441          11.439 
       0.920448         25.1031         11.2587 
       0.926574         24.7535         11.0828 
       0.932687         24.4749         10.9111 
       0.938823         24.1613         10.7424 
       0.944975         23.9421          10.577 
       0.951105         23.7798         10.4155 
       0.957225         23.5521         10.2578 
       0.963368         23.3181         10.1028 
       0.969511         23.0855         9.95094 
       0.975621           22.91         9.80306 
       0.981748         22.6557         9.65781 
       0.987916         22.4513          9.5146 
        0.99406         22.2156         9.37482 
        1.00019         22.0316         9.23814 
        1.00632         21.8825         9.10431 
        1.01246         21.6357         8.97294 
        1.01859         21.4531         8.84436 
        1.02471          21.259         8.71847 
        1.03085         21.1048          8.5946 
        1.03698         20.9815          8.4734 
        1.04314         20.7461         8.35403 
        1.04929         20.4705         8.23724 
        1.05541         20.4325         8.12315 
        1.06154         20.2237         8.01096 
        1.06769         19.9695         7.90071 
        1.07382         19.8477         7.79291 
        1.07993         19.7112         7.68736 
        1.08607         19.5095         7.58334 
        1.09222         19.3651         7.48115 
        1.09836         19.1809         7.38096 
        1.10449         19.0935         7.28272 
        1.11063         18.9074         7.18617 
        1.11677         18.8472         7.09141 
         1.1229         18.6273         6.99852 
        1.12903         18.4603         6.90721 
        1.13518         18.4075         6.81747 
        1.14131         18.2328         6.72937 
        1.14745         18.0512         6.64287 
        1.15359         17.8378         6.55788 
        1.15973         17.8035         6.47435 
        1.16584         17.6231         6.39264 
        1.17197         17.4485         6.31223 
        1.17811         17.3408         6.23295 
        1.18424         17.1522         6.15526 
        1.19038         17.0831         6.07867 
        1.19652         16.9157         6.00341 
        1.20267          16.851         5.92943 
        1.20881         16.6935         5.85671 
        1.21495         16.6341         5.78532 
        1.22108         16.5262         5.71513 
         1.2272         16.3501         5.64627 
        1.23334         16.2821         5.57839 
        1.23949         16.1454         5.51146 
        1.24562         16.0106         5.44582 
        1.25174         15.9326         5.38135 
        1.25789         15.8222         5.31772 
        1.26402         15.7182         5.25523 
        1.27014         15.6135          5.1939 
        1.27628         15.4764         5.13336 
        1.28244         15.4797         5.07368 
        1.28858         15.2857         5.01502 
        1.29471         15.1666         4.95742 
        1.30084         15.0634         4.90077 
        1.30697         14.9779         4.84493 
        1.31312          14.889         4.78988 
        1.31925         14.7801         4.73586 
        1.32537          14.652         4.68272 
        1.33151         14.5449         4.63021 
        1.33765          14.533         4.57854 
        1.34378         14.4328         4.52775 
        1.34992         14.3023          4.4777 
        1.35606         14.1742          4.4283 
         1.3622          14.128         4.37973 
        1.36833         14.0649         4.33201 
        1.37445         13.9501         4.28502 
        1.38059         13.8477         4.23859 
        1.38675          13.811         4.19273 
        1.39288         13.6777         4.14773 
        1.39901         13.5812         4.10341 
        1.40515         13.5288         4.05964 
         1.4113         13.4552         4.01653 
        1.41742         13.3727          3.9742 
        1.42355         13.2629         3.93241 
         1.4297         13.2014         3.89109 
        1.43585         13.1219         3.85038 
        1.44198         13.0881          3.8104 
        1.44809         12.9833         3.77107 
        1.45423         12.9054         3.73215 
        1.46036         12.8421         3.69384 
        1.46649         12.7534         3.65606 
        1.47263          12.686         3.61877 
        1.47877         12.5738         3.58202 
        1.48491         12.5393         3.54572 
        1.49104         12.4613            3.51 
        1.49718         12.4332         3.47475 
        1.50333         12.3509         3.43992 
        1.50947         12.2402         3.40564 
         1.5156          12.219         3.37188 
        1.52172         12.1413         3.33857 
        1.52787         12.1047         3.30565 
          1.534         12.0102         3.27321 
        1.54013         11.9687         3.24124 
        1.54627         11.8714         3.20964 
        1.55241         11.7957         3.17846 
        1.55855         11.7416         3.14773 
        1.56467         11.6713         3.11749 
         1.5708         11.6469         3.08757 
        1.57695         11.5715         3.05799 
        1.58308          11.494         3.02886 
        1.58922         11.4382          3.0001 
        1.59535          11.382         2.97172 
         1.6015         11.3202         2.94367 
        1.60764         11.2618         2.91599 
        1.61376         11.2097         2.88874 
        1.61989         11.1144         2.86182 
        1.62604         11.0827         2.83518 
        1.63218         11.0115          2.8089 
        1.63831         10.9601         2.78301 
        1.64444         10.9183         2.75744 
        1.65059         10.8578         2.73212 
        1.65673         10.7984         2.70715 
        1.66285         10.7388         2.68256 
        1.66898         10.6918         2.65827 
        1.67512         10.6714         2.63424 
        1.68127         10.6008         2.61047 
         1.6874         10.5696         2.58705 
        1.69353         10.4738         2.56393 
        1.69967         10.4167         2.54104 
        1.70581          10.396         2.51844 
        1.71193         10.3278          2.4962 
        1.71806         10.2754         2.47418 
        1.72421         10.2372         2.45237 
        1.73035         10.1898         2.43086 
        1.73649         10.1252         2.40961 
        1.74262         10.1071         2.38863 
        1.74876         10.0505         2.36788 
        1.75489         9.99193         2.34743 
        1.76101         9.93051         2.32722 
        1.76715         9.90135         2.30722 
        1.77329         9.85224         2.28743 
        1.77943         9.80942         2.26786 
        1.78557         9.79241         2.24855 
        1.79171         9.71476         2.22946 
        1.79785         9.65538         2.21059 
        1.80399         9.61426         2.19194 
        1.81012         9.57971         2.17353 
        1.81625         9.53745         2.15534 
        1.82239         9.48556         2.13733 
        1.82853         9.45018         2.11954 
        1.83466         9.39666         2.10196 
        1.84078         9.34953          2.0846 
        1.84692         9.33565         2.06741 
        1.85306         9.29777         2.05039 
         1.8592         9.25281         2.03359 
        1.86533         9.20641         2.01699 
        1.87147         9.16093         2.00055 
        1.87761         9.13191         1.98429 
        1.88375         9.08511         1.96823 
        1.88988         9.03698         1.95236 
        1.89601         9.00436         1.93666 
        1.90215         8.95142         1.92112 
        1.90829         8.91731         1.90575 
        1.91442         8.87936         1.89055 
        1.92056         8.83568         1.87553 
         1.9267         8.81618         1.86066 
        1.93284         8.80023         1.84594 
        1.93897         8.72486         1.83141 
        1.94509         8.70351         1.81706 
        1.95123          8.6503         1.80284 
        1.95737         8.60198         1.78875 
        1.96349          8.5837         1.77485 
        1.96964         8.56803         1.76105 
        1.97578         8.52305          1.7474 
        1.98192         8.48992         1.73392 
        1.98805         8.43083         1.72058 
        1.99419         8.42494         1.70737 
        2.00033         8.36669          1.6943 
        2.00647         8.33193         1.68137 
         2.0126         8.29367          1.6686 
        2.01874         8.26958         1.65594 
        2.02488         8.22838          1.6434 
        2.03101         8.20994         1.63101 
        2.03714         8.16132         1.61876 
        2.04328         8.13594         1.60663 
        2.04941         8.09294         1.59462 
        2.05554         8.07726         1.58275 
        2.06167         8.04439         1.57098 
        2.06781         8.03077         1.55933 
        2.07396         7.98509         1.54778 
        2.08009         7.93565         1.53637 
        2.08622          7.9063         1.52508 
        2.09237         7.89599         1.51389 
        2.09851         7.83999         1.50281 
        2.10464         7.82511         1.49185 
        2.11077         7.78513         1.48102 
        2.11691         7.75413         1.47027 
        2.12305         7.71768         1.45963 
        2.12918         7.68036         1.44911 
        2.13531         7.67376          1.4387 
        2.14145         7.62777         1.42837 
         2.1476         7.59349         1.41813 
        2.15372         7.59278         1.40803 
        2.15985         7.53635         1.39803 
        2.16599         7.52666         1.38809 
        2.17213         7.50119         1.37827 
        2.17827         7.47144         1.36853 
         2.1844         7.44183         1.35891 
        2.19054         7.41357         1.34937 
        2.19666         7.38643         1.33993 
         2.2028         7.35741         1.33058 
        2.20893         7.32601         1.32131 
        2.21508          7.2917         1.31212 
        2.22122         7.26935         1.30301 
        2.22736         7.23925         1.29401 
        2.23349         7.21058         1.28509 
        2.23962         7.18716         1.27626 
        2.24577         7.18291         1.26749 
         2.2519         7.13799         1.25883 
        2.25802         7.11163         1.25026 
        2.26417         7.09801         1.24174 
        2.27031         7.05928         1.23329 
        2.27644         7.04903         1.22495 
        2.28257         7.00315         1.21669 
        2.28872         6.99357         1.20848 
        2.29486         6.97088         1.20035 
        2.30099         6.93402         1.19232 
        2.30712         6.90053         1.18435 
        2.31326         6.88533         1.17644 
         2.3194         6.85217         1.16861 
        2.32553         6.82735         1.16087 
        2.33166         6.79165         1.15319 
         2.3378          6.7929         1.14558 
        2.34394         6.75678         1.13803 
        2.35007         6.73679         1.13056 
        2.35619         6.71301         1.12317 
        2.36233         6.68648         1.11582 
        2.36848         6.65179         1.10852 
        2.37462         6.63357         1.10131 
        2.38075         6.59718         1.09417 
        2.38689         6.59792         1.08708 
        2.39303         6.56637         1.08006 
        2.39916         6.54863          1.0731 
        2.40529         6.53259         1.06621 
        2.41143         6.50178         1.05937 
        2.41757         6.47098         1.05259 
         2.4237         6.45058         1.04589 
        2.42983         6.43704         1.03924 
        2.43598         6.40944         1.03263 
        2.44211         6.38378         1.02608 
        2.44823         6.36048         1.01961 
        2.45437         6.34952         1.01318 
        2.46052         6.32218          1.0068 
        2.46665         6.30964         1.00048 
        2.47279         6.28645        0.994223 
        2.47892         6.25631        0.988012 
        2.48507         6.23548        0.981848 
         2.4912         6.20745        0.975748 
