# k  (h/Mpc)    P(k)  (Mpc/h)^3    P_linear(k)  (Mpc/h)^3
     0.00783031         12332.2         12453.2 
       0.013688         13491.6         13823.8 
       0.019231         12471.3         12631.5 
      0.0249154         10516.2         10450.2 
      0.0312784          8014.2          8020.1 
      0.0375637         6182.39         6216.66 
      0.0433917          5184.3         5158.31 
      0.0492413         4552.73         4555.83 
      0.0555754         4226.09          4198.9 
      0.0619321         3848.53         3924.76 
       0.067871          3587.9         3607.21 
      0.0738098         3202.42         3193.54 
      0.0800417         2739.85          2704.9 
      0.0862327         2283.73         2250.89 
      0.0921407         1961.25         1910.02 
      0.0982031         1748.94         1676.26 
       0.104506         1579.09         1542.05 
       0.110769         1515.41         1478.19 
       0.116806         1483.36         1436.69 
       0.122832         1405.07         1377.91 
       0.129052         1309.84         1280.41 
       0.135211         1211.47         1152.38 
       0.141259         1070.98         1017.39 
       0.147318         949.931         896.094 
       0.153489         865.667         802.232 
       0.159709         818.899         741.486 
       0.165845         760.939         708.341 
       0.171974         755.597         689.621 
       0.178125         732.185         671.992 
       0.184229         685.666         645.866 
        0.19034         660.289         607.733 
       0.196428         623.503         560.953 
       0.202534         565.172         512.155 
       0.208729         542.805         467.931 
       0.214876         510.888         433.768 
       0.220989         477.036         410.189 
       0.227147          466.64         394.684 
        0.23329         450.476         383.519 
       0.239377         444.686         372.623 
       0.245482         421.423         358.949 
       0.251667         402.384         341.415 
       0.257832         392.907         321.317 
       0.263955         367.043         300.918 
       0.270079         348.855         282.316 
        0.27624         333.055         266.822 
       0.282372         323.904         254.914 
        0.28843         320.312         245.946 
       0.294538         304.368         238.453 
       0.300721         294.718         231.155 
        0.30691         288.938         223.127 
       0.313033         274.681         214.196 
       0.319153         269.111         204.517 
       0.325316         261.761          194.71 
        0.33145         253.397         185.559 
       0.337538         243.056         177.577 
       0.343633         235.454         170.807 
       0.349808         228.448         165.018 
       0.355968         223.701          159.93 
       0.362074         216.225         155.112 
       0.368217         213.144         150.202 
       0.374374         207.732         145.041 
       0.380519         198.864         139.729 
       0.386598         195.442         134.501 
       0.392688         189.277         129.483 
        0.39888         185.231         124.794 
       0.405048         180.438         120.603 
       0.411186         178.646         116.845 
       0.417313         174.855         113.415 
       0.423458         170.159         110.151 
       0.429607         165.075          106.93 
       0.435692         162.534         103.748 
       0.441815         158.729         100.552 
       0.447964         154.078         97.3783 
       0.454126         151.587         94.3055 
       0.460267         149.598         91.4182 
       0.466387         145.457         88.7327 
        0.47254         143.829         86.2079 
       0.478662          139.48         83.8508 
       0.484765         137.162         81.6165 
       0.490885         134.696         79.4469 
       0.497035         132.885         77.3017 
       0.503198          131.11         75.1894 
       0.509342         127.756         73.1359 
       0.515458          125.43         71.1576 
       0.521598         122.302         69.2473 
       0.527764          121.25         67.4124 
       0.533884         120.109           65.68 
           0.54         117.201         64.0346 
       0.546137         114.429         62.4526 
       0.552299         112.654         60.9171 
       0.558452         110.858         59.4231 
       0.564573         110.323         57.9727 
       0.570708         107.178         56.5594 
       0.576825         105.856         55.1943 
       0.582926         104.721         53.8796 
       0.589034         102.842         52.6094 
       0.595184         101.563         51.3753 
       0.601379         99.7343         50.1758 
       0.607522         97.2889         49.0277 
       0.613639         96.6984         47.9228 
       0.619772         95.1694         46.8505 
       0.625918         94.4606         45.8086 
       0.632068         92.0573         44.7962 
       0.638161         91.3938         43.8206 
         0.6443         90.5169         42.8649 
       0.650464         88.5608         41.9331 
       0.656582         87.9993         41.0356 
       0.662703         87.0853         40.1651 
       0.668861         85.1607         39.3168 
       0.675024          85.009          38.494 
       0.681124         83.5304         37.7042 
       0.687237         82.5648         36.9357 
       0.693381         81.1798         36.1851 
       0.699536         80.5461         35.4537 
       0.705665         79.5975          34.745 
       0.711789         78.3394         34.0558 
       0.717957         77.4064         33.3801 
        0.72409         76.4691         32.7264 
       0.730186         76.2357          32.094 
       0.736317         75.2081          31.475 
       0.742472         73.7825         30.8703 
       0.748622         72.7574         30.2824 
        0.75476         72.8192         29.7112 
       0.760888         71.9481         29.1558 
       0.767043         70.5342         28.6126 
       0.773185         69.5992         28.0845 
       0.779291         68.9862         27.5727 
       0.785407         68.5083          27.073 
       0.791564         67.8643         26.5825 
       0.797719         66.7009         26.1045 
       0.803834         66.5825         25.6412 
       0.809972         65.9057         25.1876 
       0.816124         64.7584          24.744 
       0.822261         64.1437         24.3123 
       0.828378          63.913         23.8923 
       0.834502         63.2812         23.4818 
       0.840667         62.7041         23.0784 
       0.846816         61.9153         22.6856 
       0.852925         61.2962         22.3044 
       0.859047         60.8397         21.9312 
       0.865192         60.2138         21.5654 
       0.871341         59.6745         21.2077 
       0.877463         58.9967         20.8598 
       0.883569          58.998         20.5206 
       0.889708         58.2988         20.1872 
       0.895864         57.8289         19.8604 
       0.902008         57.0848         19.5416 
       0.908149         56.4291         19.2299 
       0.914301         56.2044         18.9246 
       0.920448         56.1397         18.6262 
       0.926574         54.9107         18.3353 
       0.932687         54.7478         18.0512 
       0.938823         54.3813         17.7722 
       0.944975         53.7482         17.4984 
       0.951105         53.2496         17.2313 
       0.957225         53.0266         16.9703 
       0.963368         52.4919         16.7139 
       0.969511         52.1717         16.4627 
       0.975621         51.4595         16.2181 
       0.981748         51.2305         15.9778 
       0.987916         50.6915         15.7408 
        0.99406         50.5605         15.5096 
        1.00019         49.9269         15.2835 
        1.00632         49.5038          15.062 
        1.01246         49.2752         14.8447 
        1.01859         48.9381          14.632 
        1.02471          48.595         14.4237 
        1.03085          48.093         14.2188 
        1.03698         47.8042         14.0183 
        1.04314         47.4412         13.8208 
        1.04929         47.1169         13.6276 
        1.05541         46.7044         13.4388 
        1.06154         46.3522         13.2532 
        1.06769         46.0316         13.0708 
        1.07382         45.6082         12.8925 
        1.07993         45.4594         12.7179 
        1.08607         45.0656         12.5458 
        1.09222         44.8516         12.3767 
        1.09836         44.5038          12.211 
        1.10449         44.2015         12.0484 
        1.11063         43.8633         11.8887 
        1.11677         43.7639         11.7319 
         1.1229         43.2301         11.5782 
        1.12903         43.0405         11.4272 
        1.13518          42.726         11.2787 
        1.14131         42.4652          11.133 
        1.14745           42.28         10.9899 
        1.15359         41.7344         10.8493 
        1.15973          41.722         10.7111 
        1.16584         41.4098         10.5759 
        1.17197         41.0928         10.4429 
        1.17811         40.8142         10.3117 
        1.18424         40.3443         10.1832 
        1.19038         40.1931         10.0565 
        1.19652         40.0729         9.93196 
        1.20267         39.6757         9.80956 
        1.20881         39.4456         9.68925 
        1.21495         39.2569         9.57114 
        1.22108         39.1821         9.45503 
         1.2272          38.768         9.34111 
        1.23334         38.6439         9.22881 
        1.23949          38.309         9.11809 
        1.24562         38.0659         9.00949 
        1.25174         37.9358         8.90282 
        1.25789          37.701         8.79755 
        1.26402         37.4298         8.69418 
        1.27014         37.2732         8.59271 
        1.27628         37.0096         8.49256 
        1.28244         37.0131         8.39381 
        1.28858         36.6261         8.29677 
        1.29471         36.3029         8.20148 
        1.30084         36.0543         8.10777 
        1.30697         36.0353         8.01538 
        1.31312         35.8349         7.92431 
        1.31925         35.5154         7.83493 
        1.32537         35.3072         7.74702 
        1.33151         35.1483         7.66015 
        1.33765         35.0024         7.57466 
        1.34378         34.7752         7.49064 
        1.34992         34.5694         7.40784 
        1.35606         34.2715         7.32612 
         1.3622         34.2172         7.24577 
        1.36833         34.0773         7.16681 
        1.37445         33.7558         7.08908 
        1.38059          33.585         7.01225 
        1.38675         33.4519         6.93639 
        1.39288         33.3073         6.86194 
        1.39901         33.0437         6.78862 
        1.40515          32.889         6.71621 
         1.4113         32.8151         6.64488 
        1.41742         32.5812         6.57486 
        1.42355         32.3903         6.50571 
         1.4297         32.3239         6.43735 
        1.43585         32.1562            6.37 
        1.44198         31.8771         6.30387 
        1.44809         31.6638          6.2388 
        1.45423         31.6285          6.1744 
        1.46036         31.5095         6.11103 
        1.46649         31.2322         6.04852 
        1.47263         31.0834         5.98684 
        1.47877         30.9255         5.92604 
        1.48491         30.7051         5.86599 
        1.49104         30.6547         5.80689 
        1.49718         30.4899         5.74857 
        1.50333         30.3753         5.69095 
        1.50947          30.131         5.63424 
         1.5156         30.0899         5.57838 
        1.52172         29.8468         5.52328 
        1.52787         29.8359         5.46882 
          1.534         29.5464         5.41515 
        1.54013         29.5775         5.36226 
        1.54627         29.3013         5.30998 
        1.55241         29.2254         5.25839 
        1.55855         29.0475         5.20755 
        1.56467         28.7855         5.15753 
         1.5708         28.8496         5.10802 
        1.57695         28.6571         5.05909 
        1.58308         28.4886          5.0109 
        1.58922         28.3417         4.96332 
        1.59535         28.3077         4.91636 
         1.6015          28.211         4.86995 
        1.60764         27.9801         4.82416 
        1.61376         27.8249         4.77909 
        1.61989         27.6783         4.73455 
        1.62604         27.5535         4.69048 
        1.63218         27.3128           4.647 
        1.63831         27.3203         4.60416 
        1.64444         27.2021         4.56186 
        1.65059         27.0361         4.51998 
        1.65673         26.9553         4.47867 
        1.66285         26.8436         4.43799 
        1.66898         26.7305          4.3978 
        1.67512         26.5069         4.35804 
        1.68127         26.4905         4.31872 
         1.6874         26.4056         4.27998 
        1.69353         26.2016         4.24173 
        1.69967         26.1192         4.20386 
        1.70581         26.0202         4.16647 
        1.71193         25.8687         4.12967 
        1.71806         25.8021         4.09323 
        1.72421          25.622         4.05717 
        1.73035         25.5984         4.02158 
        1.73649         25.4306         3.98642 
        1.74262         25.2784         3.95171 
        1.74876         25.3234         3.91739 
        1.75489         25.0763         3.88354 
        1.76101          25.072         3.85011 
        1.76715         24.8246         3.81702 
        1.77329         24.7369         3.78428 
        1.77943         24.7191         3.75191 
        1.78557         24.6225         3.71997 
        1.79171         24.4744         3.68839 
        1.79785         24.3887         3.65717 
        1.80399         24.2424         3.62631 
        1.81012         24.1505         3.59586 
        1.81625         24.0198         3.56576 
        1.82239         23.9152         3.53597 
        1.82853         23.8629         3.50653 
        1.83466         23.7021         3.47745 
        1.84078         23.6296         3.44873 
        1.84692         23.4969         3.42029 
        1.85306         23.4268         3.39213 
         1.8592         23.3069         3.36434 
        1.86533         23.2498         3.33687 
        1.87147         23.1359         3.30968 
        1.87761         23.0668         3.28277 
        1.88375         22.9477          3.2562 
        1.88988         22.7878         3.22995 
        1.89601         22.7581         3.20397 
        1.90215         22.6787         3.17826 
        1.90829         22.5443         3.15284 
        1.91442         22.4647          3.1277 
        1.92056         22.3887         3.10285 
         1.9267         22.3161         3.07825 
        1.93284         22.2512          3.0539 
        1.93897          22.135         3.02985 
        1.94509         22.0648         3.00612 
        1.95123         21.9355         2.98258 
        1.95737         21.8774         2.95927 
        1.96349         21.8142         2.93628 
        1.96964         21.6861         2.91346 
        1.97578         21.5898         2.89087 
        1.98192         21.5075         2.86856 
        1.98805         21.4023         2.84649 
        1.99419         21.3133         2.82465 
        2.00033         21.2357         2.80303 
        2.00647          21.173         2.78164 
         2.0126         21.0675          2.7605 
        2.01874         21.0054         2.73956 
        2.02488         20.8765         2.71881 
        2.03101         20.8274         2.69832 
        2.03714         20.7511         2.67805 
        2.04328         20.6646         2.65797 
        2.04941         20.5344         2.63811 
        2.05554         20.5001         2.61847 
        2.06167         20.4199           2.599 
        2.06781         20.3094         2.57973 
        2.07396          20.265         2.56062 
        2.08009         20.1461         2.54174 
        2.08622         20.0873         2.52307 
        2.09237         19.9982         2.50455 
        2.09851         19.9701         2.48622 
        2.10464         19.8731         2.46809 
        2.11077         19.8055         2.45017 
        2.11691         19.6759         2.43239 
        2.12305         19.6398         2.41478 
        2.12918         19.5808         2.39739 
        2.13531         19.4361         2.38016 
        2.14145         19.4203         2.36307 
         2.1476          19.325         2.34612 
        2.15372         19.2805         2.32943 
        2.15985         19.1872         2.31287 
        2.16599         19.0782         2.29644 
        2.17213         19.0749         2.28018 
        2.17827         18.9685         2.26408 
         2.1844         18.8716         2.24815 
        2.19054         18.8322         2.23236 
        2.19666         18.7398         2.21676 
         2.2028         18.6986         2.20128 
        2.20893         18.6364         2.18595 
        2.21508         18.5589         2.17074 
        2.22122         18.4872         2.15567 
        2.22736         18.4185         2.14078 
        2.23349         18.3902         2.12603 
        2.23962         18.2951         2.11141 
        2.24577         18.2143         2.09692 
         2.2519         18.1265         2.08258 
        2.25802         18.0423          2.0684 
        2.26417         17.9663         2.05431 
        2.27031         17.9005         2.04034 
        2.27644         17.8613         2.02654 
        2.28257         17.8219         2.01286 
        2.28872         17.7239         1.99929 
        2.29486         17.6853         1.98584 
        2.30099         17.6112         1.97255 
        2.30712          17.555         1.95937 
        2.31326          17.469         1.94628 
         2.3194         17.4142         1.93333 
        2.32553         17.3546         1.92051 
        2.33166         17.2905         1.90782 
         2.3378         17.2166         1.89522 
        2.34394         17.1742         1.88273 
        2.35007         17.0876         1.87038 
        2.35619         17.0439         1.85814 
        2.36233         16.9696         1.84599 
        2.36848         16.9296         1.83392 
        2.37462         16.8803         1.82199 
        2.38075         16.7813         1.81017 
        2.38689         16.7398         1.79844 
        2.39303         16.6598         1.78683 
        2.39916         16.6035         1.77532 
        2.40529         16.5291         1.76392 
        2.41143         16.5041         1.75261 
        2.41757         16.3969         1.74139 
         2.4237          16.344         1.73029 
        2.42983         16.2852         1.71929 
        2.43598         16.2499         1.70836 
        2.44211         16.1739         1.69753 
        2.44823         16.1003         1.68683 
        2.45437         16.0757         1.67619 
        2.46052         16.0118         1.66563 
        2.46665         15.9778         1.65518 
        2.47279         15.8727         1.64482 
        2.47892         15.8702         1.63455 
        2.48507           15.78         1.62435 
         2.4912         15.7275         1.61426 
