# k  (h/Mpc)    Pcb(k)  (Mpc/h)^3    Pcb_linear(k)  (Mpc/h)^3
     0.00783031         1905.13         1916.22 
       0.013688         2444.87          2474.8 
       0.019231         2610.81         2625.82 
      0.0249154         2555.93         2555.49 
      0.0312784         2336.26         2343.48 
      0.0375637         2085.67         2097.54 
      0.0433917         1889.45         1889.57 
      0.0492413         1712.47         1719.71 
      0.0555754         1579.66         1578.81 
      0.0619321          1449.1         1468.54 
       0.067871         1370.29         1377.97 
      0.0738098         1282.58         1287.57 
      0.0800417         1185.47         1187.06 
      0.0862327         1077.86         1082.78 
      0.0921407         980.506         984.925 
      0.0982031         893.937         893.114 
       0.104506         806.942         812.383 
       0.110769         745.344         748.933 
       0.116806         705.635         701.933 
       0.122832         663.082         664.938 
       0.129052         633.047         632.141 
       0.135211         604.991         600.579 
       0.141259         568.611         567.823 
       0.147318         529.404         532.722 
       0.153489         496.296         495.879 
       0.159709         464.662         459.928 
       0.165845         426.702         427.831 
       0.171974         407.929         400.506 
       0.178125         386.254         378.116 
       0.184229         364.177         360.161 
        0.19034         352.904         345.091 
       0.196428         339.324         331.446 
       0.202534         320.787         317.863 
       0.208729         310.772          303.45 
       0.214876         298.174         288.437 
       0.220989         278.158         273.252 
       0.227147         269.183         258.412 
        0.23329         256.893          244.75 
       0.239377         246.804         232.778 
       0.245482         234.749         222.432 
       0.251667         224.539         213.436 
       0.257832          220.17         205.538 
       0.263955         209.589         198.266 
       0.270079         202.488         191.156 
        0.27624         193.801          183.93 
       0.282372         187.459         176.612 
        0.28843         184.102         169.376 
       0.294538         175.787         162.271 
       0.300721         167.856          155.49 
        0.30691         164.132         149.262 
       0.313033         157.552         143.701 
       0.319153         154.552         138.693 
       0.325316         148.084         134.083 
        0.33145         143.599         129.781 
       0.337538         139.501         125.663 
       0.343633         135.556         121.603 
       0.349808         131.263         117.527 
       0.355968         127.344         113.512 
       0.362074         124.746         109.642 
       0.368217         121.238         105.912 
       0.374374         118.613         102.391 
       0.380519         113.514         99.1111 
       0.386598         110.574         96.0884 
       0.392688         107.535         93.2546 
        0.39888          105.53         90.5232 
       0.405048          103.12         87.9122 
       0.411186         100.704         85.3903 
       0.417313          98.015         82.9278 
       0.423458         95.3878         80.5172 
       0.429607         93.7707         78.1725 
       0.435692         92.1055         75.9331 
       0.441815         88.8214         73.7757 
       0.447964         86.2976         71.7142 
       0.454126         84.7503         69.7504 
       0.460267         84.0443         67.8892 
       0.466387         81.7988         66.1173 
        0.47254         80.7245         64.4029 
       0.478662         78.1487         62.7525 
       0.484765         76.7026          61.156 
       0.490885         74.6628         59.5998 
       0.497035         73.8079         58.0799 
       0.503198         71.9884         56.6055 
       0.509342         70.2173         55.1877 
       0.515458         69.4192         53.8292 
       0.521598         67.7738         52.5172 
       0.527764         66.9515         51.2506 
       0.533884         65.7361         50.0408 
           0.54         64.3304          48.874 
       0.546137         62.5151         47.7401 
       0.552299         61.5675         46.6354 
       0.558452         60.3906          45.565 
       0.564573         59.9829         44.5313 
       0.570708         58.2749         43.5257 
       0.576825          57.616         42.5533 
       0.582926         56.7588         41.6136 
       0.589034          55.723         40.7031 
       0.595184         54.9887         39.8163 
       0.601379         53.5445         38.9519 
       0.607522         52.8396         38.1212 
       0.613639         52.1093         37.3184 
       0.619772         51.2486         36.5366 
       0.625918         50.3056         35.7752 
       0.632068         49.9063         35.0349 
       0.638161         48.9052         34.3218 
         0.6443         48.2803         33.6232 
       0.650464          47.152         32.9415 
       0.656582         46.8988         32.2838 
       0.662703         46.3954         31.6442 
       0.668861         45.2323          31.019 
       0.675024         44.8363         30.4108 
       0.681124         44.4232         29.8256 
       0.687237         43.5624         29.2549 
       0.693381         42.8402         28.6965 
       0.699536          42.643         28.1516 
       0.705665         41.8762          27.623 
       0.711789         41.1881         27.1084 
       0.717957         40.4617         26.6034 
        0.72409         40.1128         26.1142 
       0.730186          39.923         25.6405 
       0.736317         39.1752         25.1762 
       0.742472         38.7058          24.722 
       0.748622         38.1155         24.2795 
        0.75476         37.2775          23.849 
       0.760888          37.188         23.4296 
       0.767043         36.5911         23.0187 
       0.773185         36.2831         22.6186 
       0.779291          35.887         22.2303 
       0.785407          35.297         21.8506 
       0.791564         35.1633         21.4774 
       0.797719           34.48         21.1132 
       0.803834         34.2897         20.7598 
       0.809972         33.7107         20.4134 
       0.816124         33.3758         20.0742 
       0.822261         33.0322         19.7437 
       0.828378         32.7266         19.4217 
       0.834502          32.418         19.1067 
       0.840667         32.0919         18.7967 
       0.846816         31.4301         18.4945 
       0.852925         31.3832         18.2009 
       0.859047         31.0373         17.9131 
       0.865192         30.6191         17.6306 
       0.871341         30.2562          17.354 
       0.877463         29.9935         17.0847 
       0.883569         29.8465         16.8218 
       0.889708         29.4074         16.5631 
       0.895864         29.0572         16.3093 
       0.902008         28.7234         16.0613 
       0.908149         28.4465         15.8187 
       0.914301          28.312         15.5807 
       0.920448         27.9089         15.3479 
       0.926574         27.6571         15.1207 
       0.932687         27.3735         14.8986 
       0.938823         27.0583         14.6802 
       0.944975         26.8411         14.4657 
       0.951105          26.588         14.2563 
       0.957225         26.4507         14.0515 
       0.963368         26.0624         13.8499 
       0.969511          25.836         13.6524 
       0.975621         25.6116         13.4598 
       0.981748         25.3181         13.2705 
       0.987916         25.1685         13.0836 
        0.99406         24.9002          12.901 
        1.00019         24.7176         12.7224 
        1.00632         24.5109         12.5473 
        1.01246         24.3245         12.3752 
        1.01859         24.0335         12.2067 
        1.02471         23.8154         12.0415 
        1.03085         23.7345         11.8789 
        1.03698         23.5153         11.7196 
        1.04314         23.2535         11.5626 
        1.04929         23.0039         11.4088 
        1.05541         22.9323         11.2585 
        1.06154         22.7603         11.1105 
        1.06769         22.5412         10.9649 
        1.07382         22.2537         10.8225 
        1.07993         22.0794          10.683 
        1.08607         21.9886         10.5453 
        1.09222         21.7504         10.4099 
        1.09836          21.636         10.2771 
        1.10449         21.4153         10.1468 
        1.11063         21.3074         10.0186 
        1.11677         21.2042         9.89262 
         1.1229         20.9936         9.76907 
        1.12903         20.8569         9.64754 
        1.13518         20.6131         9.52798 
        1.14131         20.5255         9.41053 
        1.14745         20.2547         9.29513 
        1.15359         20.1138         9.18165 
        1.15973         19.9513         9.07004 
        1.16584         19.8135         8.96079 
        1.17197         19.6473         8.85319 
        1.17811         19.5116         8.74703 
        1.18424         19.3925         8.64294 
        1.19038         19.2938         8.54024 
        1.19652         19.1188         8.43926 
        1.20267         18.9999         8.33993 
        1.20881         18.8176         8.24222 
        1.21495         18.6792         8.14624 
        1.22108         18.6525         8.05181 
         1.2272         18.4905          7.9591 
        1.23334          18.377         7.86765 
        1.23949         18.2276         7.77743 
        1.24562          18.068         7.68888 
        1.25174         17.9859         7.60185 
        1.25789         17.8236          7.5159 
        1.26402         17.7648         7.43145 
        1.27014         17.6653          7.3485 
        1.27628          17.451         7.26657 
        1.28244         17.4556         7.18574 
        1.28858         17.2755         7.10625 
        1.29471         17.0722         7.02815 
        1.30084         16.9897          6.9513 
        1.30697         16.9786         6.87548 
        1.31312         16.7941         6.80069 
        1.31925          16.719         6.72726 
        1.32537         16.6074         6.65498 
        1.33151         16.4973         6.58352 
        1.33765         16.3972         6.51314 
        1.34378         16.3429         6.44394 
        1.34992         16.2048          6.3757 
        1.35606         16.0649          6.3083 
         1.3622          15.953           6.242 
        1.36833         15.9113         6.17682 
        1.37445         15.8294          6.1126 
        1.38059         15.7385          6.0491 
        1.38675         15.6194         5.98635 
        1.39288         15.4811         5.92474 
        1.39901         15.4321         5.86404 
        1.40515         15.3217         5.80405 
         1.4113         15.2186         5.74492 
        1.41742         15.1631         5.68685 
        1.42355         15.0219         5.62947 
         1.4297          14.974         5.57272 
        1.43585         14.8978         5.51677 
        1.44198         14.8236         5.46181 
        1.44809         14.7312          5.4077 
        1.45423         14.6174         5.35413 
        1.46036         14.5527         5.30138 
        1.46649         14.4584         5.24933 
        1.47263         14.4082         5.19794 
        1.47877         14.3149         5.14726 
        1.48491         14.2385         5.09718 
        1.49104         14.1354         5.04787 
        1.49718         14.0922         4.99918 
        1.50333         14.0048         4.95106 
        1.50947         13.9188         4.90367 
         1.5156         13.8681         4.85697 
        1.52172         13.7873         4.81089 
        1.52787         13.7082         4.76531 
          1.534         13.6514         4.72038 
        1.54013         13.5761         4.67607 
        1.54627         13.4887         4.63226 
        1.55241         13.3893           4.589 
        1.55855         13.3774         4.54636 
        1.56467         13.2819         4.50437 
         1.5708         13.2388          4.4628 
        1.57695         13.1372         4.42169 
        1.58308         13.0566          4.3812 
        1.58922         13.0117         4.34118 
        1.59535         12.9249         4.30168 
         1.6015         12.8293         4.26262 
        1.60764         12.8053         4.22406 
        1.61376         12.7628         4.18609 
        1.61989         12.6503         4.14855 
        1.62604         12.6255         4.11139 
        1.63218         12.5668         4.07471 
        1.63831         12.4839         4.03857 
        1.64444         12.3973         4.00284 
        1.65059         12.3379         3.96747 
        1.65673         12.3058         3.93257 
        1.66285         12.2423         3.89818 
        1.66898         12.1874         3.86419 
        1.67512          12.117         3.83055 
        1.68127         12.0283         3.79727 
         1.6874         12.0072         3.76447 
        1.69353         11.9358         3.73207 
        1.69967         11.8798         3.69998 
        1.70581         11.8128         3.66828 
        1.71193         11.7875         3.63707 
        1.71806         11.7381         3.60616 
        1.72421         11.6458         3.57555 
        1.73035         11.6019         3.54533 
        1.73649         11.5663         3.51547 
        1.74262         11.4541         3.48598 
        1.74876         11.4654          3.4568 
        1.75489         11.3939         3.42802 
        1.76101         11.3211         3.39958 
        1.76715         11.2972         3.37142 
        1.77329         11.2462         3.34355 
        1.77943         11.1621         3.31598 
        1.78557         11.1583         3.28876 
        1.79171          11.094         3.26184 
        1.79785         11.0581         3.23522 
        1.80399         10.9574          3.2089 
        1.81012         10.9447         3.18291 
        1.81625         10.8606         3.15722 
        1.82239          10.822         3.13178 
        1.82853         10.7687         3.10663 
        1.83466         10.7033         3.08178 
        1.84078         10.6906         3.05723 
        1.84692         10.6462          3.0329 
        1.85306         10.6028         3.00881 
         1.8592         10.5605         2.98502 
        1.86533         10.5182          2.9615 
        1.87147         10.4494         2.93821 
        1.87761         10.4255         2.91516 
        1.88375         10.3673         2.89238 
        1.88988          10.312         2.86988 
        1.89601         10.2951          2.8476 
        1.90215         10.2179         2.82554 
        1.90829         10.1935         2.80372 
        1.91442         10.1396         2.78213 
        1.92056         10.1328         2.76079 
         1.9267         10.0581         2.73965 
        1.93284         10.0499         2.71872 
        1.93897         9.98437         2.69805 
        1.94509         9.92927         2.67764 
        1.95123         9.91493         2.65739 
        1.95737          9.8752         2.63733 
        1.96349          9.7915         2.61754 
        1.96964         9.77333         2.59789 
        1.97578         9.73521         2.57843 
        1.98192         9.68412         2.55921 
        1.98805         9.65635         2.54018 
        1.99419         9.62924         2.52135 
        2.00033         9.57806          2.5027 
        2.00647          9.5535         2.48425 
         2.0126         9.51049         2.46601 
        2.01874         9.45757         2.44793 
        2.02488         9.42863         2.43001 
        2.03101         9.37577          2.4123 
        2.03714          9.3334         2.39479 
        2.04328         9.30466         2.37744 
        2.04941         9.25603         2.36027 
        2.05554         9.24415         2.34328 
        2.06167         9.20138         2.32643 
        2.06781         9.15587         2.30975 
        2.07396          9.1305         2.29321 
        2.08009         9.08485         2.27686 
        2.08622         9.06904         2.26069 
        2.09237         9.04141         2.24464 
        2.09851          8.9705         2.22875 
        2.10464            8.96         2.21304 
        2.11077         8.90953          2.1975 
        2.11691         8.90861         2.18207 
        2.12305         8.84772         2.16679 
        2.12918         8.81501         2.15169 
        2.13531         8.78467         2.13674 
        2.14145         8.75668         2.12189 
         2.1476         8.72102         2.10717 
        2.15372         8.68171         2.09266 
        2.15985         8.65885         2.07827 
        2.16599         8.62546         2.06398 
        2.17213         8.61472         2.04983 
        2.17827         8.55851         2.03583 
         2.1844         8.53484         2.02196 
        2.19054         8.50403         2.00823 
        2.19666         8.47069         1.99463 
         2.2028         8.42972         1.98116 
        2.20893         8.41266          1.9678 
        2.21508         8.38239         1.95455 
        2.22122         8.32314         1.94141 
        2.22736         8.31312         1.92843 
        2.23349         8.28066         1.91556 
        2.23962         8.25994         1.90281 
        2.24577         8.21668         1.89016 
         2.2519           8.206         1.87765 
        2.25802         8.13957         1.86526 
        2.26417         8.13436         1.85296 
        2.27031         8.09538         1.84075 
        2.27644         8.06579         1.82869 
        2.28257         8.03229         1.81674 
        2.28872         8.02324         1.80488 
        2.29486         7.99091         1.79312 
        2.30099         7.95939         1.78149 
        2.30712         7.92717         1.76996 
        2.31326         7.89622         1.75851 
         2.3194         7.86885         1.74717 
        2.32553         7.83049         1.73595 
        2.33166         7.80938         1.72483 
         2.3378         7.78978         1.71379 
        2.34394         7.76573         1.70285 
        2.35007         7.72027         1.69202 
        2.35619         7.71455         1.68129 
        2.36233         7.66946         1.67064 
        2.36848         7.65308         1.66005 
        2.37462         7.62636         1.64958 
        2.38075         7.60828         1.63921 
        2.38689          7.5805         1.62892 
        2.39303         7.53953         1.61872 
        2.39916         7.52377         1.60861 
        2.40529         7.49192          1.5986 
        2.41143         7.47338         1.58866 
        2.41757         7.44931          1.5788 
         2.4237         7.41405         1.56905 
        2.42983         7.40507         1.55937 
        2.43598         7.38056         1.54976 
        2.44211         7.35897         1.54024 
        2.44823         7.31351         1.53082 
        2.45437         7.29676         1.52145 
        2.46052         7.27587         1.51216 
        2.46665         7.25874         1.50296 
        2.47279         7.22229         1.49384 
        2.47892         7.19201         1.48479 
        2.48507         7.18056          1.4758 
         2.4912         7.15256         1.46691 
