# k  (h/Mpc)    Pcb(k)  (Mpc/h)^3    Pcb_linear(k)  (Mpc/h)^3
     0.00783031         2559.85         2588.03 
       0.013688          3030.6         3028.62 
       0.019231         2918.25         2914.65 
      0.0249154          2532.7         2549.92 
      0.0312784         2075.99         2076.22 
      0.0375637         1687.91          1679.7 
      0.0433917         1416.85         1417.91 
      0.0492413         1251.66         1248.75 
      0.0555754          1130.3         1137.01 
      0.0619321         1064.34         1057.76 
       0.067871          978.46         983.022 
      0.0738098         888.761         893.237 
      0.0800417         778.631         784.501 
      0.0862327         674.223         674.888 
      0.0921407         585.854         582.769 
      0.0982031         510.854          509.84 
       0.104506         465.735         458.943 
       0.110769         433.902         428.718 
       0.116806          412.58         410.754 
       0.122832         398.629         395.376 
       0.129052         375.313         375.465 
       0.135211         349.172         348.938 
       0.141259         321.023         317.747 
       0.147318         290.621         285.402 
       0.153489         260.222         255.755 
       0.159709          237.81         232.252 
       0.165845         223.594         216.086 
       0.171974         210.863         205.731 
       0.178125          203.99         198.796 
       0.184229         197.809         192.707 
        0.19034         187.417         185.322 
       0.196428         179.951         175.738 
       0.202534         170.439         164.205 
       0.208729         157.401         151.766 
       0.214876         145.306         140.155 
       0.220989          137.23         130.434 
       0.227147         128.561         122.933 
        0.23329         123.067          117.53 
       0.239377         119.559         113.567 
       0.245482         114.115          110.14 
       0.251667         111.722         106.457 
       0.257832         107.357          102.14 
       0.263955         102.441          97.187 
       0.270079         97.2884         91.8657 
        0.27624         93.2941         86.6143 
       0.282372         88.7784         81.8968 
        0.28843         84.4108         77.9775 
       0.294538         80.8834         74.7909 
       0.300721         78.9984         72.1828 
        0.30691         75.8039         69.9248 
       0.313033          73.553         67.7611 
       0.319153         70.2048          65.479 
       0.325316         68.8522         62.9857 
        0.33145         65.8674         60.3653 
       0.337538         63.7445         57.7521 
       0.343633         61.0333         55.2669 
       0.349808         58.9646         52.9978 
       0.355968         57.1494         51.0192 
       0.362074         55.2537         49.3262 
       0.368217         53.5803         47.8084 
       0.374374         51.9547         46.3869 
       0.380519         50.6761         44.9875 
       0.386598         49.2195         43.5697 
       0.392688         48.0399         42.1203 
        0.39888         46.4353         40.6368 
       0.405048          45.126          39.196 
       0.411186         43.8693         37.8465 
       0.417313           42.39         36.6036 
       0.423458         41.2269         35.4684 
       0.429607         40.1012         34.4317 
       0.435692         38.8252         33.4719 
       0.441815         38.1313         32.5424 
       0.447964         37.4114         31.6277 
       0.454126         35.8632         30.7163 
       0.460267         35.2128         29.8119 
       0.466387         34.1337          28.929 
        0.47254         33.4949         28.0742 
       0.478662         32.8712         27.2647 
       0.484765         31.8121         26.5034 
       0.490885         31.0717         25.7883 
       0.497035         30.6393         25.1109 
       0.503198         29.7741         24.4618 
       0.509342         28.9971         23.8343 
       0.515458         28.3508         23.2247 
       0.521598         27.8301         22.6264 
       0.527764         27.1969         22.0385 
       0.533884         26.7175         21.4698 
           0.54          26.068         20.9204 
       0.546137         25.6344         20.3924 
       0.552299         25.1763          19.887 
       0.558452         24.3896          19.405 
       0.564573         23.9959         18.9438 
       0.570708          23.571         18.4971 
       0.576825         22.9911         18.0651 
       0.582926         22.5153         17.6467 
       0.589034         21.9208         17.2392 
       0.595184         21.6237         16.8399 
       0.601379         21.1669         16.4488 
       0.607522         20.7711         16.0727 
       0.613639         20.5359         15.7105 
       0.619772          19.987         15.3602 
       0.625918         19.8453         15.0218 
       0.632068          19.519          14.695 
       0.638161         19.0653         14.3813 
         0.6443         18.6766         14.0743 
       0.650464         18.3182         13.7743 
       0.656582         18.1878          13.484 
       0.662703         17.8242         13.2013 
       0.668861         17.4696         12.9249 
       0.675024         17.1448         12.6563 
       0.681124         16.8415         12.3985 
       0.687237         16.5485         12.1479 
       0.693381         16.3753         11.9035 
       0.699536         15.9378         11.6657 
       0.705665         15.8496         11.4356 
       0.711789         15.4967         11.2117 
       0.717957         15.2611         10.9921 
        0.72409         15.0263         10.7794 
       0.730186         14.8097         10.5735 
       0.736317         14.6318         10.3717 
       0.742472          14.375         10.1744 
       0.748622         14.2025         9.98252 
        0.75476         13.9279         9.79608 
       0.760888         13.7116          9.6148 
       0.767043         13.5366         9.43751 
       0.773185         13.2835         9.26513 
       0.779291         13.1964         9.09809 
       0.785407          13.027         8.93496 
       0.791564         12.7901         8.77481 
       0.797719         12.4947         8.61865 
       0.803834         12.4661         8.46726 
       0.809972         12.3391         8.31895 
       0.816124         12.0559         8.17385 
       0.822261         11.9025         8.03259 
       0.828378         11.7739          7.8951 
       0.834502         11.6635         7.76071 
       0.840667         11.4724         7.62859 
       0.846816         11.2551         7.49993 
       0.852925         11.1462         7.37506 
       0.859047         11.0133          7.2528 
       0.865192         10.9045         7.13292 
       0.871341         10.7966         7.01568 
       0.877463         10.6067         6.90162 
       0.883569         10.4581          6.7904 
       0.889708          10.283         6.68106 
       0.895864         10.1841         6.57387 
       0.902008         10.1064         6.46925 
       0.908149         9.98979         6.36698 
       0.914301         9.89562         6.26676 
       0.920448         9.71559          6.1688 
       0.926574         9.61036         6.07327 
       0.932687         9.49666         5.97998 
       0.938823         9.37077         5.88831 
       0.944975         9.25627         5.79836 
       0.951105         9.16174         5.71061 
       0.957225         9.08979         5.62483 
       0.963368         8.99178         5.54053 
       0.969511         8.89453         5.45795 
       0.975621         8.79474         5.37749 
       0.981748         8.67649         5.29846 
       0.987916         8.61606         5.22051 
        0.99406         8.48324         5.14443 
        1.00019         8.35473         5.07002 
        1.00632         8.32752         4.99715 
        1.01246         8.23417          4.9256 
        1.01859         8.09861         4.85558 
        1.02471         8.05541           4.787 
        1.03085         7.96465         4.71951 
        1.03698         7.84144         4.65346 
        1.04314         7.79121          4.5884 
        1.04929         7.69168         4.52473 
        1.05541         7.59936         4.46253 
        1.06154           7.546         4.40135 
        1.06769         7.50541         4.34122 
        1.07382         7.39099         4.28242 
        1.07993         7.31843         4.22484 
        1.08607         7.25733         4.16808 
        1.09222         7.19186         4.11232 
        1.09836         7.10171         4.05763 
        1.10449         7.04304         4.00401 
        1.11063         6.95953          3.9513 
        1.11677         6.92335         3.89955 
         1.1229         6.87225         3.84883 
        1.12903         6.77777         3.79896 
        1.13518         6.69349         3.74994 
        1.14131         6.65035         3.70181 
        1.14745          6.5806         3.65455 
        1.15359         6.53587         3.60811 
        1.15973         6.46571         3.56245 
        1.16584         6.37559          3.5178 
        1.17197          6.3333         3.47384 
        1.17811         6.30056          3.4305 
        1.18424         6.23497         3.38802 
        1.19038         6.20554         3.34614 
        1.19652         6.12848         3.30498 
        1.20267         6.06656         3.26451 
        1.20881         6.04335         3.22473 
        1.21495         5.98737         3.18568 
        1.22108         5.91201         3.14727 
         1.2272         5.86948         3.10959 
        1.23334         5.80677         3.07244 
        1.23949         5.75288         3.03581 
        1.24562         5.72242         2.99987 
        1.25174          5.6752         2.96457 
        1.25789         5.62709         2.92974 
        1.26402         5.59746         2.89552 
        1.27014         5.54251         2.86193 
        1.27628         5.47705         2.82878 
        1.28244         5.42284         2.79608 
        1.28858         5.41932         2.76395 
        1.29471         5.35042         2.73239 
        1.30084         5.29686         2.70135 
        1.30697         5.28944         2.67075 
        1.31312         5.20323         2.64058 
        1.31925         5.16428         2.61097 
        1.32537         5.13146         2.58184 
        1.33151         5.10997         2.55306 
        1.33765         5.05193         2.52472 
        1.34378         5.01593         2.49688 
        1.34992         4.97995         2.46943 
        1.35606         4.93491         2.44234 
         1.3622         4.90805          2.4157 
        1.36833         4.85837         2.38953 
        1.37445          4.8271         2.36375 
        1.38059         4.80924         2.33827 
        1.38675         4.76367         2.31311 
        1.39288         4.73982         2.28842 
        1.39901         4.67914          2.2641 
        1.40515         4.65611         2.24008 
         1.4113         4.62062         2.21641 
        1.41742         4.58603         2.19318 
        1.42355         4.54348         2.17024 
         1.4297         4.52158         2.14755 
        1.43585         4.49674          2.1252 
        1.44198         4.47236         2.10325 
        1.44809         4.43007         2.08165 
        1.45423         4.39408         2.06028 
        1.46036         4.35677         2.03924 
        1.46649         4.33597         2.01849 
        1.47263         4.29414         1.99801 
        1.47877         4.26572         1.97782 
        1.48491         4.24165         1.95788 
        1.49104         4.21255         1.93825 
        1.49718         4.18512         1.91888 
        1.50333         4.16039         1.89974 
        1.50947         4.12109          1.8809 
         1.5156         4.10008         1.86235 
        1.52172         4.07648         1.84404 
        1.52787         4.04849         1.82594 
          1.534          4.0138         1.80811 
        1.54013         3.99475         1.79054 
        1.54627         3.95886         1.77316 
        1.55241         3.93291         1.75601 
        1.55855         3.91665         1.73912 
        1.56467         3.88598         1.72249 
         1.5708         3.86708         1.70603 
        1.57695         3.83383         1.68976 
        1.58308         3.80034         1.67374 
        1.58922         3.79291         1.65792 
        1.59535         3.77224         1.64231 
         1.6015         3.73472         1.62687 
        1.60764         3.70896         1.61165 
        1.61376         3.69432         1.59665 
        1.61989         3.66947         1.58184 
        1.62604          3.6447         1.56718 
        1.63218         3.63531         1.55272 
        1.63831         3.60251         1.53847 
        1.64444         3.58562         1.52439 
        1.65059         3.54496         1.51046 
        1.65673         3.54694         1.49671 
        1.66285         3.50919         1.48318 
        1.66898         3.48973          1.4698 
        1.67512         3.47142         1.45657 
        1.68127         3.44814         1.44349 
         1.6874         3.43509         1.43059 
        1.69353         3.40243         1.41786 
        1.69967         3.39297         1.40526 
        1.70581         3.37392         1.39281 
        1.71193         3.34761         1.38056 
        1.71806         3.33285         1.36843 
        1.72421         3.31151         1.35642 
        1.73035         3.29692         1.34457 
        1.73649          3.2752         1.33286 
        1.74262         3.25329          1.3213 
        1.74876         3.24092         1.30987 
        1.75489         3.22225          1.2986 
        1.76101         3.19553         1.28747 
        1.76715         3.18629         1.27645 
        1.77329         3.16687         1.26554 
        1.77943         3.13909         1.25476 
        1.78557         3.12899         1.24412 
        1.79171          3.1129          1.2336 
        1.79785         3.09429         1.22319 
        1.80399         3.07578         1.21291 
        1.81012         3.05744         1.20277 
        1.81625         3.04476         1.19274 
        1.82239         3.02887         1.18281 
        1.82853         3.00572           1.173 
        1.83466         2.99418         1.16331 
        1.84078         2.98355         1.15374 
        1.84692          2.9707         1.14426 
        1.85306          2.9454         1.13487 
         1.8592         2.92639         1.12561 
        1.86533         2.91275         1.11645 
        1.87147         2.90049         1.10738 
        1.87761         2.88295         1.09842 
        1.88375         2.86632         1.08956 
        1.88988          2.8545          1.0808 
        1.89601         2.83684         1.07214 
        1.90215         2.82142         1.06357 
        1.90829         2.80474         1.05509 
        1.91442         2.79343         1.04671 
        1.92056         2.77924         1.03842 
         1.9267         2.76129         1.03022 
        1.93284         2.75075         1.02209 
        1.93897         2.73585         1.01407 
        1.94509         2.72562         1.00616 
        1.95123         2.70905        0.998306 
        1.95737         2.68859        0.990532 
        1.96349         2.68335        0.982861 
        1.96964         2.67209        0.975248 
        1.97578         2.64924        0.967712 
        1.98192         2.64361        0.960271 
        1.98805         2.62945        0.952906 
        1.99419         2.61414        0.945619 
        2.00033         2.60602        0.938404 
        2.00647         2.59063        0.931266 
         2.0126         2.58262        0.924214 
        2.01874         2.56153        0.917224 
        2.02488         2.55418        0.910299 
        2.03101          2.5361         0.90346 
        2.03714         2.52429        0.896696 
        2.04328         2.51281        0.889994 
        2.04941         2.49716        0.883365 
        2.05554         2.48919        0.876809 
        2.06167         2.47822         0.87031 
        2.06781         2.46716        0.863876 
        2.07396         2.45868        0.857498 
        2.08009         2.44551        0.851195 
        2.08622         2.43192        0.844962 
        2.09237         2.41598        0.838779 
        2.09851         2.41327        0.832657 
        2.10464          2.4026        0.826605 
        2.11077         2.38483        0.820621 
        2.11691         2.37452        0.814683 
        2.12305         2.36742        0.808802 
        2.12918         2.35891        0.802994 
        2.13531         2.34695        0.797242 
        2.14145         2.33603        0.791533 
         2.1476         2.32165        0.785874 
        2.15372         2.30988        0.780297 
        2.15985         2.30857        0.774769 
        2.16599         2.28945        0.769279 
        2.17213         2.27857        0.763847 
        2.17827         2.27409        0.758469 
         2.1844          2.2624        0.753148 
        2.19054         2.25106        0.747875 
        2.19666         2.23963         0.74266 
         2.2028         2.22934        0.737491 
        2.20893         2.22069        0.732367 
        2.21508         2.21052        0.727287 
        2.22122         2.19947        0.722253 
        2.22736         2.19168        0.717277 
        2.23349         2.18347        0.712348 
        2.23962         2.17221        0.707464 
        2.24577         2.16553         0.70262 
         2.2519         2.15879        0.697829 
        2.25802         2.14725         0.69309 
        2.26417         2.14045        0.688381 
        2.27031         2.12791        0.683711 
        2.27644         2.11704        0.679099 
        2.28257         2.10442        0.674529 
        2.28872         2.10493        0.669992 
        2.29486         2.09082        0.665498 
        2.30099         2.07989        0.661054 
        2.30712          2.0721        0.656648 
        2.31326         2.06186        0.652275 
         2.3194         2.05613        0.647944 
        2.32553         2.05048         0.64366 
        2.33166         2.04108        0.639416 
         2.3378         2.03145        0.635204 
        2.34394         2.02262        0.631029 
        2.35007         2.01376        0.626897 
        2.35619         2.00671        0.622808 
        2.36233         1.99833        0.618744 
        2.36848         1.98826        0.614709 
        2.37462         1.98513        0.610718 
        2.38075         1.97276        0.606766 
        2.38689         1.96988        0.602846 
        2.39303          1.9577         0.59896 
        2.39916         1.95133        0.595113 
        2.40529         1.94314          0.5913 
        2.41143          1.9345        0.587518 
        2.41757         1.92885        0.583766 
         2.4237         1.92267        0.580055 
        2.42983         1.90913        0.576375 
        2.43598         1.90405        0.572718 
        2.44211         1.89448        0.569098 
        2.44823         1.88997        0.565518 
        2.45437         1.88106        0.561959 
        2.46052         1.87697        0.558427 
        2.46665         1.86881        0.554931 
        2.47279          1.8592        0.551467 
        2.47892         1.85335        0.548029 
        2.48507         1.84712        0.544618 
         2.4912         1.83507        0.541242 
