# k  (h/Mpc)    Pcb(k)  (Mpc/h)^3    Pcb_linear(k)  (Mpc/h)^3
     0.00783031         24302.2           24691 
       0.013688         29237.8         28875.1 
       0.019231         27881.4         27780.8 
      0.0249154         23716.9         24300.7 
      0.0312784         19560.3         19784.4 
      0.0375637         16082.4           16005 
      0.0433917         13315.1         13509.9 
      0.0492413         11873.9         11897.8 
      0.0555754         10503.1         10832.9 
      0.0619321         10139.2         10077.7 
       0.067871         9107.72         9365.56 
      0.0738098         8299.94         8510.07 
      0.0800417          7243.2         7474.05 
      0.0862327         6375.83         6429.71 
      0.0921407         5696.63         5552.06 
      0.0982031         4990.19         4857.24 
       0.104506         4668.95         4372.32 
       0.110769         4336.36         4084.36 
       0.116806         4135.89         3913.21 
       0.122832         3950.93         3766.69 
       0.129052         3654.85            3577 
       0.135211         3426.56         3324.27 
       0.141259          3242.2         3027.12 
       0.147318          3009.4         2718.97 
       0.153489          2722.6         2436.52 
       0.159709         2554.87         2212.61 
       0.165845         2457.58          2058.6 
       0.171974         2340.65         1959.95 
       0.178125          2232.8         1893.88 
       0.184229         2130.01         1835.87 
        0.19034         2028.16         1765.51 
       0.196428         1969.89         1674.21 
       0.202534         1880.23         1564.34 
       0.208729         1783.25         1445.83 
       0.214876         1711.12         1335.22 
       0.220989         1642.21         1242.61 
       0.227147         1579.11         1171.14 
        0.23329         1515.02         1119.67 
       0.239377         1490.86         1081.92 
       0.245482         1401.26         1049.27 
       0.251667         1392.45         1014.18 
       0.257832         1333.07         973.052 
       0.263955         1285.38          925.87 
       0.270079         1238.39         875.176 
        0.27624         1219.85         825.147 
       0.282372         1170.46         780.204 
        0.28843         1162.86         742.866 
       0.294538         1103.97         712.508 
       0.300721         1093.98         687.662 
        0.30691         1055.36         666.151 
       0.313033         1032.05         645.538 
       0.319153         1014.05         623.797 
       0.325316         981.886         600.044 
        0.33145         958.929          575.08 
       0.337538         936.948         550.185 
       0.343633         919.555          526.51 
       0.349808         886.855         504.892 
       0.355968         879.306         486.042 
       0.362074         870.982         469.914 
       0.368217         841.533         455.454 
       0.374374         812.162         441.912 
       0.380519         812.561          428.58 
       0.386598         786.449         415.073 
       0.392688         782.479         401.265 
        0.39888         759.384         387.132 
       0.405048         751.545         373.407 
       0.411186         740.341          360.55 
       0.417313         724.881          348.71 
       0.423458         709.026         337.895 
       0.429607         702.943         328.019 
       0.435692         686.272         318.875 
       0.441815          678.32          310.02 
       0.447964         665.891         301.306 
       0.454126         660.551         292.623 
       0.460267         642.914         284.008 
       0.466387         634.024         275.596 
        0.47254         633.727         267.453 
       0.478662         623.242         259.741 
       0.484765         604.486         252.489 
       0.490885         599.762         245.676 
       0.497035         587.962         239.223 
       0.503198         583.592         233.039 
       0.509342         578.338         227.061 
       0.515458         574.138         221.253 
       0.521598          558.32         215.554 
       0.527764         551.604         209.953 
       0.533884         546.622         204.535 
           0.54         541.307         199.301 
       0.546137         535.421         194.271 
       0.552299          529.19         189.457 
       0.558452         523.651         184.864 
       0.564573          518.12         180.471 
       0.570708         510.999         176.215 
       0.576825         499.948           172.1 
       0.582926         499.957         168.113 
       0.589034         493.906         164.232 
       0.595184         490.095         160.427 
       0.601379         481.729         156.702 
       0.607522         475.556         153.119 
       0.613639         472.968         149.668 
       0.619772         466.846         146.331 
       0.625918         463.062         143.108 
       0.632068         456.036         139.994 
       0.638161         452.947         137.006 
         0.6443         447.448         134.081 
       0.650464         444.776         131.222 
       0.656582         438.433         128.457 
       0.662703          437.96         125.764 
       0.668861         431.656         123.131 
       0.675024         427.736         120.572 
       0.681124         423.726         118.116 
       0.687237         420.983         115.729 
       0.693381         414.304         113.401 
       0.699536         408.374         111.135 
       0.705665          407.23         108.942 
       0.711789         405.602          106.81 
       0.717957         401.517         104.718 
        0.72409         399.533         102.691 
       0.730186         393.816          100.73 
       0.736317          391.37         98.8073 
       0.742472         387.537         96.9281 
       0.748622          384.26         95.0998 
        0.75476         378.787         93.3237 
       0.760888         375.305         91.5967 
       0.767043         374.753         89.9076 
       0.773185         371.443         88.2654 
       0.779291         367.274         86.6741 
       0.785407         365.211           85.12 
       0.791564         361.611         83.5944 
       0.797719         359.808         82.1067 
       0.803834         354.274         80.6645 
       0.809972          353.87         79.2515 
       0.816124         352.304         77.8692 
       0.822261         348.431         76.5235 
       0.828378         346.076         75.2137 
       0.834502         341.537         73.9334 
       0.840667         339.412         72.6747 
       0.846816         338.114          71.449 
       0.852925         336.095         70.2595 
       0.859047         333.239         69.0947 
       0.865192         329.258         67.9526 
       0.871341         326.617         66.8358 
       0.877463         326.651         65.7492 
       0.883569         322.934         64.6896 
       0.889708         320.896          63.648 
       0.895864         320.656         62.6268 
       0.902008         317.013         61.6302 
       0.908149          312.85         60.6559 
       0.914301         311.293         59.7011 
       0.920448         309.385         58.7678 
       0.926574         305.813         57.8578 
       0.932687          304.81          56.969 
       0.938823         301.608         56.0957 
       0.944975         301.589         55.2388 
       0.951105         298.698         54.4029 
       0.957225         296.865         53.5857 
       0.963368         292.782         52.7825 
       0.969511         292.075         51.9958 
       0.975621         290.641         51.2294 
       0.981748         288.075         50.4764 
       0.987916         286.804         49.7339 
        0.99406         283.776         49.0091 
        1.00019         281.646         48.3002 
        1.00632         280.751          47.606 
        1.01246         278.239         46.9244 
        1.01859         277.552         46.2573 
        1.02471         274.109         45.6039 
        1.03085         273.191          44.961 
        1.03698         271.032         44.3318 
        1.04314         269.584         43.7119 
        1.04929         267.426         43.1054 
        1.05541         266.822         42.5129 
        1.06154         263.067           41.93 
        1.06769         262.723         41.3572 
        1.07382         260.351          40.797 
        1.07993         259.201         40.2485 
        1.08607         258.278         39.7078 
        1.09222         255.296         39.1765 
        1.09836         253.166         38.6555 
        1.10449         251.827         38.1447 
        1.11063         249.442         37.6425 
        1.11677         249.319         37.1496 
         1.1229         246.603         36.6663 
        1.12903         245.541         36.1913 
        1.13518         243.753         35.7242 
        1.14131         242.364         35.2657 
        1.14745         241.412         34.8155 
        1.15359         239.493         34.3731 
        1.15973         237.976         33.9381 
        1.16584         236.258         33.5127 
        1.17197         236.035         33.0939 
        1.17811         233.394          32.681 
        1.18424          231.84         32.2764 
        1.19038         230.859         31.8774 
        1.19652         228.741         31.4853 
        1.20267         228.925         31.0998 
        1.20881         226.244         30.7208 
        1.21495         225.254         30.3487 
        1.22108         223.458         29.9829 
         1.2272         222.248         29.6239 
        1.23334         221.856           29.27 
        1.23949         218.947          28.921 
        1.24562         217.992         28.5786 
        1.25174         217.342         28.2424 
        1.25789         215.862         27.9105 
        1.26402          213.93         27.5845 
        1.27014         213.004         27.2645 
        1.27628         210.965         26.9487 
        1.28244         210.931         26.6372 
        1.28858         208.991         26.3311 
        1.29471         208.468         26.0304 
        1.30084         206.269         25.7348 
        1.30697         205.454         25.4432 
        1.31312         203.622         25.1558 
        1.31925         202.357         24.8737 
        1.32537         202.036         24.5962 
        1.33151         200.164          24.322 
        1.33765          198.65         24.0521 
        1.34378         198.081         23.7868 
        1.34992         197.073         23.5253 
        1.35606         196.116         23.2672 
         1.3622         193.793         23.0135 
        1.36833         193.318         22.7641 
        1.37445         191.925         22.5185 
        1.38059         190.893         22.2758 
        1.38675         190.075         22.0361 
        1.39288         188.933         21.8009 
        1.39901         187.212         21.5692 
        1.40515         186.722         21.3404 
         1.4113         185.344         21.1149 
        1.41742         184.145         20.8936 
        1.42355           183.1          20.675 
         1.4297         181.911         20.4589 
        1.43585          180.77         20.2459 
        1.44198         180.866         20.0368 
        1.44809         178.895         19.8311 
        1.45423          178.14         19.6274 
        1.46036         176.787          19.427 
        1.46649         175.974         19.2293 
        1.47263         175.086         19.0342 
        1.47877         173.886         18.8419 
        1.48491         172.389         18.6519 
        1.49104         171.997          18.465 
        1.49718         170.119         18.2804 
        1.50333         169.589         18.0981 
        1.50947          168.38         17.9186 
         1.5156         167.575         17.7419 
        1.52172         166.834         17.5675 
        1.52787         165.297         17.3951 
          1.534         164.876         17.2252 
        1.54013         163.566         17.0577 
        1.54627          162.81         16.8922 
        1.55241         161.648         16.7289 
        1.55855         160.445         16.5679 
        1.56467         159.662         16.4095 
         1.5708         158.636         16.2527 
        1.57695         158.327         16.0977 
        1.58308         157.173         15.9451 
        1.58922         156.139         15.7944 
        1.59535         155.192         15.6456 
         1.6015         154.075         15.4986 
        1.60764         153.793         15.3535 
        1.61376         152.743         15.2107 
        1.61989         151.804         15.0696 
        1.62604         150.771         14.9299 
        1.63218         150.255         14.7921 
        1.63831         148.843         14.6564 
        1.64444         148.261         14.5223 
        1.65059          147.32         14.3895 
        1.65673         146.759         14.2586 
        1.66285         145.628         14.1296 
        1.66898          145.15         14.0022 
        1.67512         143.895         13.8762 
        1.68127         143.229         13.7515 
         1.6874         142.759         13.6287 
        1.69353         141.626         13.5074 
        1.69967         140.719         13.3873 
        1.70581         139.834         13.2687 
        1.71193         138.781          13.152 
        1.71806          138.53         13.0365 
        1.72421         137.574         12.9221 
        1.73035         137.068         12.8092 
        1.73649         136.049         12.6976 
        1.74262         135.408         12.5875 
        1.74876         134.118         12.4786 
        1.75489         133.703         12.3713 
        1.76101         132.806         12.2652 
        1.76715         132.349         12.1602 
        1.77329         131.263         12.0563 
        1.77943         130.875         11.9536 
        1.78557         130.229         11.8522 
        1.79171          129.18          11.752 
        1.79785         128.584         11.6529 
        1.80399         127.808         11.5549 
        1.81012         127.432         11.4583 
        1.81625         126.591         11.3627 
        1.82239         125.819         11.2682 
        1.82853         124.937         11.1747 
        1.83466         124.587         11.0824 
        1.84078         123.581         10.9912 
        1.84692         122.724         10.9009 
        1.85306         122.771         10.8115 
         1.8592          121.73         10.7232 
        1.86533         121.331          10.636 
        1.87147         120.299         10.5496 
        1.87761          119.55         10.4642 
        1.88375          118.99         10.3798 
        1.88988         117.971         10.2964 
        1.89601         117.608         10.2139 
        1.90215         117.275         10.1322 
        1.90829         116.175         10.0514 
        1.91442         115.824         9.97155 
        1.92056         114.959         9.89261 
         1.9267         114.388         9.81444 
        1.93284         113.627         9.73707 
        1.93897         113.163         9.66067 
        1.94509         112.678         9.58526 
        1.95123         112.177         9.51046 
        1.95737         111.372         9.43639 
        1.96349         110.833         9.36331 
        1.96964         110.083         9.29078 
        1.97578         109.295         9.21899 
        1.98192         108.822          9.1481 
        1.98805         108.321         9.07795 
        1.99419         107.584         9.00852 
        2.00033         107.211         8.93979 
        2.00647         106.566         8.87178 
         2.0126         105.884          8.8046 
        2.01874         105.335         8.73801 
        2.02488         105.068         8.67205 
        2.03101         104.096         8.60689 
        2.03714         103.636         8.54245 
        2.04328         103.065          8.4786 
        2.04941         102.679         8.41546 
        2.05554          101.91           8.353 
        2.06167         101.375         8.29109 
        2.06781          100.65         8.22979 
        2.07396         100.548         8.16903 
        2.08009         99.7417         8.10898 
        2.08622         99.1264          8.0496 
        2.09237         98.6547          7.9907 
        2.09851         98.0775         7.93237 
        2.10464         97.6442         7.87472 
        2.11077         96.9241         7.81771 
        2.11691         96.4511         7.76114 
        2.12305         96.1524         7.70512 
        2.12918         95.7186         7.64979 
        2.13531         94.9959           7.595 
        2.14145         94.4809         7.54061 
         2.1476         94.0191         7.48669 
        2.15372          93.467         7.43356 
        2.15985         92.9004          7.3809 
        2.16599         92.5069          7.3286 
        2.17213         92.0147         7.27685 
        2.17827         91.3159         7.22562 
         2.1844          90.902         7.17492 
        2.19054         90.7295         7.12469 
        2.19666         90.0327         7.07501 
         2.2028         89.4617         7.02576 
        2.20893         89.1106         6.97696 
        2.21508          88.554         6.92856 
        2.22122         88.1452          6.8806 
        2.22736         87.5996         6.83319 
        2.23349         87.3093         6.78624 
        2.23962         86.8234         6.73971 
        2.24577         86.1966         6.69357 
         2.2519          85.905         6.64792 
        2.25802          85.339         6.60277 
        2.26417         84.9783         6.55791 
        2.27031         84.3306         6.51343 
        2.27644         84.0046         6.46949 
        2.28257         83.6892         6.42595 
        2.28872          83.055         6.38273 
        2.29486         82.8422         6.33991 
        2.30099         82.2437         6.29758 
        2.30712         81.8296         6.25561 
        2.31326         81.3526         6.21395 
         2.3194         80.9041         6.17269 
        2.32553         80.5648         6.13187 
        2.33166          79.912         6.09144 
         2.3378         79.5992         6.05132 
        2.34394         79.3338         6.01155 
        2.35007         78.8561         5.97218 
        2.35619         78.5331         5.93322 
        2.36233          77.988         5.89451 
        2.36848         77.5221         5.85607 
        2.37462         77.3314         5.81805 
        2.38075         76.8132          5.7804 
        2.38689         76.4199         5.74305 
        2.39303         75.9108         5.70604 
        2.39916         75.5991         5.66939 
        2.40529         75.3302         5.63306 
        2.41143         74.8727         5.59703 
        2.41757         74.3551         5.56129 
         2.4237         74.1604         5.52593 
        2.42983         73.7484         5.49088 
        2.43598         73.2192         5.45604 
        2.44211         72.9911         5.42156 
        2.44823         72.5879         5.38745 
        2.45437         72.2116         5.35354 
        2.46052         71.8507         5.31989 
        2.46665         71.4482         5.28659 
        2.47279         71.0266         5.25358 
        2.47892         70.7161         5.22084 
        2.48507         70.3488         5.18834 
         2.4912         70.0735         5.15618 
