# k  (h/Mpc)    P(k)  (Mpc/h)^3    P_linear(k)  (Mpc/h)^3
     0.00783031         12089.3         12260.5 
       0.013688         16105.8           15986 
       0.019231         17014.6         17024.7 
      0.0249154         16226.9         16600.8 
      0.0312784         15003.4         15238.2 
      0.0375637         13536.6         13639.9 
      0.0433917         11952.1         12282.1 
      0.0492413         10978.8         11171.6 
      0.0555754         9828.25         10253.3 
      0.0619321         9428.25         9541.14 
       0.067871         8591.56         8962.74 
      0.0738098          8027.6         8388.72 
      0.0800417         7303.89         7749.05 
      0.0862327         6751.01         7080.41 
      0.0921407         6241.49         6447.03 
      0.0982031         5637.39         5847.18 
       0.104506         5288.08         5315.13 
       0.110769         4875.42         4894.42 
       0.116806         4553.74          4582.7 
       0.122832         4331.19         4339.53 
       0.129052         4032.39         4127.87 
       0.135211         3847.97         3927.79 
       0.141259          3706.9         3721.46 
       0.147318         3521.96         3499.37 
       0.153489         3253.43         3263.65 
       0.159709         3091.24         3030.37 
       0.165845         2980.16         2819.06 
       0.171974         2802.04         2636.83 
       0.178125         2661.43         2486.17 
       0.184229         2549.27         2365.27 
        0.19034          2410.4         2264.97 
       0.196428         2371.87         2176.12 
       0.202534         2289.16         2089.56 
       0.208729         2198.17         1998.72 
       0.214876         2112.63         1903.99 
       0.220989         2050.76          1807.2 
       0.227147          1961.5         1711.25 
        0.23329         1887.66         1621.51 
       0.239377         1862.62         1541.66 
       0.245482         1748.96          1471.9 
       0.251667         1740.76         1411.06 
       0.257832         1675.44         1358.03 
       0.263955         1623.03         1310.01 
       0.270079         1572.97         1263.94 
        0.27624          1558.3         1217.71 
       0.282372         1493.24          1171.1 
        0.28843         1489.06         1124.83 
       0.294538         1418.97         1078.93 
       0.300721         1413.17         1034.57 
        0.30691         1358.26         993.275 
       0.313033         1332.83         956.042 
       0.319153         1314.48         922.319 
       0.325316         1270.64         891.374 
        0.33145         1244.04          862.74 
       0.337538         1226.37          835.67 
       0.343633         1198.99          809.26 
       0.349808         1162.26         782.916 
       0.355968         1155.43         756.976 
       0.362074         1143.79         731.846 
       0.368217         1109.87         707.454 
       0.374374         1070.33         684.194 
       0.380519         1071.61         662.376 
       0.386598         1045.55          642.16 
       0.392688         1041.43         623.188 
        0.39888         1012.62         604.977 
       0.405048         1001.15         587.665 
       0.411186         986.936         571.057 
       0.417313         967.059         554.934 
       0.423458         952.711         539.166 
       0.429607         938.763         523.824 
       0.435692         921.426         509.119 
       0.441815         916.344         494.873 
       0.447964         896.246         481.193 
       0.454126         887.385         468.119 
       0.460267         869.178         455.695 
       0.466387         858.517         443.873 
        0.47254         851.071         432.469 
       0.478662         844.478         421.524 
       0.484765         823.608         410.962 
       0.490885         818.322          400.69 
       0.497035         800.877         390.666 
       0.503198         796.388         380.926 
       0.509342         787.199         371.535 
       0.515458         783.787         362.517 
       0.521598         766.513          353.79 
       0.527764         750.341         345.347 
       0.533884         751.173         337.276 
           0.54         742.523         329.497 
       0.546137         737.177         321.948 
       0.552299         727.061         314.605 
       0.558452         722.639         307.493 
       0.564573         711.973         300.627 
       0.570708         705.425         293.947 
       0.576825         686.268         287.485 
       0.582926         689.936         281.233 
       0.589034         683.581         275.165 
       0.595184          676.53         269.247 
       0.601379          668.32         263.476 
       0.607522           659.3         257.929 
       0.613639         660.522          252.57 
       0.619772         644.153         247.353 
       0.625918         641.155         242.273 
       0.632068         633.706         237.333 
       0.638161         631.717         232.574 
         0.6443         619.402         227.912 
       0.650464         618.103          223.36 
       0.656582         615.443         218.966 
       0.662703         611.052          214.69 
       0.668861         600.338         210.508 
       0.675024         596.039         206.438 
       0.681124         592.897         202.519 
       0.687237         587.789         198.698 
       0.693381         581.039         194.959 
       0.699536          571.59          191.31 
       0.705665         571.878         187.771 
       0.711789         566.937         184.324 
       0.717957         561.834         180.942 
        0.72409         558.683         177.663 
       0.730186         551.378         174.488 
       0.736317         547.848         171.374 
       0.742472          545.65         168.326 
       0.748622         539.434         165.356 
        0.75476         531.918         162.466 
       0.760888         527.096         159.651 
       0.767043         527.098         156.892 
       0.773185         521.198         154.204 
       0.779291         516.598         151.596 
       0.785407         512.212         149.045 
       0.791564         506.821         146.537 
       0.797719         504.426          144.09 
       0.803834         500.512         141.714 
       0.809972         497.474         139.384 
       0.816124         496.889         137.103 
       0.822261         489.147         134.879 
       0.828378         486.688         132.712 
       0.834502         482.031         130.592 
       0.840667         477.724         128.504 
       0.846816         475.625         126.469 
       0.852925         470.859         124.492 
       0.859047         470.935         122.553 
       0.865192         465.351         120.649 
       0.871341         461.441         118.785 
       0.877463         460.016         116.969 
       0.883569         455.517         115.197 
       0.889708         452.973         113.452 
       0.895864         449.459         111.739 
       0.902008         446.716         110.066 
       0.908149         442.749         108.429 
       0.914301         439.119         106.822 
       0.920448         436.333          105.25 
       0.926574         430.312         103.715 
       0.932687         430.553         102.215 
       0.938823         425.623         100.739 
       0.944975         426.016         99.2891 
       0.951105          420.13         97.8734 
       0.957225         417.319         96.4881 
       0.963368         413.535         95.1252 
       0.969511         411.875         93.7888 
       0.975621         408.744         92.4857 
       0.981748         407.361         91.2043 
       0.987916          404.34         89.9393 
        0.99406         397.611         88.7034 
        1.00019         397.198         87.4935 
        1.00632         394.866         86.3075 
        1.01246         391.674          85.142 
        1.01859         391.785         84.0001 
        1.02471         386.324         82.8809 
        1.03085         384.162         81.7784 
        1.03698         382.928         80.6986 
        1.04314         379.282         79.6339 
        1.04929         375.302         78.5911 
        1.05541         375.436         77.5714 
        1.06154         370.236         76.5675 
        1.06769         368.019         75.5801 
        1.07382         366.291         74.6135 
        1.07993         363.879         73.6662 
        1.08607         362.791         72.7316 
        1.09222         359.472         71.8124 
        1.09836         357.096         70.9104 
        1.10449         353.454          70.025 
        1.11063         350.359         69.1539 
        1.11677          350.37         68.2981 
         1.1229          348.25         67.4584 
        1.12903         344.939         66.6322 
        1.13518         341.872         65.8193 
        1.14131          340.59         65.0205 
        1.14745         338.153         64.2355 
        1.15359         335.939         63.4635 
        1.15973         333.921          62.704 
        1.16584         331.487         61.9604 
        1.17197         330.613         61.2279 
        1.17811         327.404         60.5051 
        1.18424         324.521         59.7962 
        1.19038         322.977         59.0967 
        1.19652         320.783         58.4088 
        1.20267         319.712         57.7319 
        1.20881         317.845         57.0659 
        1.21495          314.97         56.4116 
        1.22108         313.425         55.7678 
         1.2272         311.103         55.1357 
        1.23334         308.937          54.512 
        1.23949         307.581         53.8965 
        1.24562         305.754         53.2924 
        1.25174         302.715         52.6985 
        1.25789         300.424         52.1119 
        1.26402         298.984         51.5355 
        1.27014          296.82         50.9692 
        1.27628         295.249         50.4098 
        1.28244         294.611         49.8579 
        1.28858         291.289          49.315 
        1.29471          288.94         48.7815 
        1.30084         287.935         48.2564 
        1.30697         285.856         47.7384 
        1.31312         283.249         47.2273 
        1.31925         283.092         46.7254 
        1.32537         281.605         46.2313 
        1.33151         278.429         45.7426 
        1.33765         276.608         45.2614 
        1.34378         275.557         44.7881 
        1.34992          273.68         44.3213 
        1.35606         272.888         43.8602 
         1.3622          270.74         43.4065 
        1.36833         268.531         42.9604 
        1.37445         267.187         42.5208 
        1.38059         264.602          42.086 
        1.38675         263.842         41.6563 
        1.39288         261.768         41.2344 
        1.39901          260.98         40.8186 
        1.40515         258.974         40.4076 
         1.4113         257.473         40.0025 
        1.41742         255.787         39.6045 
        1.42355         253.594         39.2112 
         1.4297         252.252         38.8221 
        1.43585         250.749         38.4386 
        1.44198          249.42         38.0616 
        1.44809         248.019         37.6905 
        1.45423         245.864         37.3231 
        1.46036         245.007         36.9612 
        1.46649         242.796          36.604 
        1.47263          241.25         36.2513 
        1.47877         240.032         35.9034 
        1.48491         238.317         35.5596 
        1.49104         237.468          35.221 
        1.49718         235.221         34.8867 
        1.50333         234.162         34.5562 
        1.50947         232.715         34.2306 
         1.5156         230.633         33.9098 
        1.52172         229.948         33.5932 
        1.52787         228.218           33.28 
          1.534         227.248         32.9711 
        1.54013         225.082         32.6666 
        1.54627          224.51         32.3654 
        1.55241         222.645         32.0679 
        1.55855         221.359         31.7747 
        1.56467         219.853         31.4859 
         1.5708         219.604         31.1999 
        1.57695          217.26         30.9171 
        1.58308         216.255         30.6385 
        1.58922         213.971         30.3631 
        1.59535         212.697         30.0913 
         1.6015         212.457         29.8224 
        1.60764         210.693          29.557 
        1.61376         209.073         29.2955 
        1.61989         208.011          29.037 
        1.62604         206.883         28.7811 
        1.63218         205.685         28.5285 
        1.63831         204.304         28.2794 
        1.64444          203.48         28.0333 
        1.65059          201.65         27.7896 
        1.65673         200.764          27.549 
        1.66285          199.57          27.312 
        1.66898         198.059         27.0777 
        1.67512           197.6         26.8457 
        1.68127         195.273         26.6162 
         1.6874         194.317           26.39 
        1.69353         193.412         26.1665 
        1.69967         191.966         25.9451 
        1.70581         190.977         25.7264 
        1.71193          189.61          25.511 
        1.71806         189.011         25.2977 
        1.72421         187.409         25.0864 
        1.73035         186.741         24.8778 
        1.73649          185.58         24.6716 
        1.74262         184.263         24.4679 
        1.74876         183.317         24.2664 
        1.75489         181.828         24.0676 
        1.76101         180.824         23.8711 
        1.76715         180.072         23.6765 
        1.77329         179.165         23.4839 
        1.77943         178.062         23.2933 
        1.78557         176.885         23.1052 
        1.79171         175.719         22.9191 
        1.79785         174.427         22.7351 
        1.80399         173.566         22.5531 
        1.81012         172.481         22.3734 
        1.81625         171.746         22.1957 
        1.82239         170.433         22.0197 
        1.82853         169.857         21.8457 
        1.83466         168.551         21.6738 
        1.84078         167.819         21.5039 
        1.84692         166.184         21.3356 
        1.85306         165.868         21.1689 
         1.8592         164.521         21.0042 
        1.86533         163.627         20.8414 
        1.87147         162.442         20.6801 
        1.87761         162.035         20.5205 
        1.88375         160.143         20.3628 
        1.88988         159.384         20.2069 
        1.89601           158.8         20.0525 
        1.90215         157.594         19.8997 
        1.90829         156.886         19.7486 
        1.91442         155.889          19.599 
        1.92056         155.173         19.4511 
         1.9267         154.089         19.3046 
        1.93284         153.274         19.1595 
        1.93897         152.297         19.0162 
        1.94509         151.611         18.8746 
        1.95123         150.761         18.7342 
        1.95737         150.136         18.5951 
        1.96349         149.059         18.4578 
        1.96964         147.906         18.3214 
        1.97578         147.043         18.1864 
        1.98192         146.291         18.0531 
        1.98805         145.214          17.921 
        1.99419         144.514         17.7903 
        2.00033         143.756         17.6609 
        2.00647         143.113         17.5327 
         2.0126         141.721         17.4061 
        2.01874         141.411         17.2805 
        2.02488         140.648         17.1561 
        2.03101         139.412         17.0331 
        2.03714         138.725         16.9115 
        2.04328         137.957         16.7909 
        2.04941         137.168         16.6716 
        2.05554         136.323         16.5536 
        2.06167         135.984         16.4365 
        2.06781         135.083         16.3205 
        2.07396         133.995         16.2056 
        2.08009         133.444         16.0919 
        2.08622          132.53         15.9795 
        2.09237         131.722         15.8679 
        2.09851         131.046         15.7573 
        2.10464         130.572         15.6481 
        2.11077          129.71         15.5399 
        2.11691         129.023         15.4326 
        2.12305          127.83         15.3263 
        2.12918         127.377         15.2212 
        2.13531         126.771         15.1172 
        2.14145         125.789         15.0138 
         2.1476         125.025         14.9114 
        2.15372          124.64         14.8104 
        2.15985         124.216         14.7102 
        2.16599         123.025         14.6107 
        2.17213         122.422         14.5122 
        2.17827         121.839         14.4147 
         2.1844         121.062         14.3181 
        2.19054         120.452         14.2224 
        2.19666         119.739         14.1277 
         2.2028         119.002         14.0338 
        2.20893         118.472         13.9407 
        2.21508         117.689         13.8484 
        2.22122         117.052         13.7568 
        2.22736         116.367         13.6663 
        2.23349         115.776         13.5766 
        2.23962         115.062         13.4877 
        2.24577          114.59         13.3995 
         2.2519         113.946         13.3123 
        2.25802         113.091         13.2259 
        2.26417         112.503         13.1401 
        2.27031         111.707          13.055 
        2.27644          111.21         12.9708 
        2.28257          110.79         12.8874 
        2.28872         110.178         12.8046 
        2.29486          109.45         12.7226 
        2.30099         108.956         12.6414 
        2.30712         108.296         12.5609 
        2.31326         107.595          12.481 
         2.3194         107.043         12.4018 
        2.32553         106.467         12.3235 
        2.33166         106.128         12.2459 
         2.3378         105.452         12.1688 
        2.34394         105.008         12.0924 
        2.35007         104.291         12.0167 
        2.35619         103.609         11.9418 
        2.36233         103.161         11.8673 
        2.36848         102.486         11.7934 
        2.37462         102.137         11.7202 
        2.38075         101.586         11.6477 
        2.38689         100.843         11.5758 
        2.39303         100.216         11.5045 
        2.39916         99.7696         11.4339 
        2.40529          99.421         11.3638 
        2.41143         98.9031         11.2944 
        2.41757         98.2473         11.2254 
         2.4237         97.5976         11.1572 
        2.42983         97.0406         11.0895 
        2.43598         96.5248         11.0223 
        2.44211         96.2065         10.9557 
        2.44823         95.7602         10.8898 
        2.45437         95.0783         10.8242 
        2.46052         94.4873         10.7592 
        2.46665         93.9904         10.6948 
        2.47279         93.5699          10.631 
        2.47892         93.1126         10.5676 
        2.48507         92.4933         10.5047 
         2.4912         92.1218         10.4425 
