#  k  (h/Mpc)          P(k)  (Mpc/h)^3     P_linear(k) (Mpc/h)^3
     0.00783031         7688.16         7786.27 
       0.013688         9244.44         9197.58 
       0.019231         8948.38         8927.38 
      0.0249154         7821.61         7919.19 
      0.0312784         6591.68         6614.83 
      0.0375637         5564.97          5541.6 
      0.0433917         4804.78         4839.88 
      0.0492413         4367.38         4373.31 
      0.0555754         3954.16         4020.86 
      0.0619321         3727.38          3705.3 
       0.067871         3336.56         3378.01 
      0.0738098         2979.17         3011.82 
      0.0800417         2582.36         2622.21 
      0.0862327         2271.58         2279.22 
      0.0921407         2041.67         2023.54 
      0.0982031         1842.78          1839.1 
       0.104506         1750.94         1713.23 
       0.110769         1649.57         1623.68 
       0.116806         1553.71         1541.74 
       0.122832         1467.51         1446.05 
       0.129052         1335.12         1329.36 
       0.135211         1222.67         1205.66 
       0.141259         1131.06         1091.07 
       0.147318         1044.98         994.921 
       0.153489          960.77         921.027 
       0.159709         913.742         868.404 
       0.165845         883.377          830.19 
       0.171974         838.366         796.407 
       0.178125         800.841         759.652 
       0.184229         761.874         717.328 
        0.19034         702.473         670.495 
       0.196428         674.537         623.457 
       0.202534         642.401         580.351 
       0.208729         603.692         543.767 
       0.214876          571.23         515.167 
       0.220989         553.526         492.809 
       0.227147         527.618         473.731 
        0.23329         507.686         455.438 
       0.239377         494.242         436.265 
       0.245482         460.328         415.529 
       0.251667         451.149         393.744 
       0.257832         432.148         372.608 
       0.263955         414.169         353.445 
       0.270079         397.143         336.815 
        0.27624         389.943         322.615 
       0.282372          375.23         310.416 
        0.28843         363.214         299.424 
       0.294538          346.81         288.637 
       0.300721         342.794         277.568 
        0.30691          326.34         266.257 
       0.313033         317.872          255.12 
       0.319153         305.186         244.423 
       0.325316         296.984         234.446 
        0.33145         286.648         225.464 
       0.337538         281.949         217.447 
       0.343633          272.32         210.118 
       0.349808         263.429         203.133 
       0.355968         259.362         196.391 
       0.362074          252.67         189.786 
       0.368217          245.44         183.226 
       0.374374         236.531         176.804 
       0.380519         232.741         170.654 
       0.386598         226.528         164.929 
       0.392688         223.197         159.574 
        0.39888         217.226           154.5 
       0.405048         211.801          149.76 
       0.411186          207.19          145.26 
       0.417313         202.815         140.921 
       0.423458         198.468         136.691 
       0.429607         193.895         132.564 
       0.435692         187.923         128.605 
       0.441815         186.322         124.779 
       0.447964         182.823         121.113 
       0.454126         175.083          117.62 
       0.460267         173.103         114.315 
       0.466387         170.813         111.175 
        0.47254         166.844         108.144 
       0.478662         165.603          105.23 
       0.484765         160.434         102.416 
       0.490885         157.961         99.6835 
       0.497035         155.802         97.0264 
       0.503198         151.538         94.4568 
       0.509342         149.277         91.9925 
       0.515458         147.112         89.6394 
       0.521598         144.697         87.3719 
       0.527764         142.578         85.1804 
       0.533884         140.382         83.0807 
           0.54         137.894         81.0515 
       0.546137         136.691         79.0805 
       0.552299         134.235          77.165 
       0.558452         131.912         75.3136 
       0.564573         129.629         73.5307 
       0.570708         127.391         71.8019 
       0.576825         125.793         70.1359 
       0.582926         123.404         68.5308 
       0.589034         121.631         66.9772 
       0.595184         120.152         65.4636 
       0.601379         118.646          63.987 
       0.607522         115.975          62.567 
       0.613639         115.471         61.1946 
       0.619772         112.986         59.8592 
       0.625918         111.664          58.561 
       0.632068         110.442         57.3012 
       0.638161         109.281         56.0907 
         0.6443         107.794         54.9078 
       0.650464         106.618         53.7556 
       0.656582         105.003         52.6453 
       0.662703         103.354         51.5663 
       0.668861         101.989         50.5115 
       0.675024         100.827         49.4852 
       0.681124         99.8919         48.4978 
       0.687237          98.037         47.5355 
       0.693381         96.8259         46.5949 
       0.699536         95.9093         45.6783 
       0.705665         96.0369         44.7907 
       0.711789         93.5577         43.9279 
       0.717957         93.1023         43.0821 
        0.72409         91.6943         42.2636 
       0.730186         90.2137         41.4714 
       0.736317         89.9171         40.6955 
       0.742472         89.0048         39.9366 
       0.748622          88.064         39.1979 
        0.75476         87.1502         38.4795 
       0.760888         85.9386         37.7803 
       0.767043         85.2539         37.0958 
       0.773185         84.2641         36.4298 
       0.779291         83.3557          35.784 
       0.785407         82.7148         35.1531 
       0.791564         81.8744         34.5335 
       0.797719         80.5381         33.9293 
       0.803834          80.199         33.3435 
       0.809972          78.922         32.7695 
       0.816124         78.5148          32.208 
       0.822261         77.8445         31.6612 
       0.828378         77.1685         31.1288 
       0.834502         76.4745         30.6084 
       0.840667         75.6316         30.0966 
       0.846816         74.6859          29.598 
       0.852925         74.1345          29.114 
       0.859047          73.173         28.6398 
       0.865192         72.7781         28.1747 
       0.871341         72.2656         27.7198 
       0.877463         71.1523          27.277 
       0.883569          70.744         26.8451 
       0.889708         70.2893         26.4204 
       0.895864          69.705         26.0038 
       0.902008         69.0581         25.5971 
       0.908149         68.5742         25.1995 
       0.914301         67.8947         24.8097 
       0.920448         67.4065         24.4285 
       0.926574         66.7438         24.0568 
       0.932687         66.5435         23.6936 
       0.938823         65.4523         23.3366 
       0.944975         65.0719         22.9862 
       0.951105         64.5097         22.6443 
       0.957225         63.7544         22.3099 
       0.963368           63.62         21.9812 
       0.969511         63.2119         21.6592 
       0.975621          62.792         21.3453 
       0.981748         62.1084         21.0369 
       0.987916         61.6114         20.7327 
        0.99406         61.2477         20.4356 
        1.00019          60.609          20.145 
        1.00632          60.319         19.8604 
        1.01246         59.8363         19.5808 
        1.01859         58.9813         19.3071 
        1.02471         59.0984         19.0391 
        1.03085         58.4702         18.7752 
        1.03698         58.0205         18.5168 
        1.04314         57.4745         18.2623 
        1.04929         57.1456         18.0132 
        1.05541         56.5901         17.7698 
        1.06154         56.5422         17.5302 
        1.06769         56.0192         17.2948 
        1.07382         55.7463         17.0645 
        1.07993         55.3954         16.8389 
        1.08607         54.9079         16.6165 
        1.09222         54.6157         16.3979 
        1.09836         54.2153         16.1836 
        1.10449         53.8499         15.9733 
        1.11063         53.3524         15.7665 
        1.11677         53.0422         15.5635 
         1.1229         52.6717         15.3645 
        1.12903          51.994         15.1687 
        1.13518         52.2179         14.9763 
        1.14131          51.867         14.7872 
        1.14745         51.1587         14.6016 
        1.15359         51.1104         14.4191 
        1.15973         50.5702         14.2397 
        1.16584            50.3         14.0642 
        1.17197         50.0156         13.8914 
        1.17811         49.7821         13.7209 
        1.18424         49.2917         13.5538 
        1.19038         49.0167         13.3891 
        1.19652           48.88         13.2271 
        1.20267         48.4597         13.0678 
        1.20881         48.2037         12.9112 
        1.21495         47.7826         12.7574 
        1.22108         47.5782         12.6061 
         1.2272         47.0891         12.4577 
        1.23334         46.9325         12.3113 
        1.23949         46.8661         12.1669 
        1.24562         46.3869         12.0252 
        1.25174         46.2352         11.8861 
        1.25789         46.0027         11.7487 
        1.26402         45.6054         11.6137 
        1.27014         45.1777         11.4812 
        1.27628         45.0554         11.3504 
        1.28244          44.745         11.2214 
        1.28858         44.5899         11.0945 
        1.29471         44.4042         10.9699 
        1.30084         44.1465         10.8474 
        1.30697          43.801         10.7265 
        1.31312          43.477         10.6073 
        1.31925         43.3842         10.4903 
        1.32537         43.1665         10.3752 
        1.33151         42.7551         10.2614 
        1.33765         42.6888         10.1494 
        1.34378          42.388         10.0393 
        1.34992         42.0795         9.93079 
        1.35606         41.8501         9.82362 
         1.3622         41.6138         9.71822 
        1.36833         41.3823         9.61463 
        1.37445         41.2844          9.5126 
        1.38059         41.0164         9.41174 
        1.38675         40.7037         9.31211 
        1.39288         40.5979         9.21432 
        1.39901         40.3059         9.11797 
        1.40515         40.1247          9.0228 
         1.4113         39.9818         8.92902 
        1.41742          39.695         8.83693 
        1.42355         39.4456         8.74598 
         1.4297         39.2935         8.65603 
        1.43585          39.149         8.56739 
        1.44198         38.8301         8.48033 
        1.44809         38.7248         8.39464 
        1.45423         38.5408         8.30983 
        1.46036         38.3773         8.22634 
        1.46649          38.117         8.14398 
        1.47263         37.8996         8.06268 
        1.47877         37.7914         7.98253 
        1.48491         37.7166         7.90334 
        1.49104         37.3848          7.8254 
        1.49718         37.0164         7.74845 
        1.50333         37.0015         7.67242 
        1.50947         36.8722         7.59756 
         1.5156         36.6016         7.52382 
        1.52172         36.4498         7.45106 
        1.52787         36.3807         7.37911 
          1.534         36.1383         7.30821 
        1.54013         35.8903         7.23831 
        1.54627         35.7978         7.16921 
        1.55241         35.5195         7.10099 
        1.55855         35.3949         7.03377 
        1.56467         35.0777         6.96759 
         1.5708         35.1573         6.90209 
        1.57695         34.8318         6.83733 
        1.58308         34.7462         6.77355 
        1.58922         34.6863         6.71054 
        1.59535         34.4505         6.64835 
         1.6015         34.1936         6.58687 
        1.60764         34.0482          6.5262 
        1.61376         33.9076         6.46646 
        1.61989         33.6667         6.40742 
        1.62604          33.612         6.34898 
        1.63218         33.4864         6.29132 
        1.63831         33.3033          6.2345 
        1.64444         33.1525         6.17836 
        1.65059         32.9285         6.12279 
        1.65673         32.7534         6.06796 
        1.66285         32.6488         6.01395 
        1.66898         32.4775         5.96058 
        1.67512         32.3496         5.90777 
        1.68127         32.1493         5.85554 
         1.6874          32.051         5.80406 
        1.69353         31.8804         5.75323 
        1.69967         31.7314         5.70289 
        1.70581         31.6536         5.65318 
        1.71193         31.5068         5.60425 
        1.71806         31.2658         5.55579 
        1.72421         31.1203         5.50781 
        1.73035         30.9774         5.46046 
        1.73649         30.8456         5.41367 
        1.74262         30.7219         5.36746 
        1.74876         30.7037         5.32177 
        1.75489         30.4894          5.2767 
        1.76101         30.3147         5.23217 
        1.76715         30.2176          5.1881 
        1.77329         30.1005         5.14447 
        1.77943         29.9705         5.10134 
        1.78557          29.789         5.05876 
        1.79171         29.6659         5.01666 
        1.79785         29.5177         4.97503 
        1.80399          29.438         4.93388 
        1.81012         29.3311         4.89325 
        1.81625         29.1508          4.8531 
        1.82239         29.0659         4.81334 
        1.82853         28.8661         4.77404 
        1.83466         28.7841         4.73523 
        1.84078         28.5656         4.69688 
        1.84692         28.4877          4.6589 
        1.85306         28.3675         4.62129 
         1.8592         28.2286         4.58415 
        1.86533         28.0939         4.54744 
        1.87147         28.0125          4.5111 
        1.87761         27.9465         4.47513 
        1.88375         27.8098          4.4396 
        1.88988          27.705          4.4045 
        1.89601         27.5256         4.36975 
        1.90215         27.4609         4.33536 
        1.90829         27.3964         4.30135 
        1.91442         27.2073          4.2677 
        1.92056         27.1484         4.23444 
         1.9267         26.9682         4.20151 
        1.93284         26.8089          4.1689 
        1.93897         26.7776         4.13671 
        1.94509         26.6349         4.10492 
        1.95123          26.527         4.07339 
        1.95737         26.3849         4.04216 
        1.96349         26.3015         4.01134 
        1.96964         26.1735         3.98076 
        1.97578         26.0948         3.95048 
        1.98192         25.9418         3.92058 
        1.98805         25.8862         3.89098 
        1.99419         25.7477         3.86169 
        2.00033         25.6088         3.83268 
        2.00647         25.5292         3.80398 
         2.0126         25.4199         3.77563 
        2.01874         25.3263         3.74752 
        2.02488         25.2817         3.71967 
        2.03101         25.0986         3.69215 
        2.03714         25.0072         3.66495 
        2.04328         24.8892         3.63798 
        2.04941         24.8162         3.61131 
        2.05554         24.7137         3.58492 
        2.06167         24.6136         3.55877 
        2.06781         24.5041         3.53287 
        2.07396         24.4313         3.50719 
        2.08009         24.3596         3.48181 
        2.08622         24.1863         3.45671 
        2.09237          24.104         3.43181 
        2.09851         24.0201         3.40715 
        2.10464         23.9595         3.38277 
        2.11077         23.7895         3.35867 
        2.11691         23.7293         3.33474 
        2.12305         23.6665         3.31104 
        2.12918         23.6055         3.28764 
        2.13531         23.4685         3.26445 
        2.14145         23.4319         3.24144 
         2.1476         23.2754         3.21862 
        2.15372         23.1708         3.19614 
        2.15985         23.0551         3.17385 
        2.16599         23.0294          3.1517 
        2.17213         22.9522          3.1298 
        2.17827         22.7695          3.1081 
         2.1844         22.6754         3.08663 
        2.19054         22.6122         3.06536 
        2.19666         22.5457         3.04432 
         2.2028         22.4609         3.02345 
        2.20893         22.3777         3.00277 
        2.21508         22.2845         2.98227 
        2.22122         22.1195         2.96194 
        2.22736         22.1258         2.94185 
        2.23349         22.0012         2.92195 
        2.23962         21.9129         2.90223 
        2.24577         21.8073         2.88266 
         2.2519         21.7682         2.86331 
        2.25802         21.6419         2.84416 
        2.26417         21.6074         2.82514 
        2.27031         21.5102         2.80627 
        2.27644         21.4161         2.78763 
        2.28257         21.3107         2.76916 
        2.28872         21.2119         2.75082 
        2.29486         21.1843         2.73266 
        2.30099         21.0741         2.71469 
        2.30712         21.0263         2.69688 
        2.31326         20.9637         2.67919 
         2.3194         20.8579         2.66168 
        2.32553         20.7573         2.64435 
        2.33166         20.6503         2.62718 
         2.3378         20.5786         2.61015 
        2.34394         20.5241         2.59325 
        2.35007         20.4342         2.57653 
        2.35619         20.3319         2.55998 
        2.36233         20.2976         2.54354 
        2.36848         20.1708         2.52721 
        2.37462         20.1015         2.51105 
        2.38075          20.036         2.49505 
        2.38689         19.9964         2.47918 
        2.39303         19.8731         2.46344 
        2.39916          19.789         2.44787 
        2.40529         19.7176         2.43242 
        2.41143         19.6578          2.4171 
        2.41757         19.5967          2.4019 
         2.4237          19.493         2.38687 
        2.42983         19.4204         2.37196 
        2.43598         19.3772         2.35714 
        2.44211           19.28         2.34247 
        2.44823         19.1908         2.32796 
        2.45437         19.1195         2.31353 
        2.46052         19.0736         2.29921 
        2.46665          19.018         2.28504 
        2.47279         18.8947         2.27099 
        2.47892         18.8665         2.25705 
        2.48507         18.7758         2.24322 
         2.4912         18.7445         2.22953 
