# k  (h/Mpc)    Pcb(k)  (Mpc/h)^3    Pcb_linear(k)  (Mpc/h)^3
     0.00783031          3299.2         3337.75 
       0.013688         3832.11         3827.08 
       0.019231         3617.88         3611.85 
      0.0249154         3083.11         3104.94 
      0.0312784          2493.8         2493.32 
      0.0375637         2018.15         2007.12 
      0.0433917         1697.87         1699.59 
      0.0492413         1510.65         1507.26 
      0.0555754         1369.74          1379.8 
      0.0619321          1289.6          1281.2 
       0.067871         1173.67         1179.96 
      0.0738098          1052.6         1057.94 
      0.0800417         909.645         916.438 
      0.0862327         782.395         782.154 
      0.0921407         681.296         676.303 
      0.0982031         599.691         597.796 
       0.104506         555.525         546.324 
       0.110769         522.957         516.287 
       0.116806         498.159         495.783 
       0.122832         478.029         473.661 
       0.129052         443.453           443.2 
       0.135211         406.696         405.272 
       0.141259         370.565         364.801 
       0.147318         334.926         326.704 
       0.153489         301.751         294.869 
       0.159709         279.692          271.68 
       0.165845         266.644          256.61 
       0.171974         253.388         246.592 
       0.178125         245.124         238.274 
       0.184229         235.923         228.975 
        0.19034         220.655         217.222 
       0.196428         209.865         203.259 
       0.202534         197.656         188.323 
       0.208729          182.56          173.95 
       0.214876         169.687         161.809 
       0.220989         161.873          152.38 
       0.227147         153.186         145.316 
        0.23329         147.448         139.913 
       0.239377         143.377         135.202 
       0.245482         135.826         130.296 
       0.251667         132.226         124.694 
       0.257832         126.265         118.481 
       0.263955         119.999         112.054 
       0.270079         113.962          105.86 
        0.27624         109.884         100.277 
       0.282372         105.271         95.5749 
        0.28843         100.685         91.7253 
       0.294538         96.7628         88.4465 
       0.300721         94.7161         85.4452 
        0.30691         90.6144         82.4984 
       0.313033         87.6621         79.4747 
       0.319153         83.3745         76.3254 
       0.325316         81.5593          73.103 
        0.33145         77.9937         69.9859 
       0.337538         75.7277         67.0992 
       0.343633         72.7338          64.498 
       0.349808           70.48         62.1546 
       0.355968         68.5642         60.0648 
       0.362074         66.3679         58.1515 
       0.368217          64.315         56.3031 
       0.374374         62.3114         54.4737 
       0.380519         60.7029         52.6435 
       0.386598         58.8996          50.848 
       0.392688          57.511         49.0945 
        0.39888         55.6576         47.3926 
       0.405048         54.1459         45.8104 
       0.411186         52.7614         44.3503 
       0.417313         51.0997         42.9961 
       0.423458         49.7518         41.7228 
       0.429607         48.4356         40.5049 
       0.435692         46.8249         39.3342 
       0.441815         46.0493         38.1831 
       0.447964          45.176         37.0523 
       0.454126         43.2317         35.9484 
       0.460267         42.5276         34.8896 
       0.466387         41.3128         33.8839 
        0.47254         40.5547         32.9235 
       0.478662         39.8752         32.0162 
       0.484765         38.6012         31.1561 
       0.490885         37.7419         30.3302 
       0.497035         37.2393         29.5287 
       0.503198         36.1689         28.7488 
       0.509342          35.229         27.9936 
       0.515458         34.4873         27.2651 
       0.521598         33.8812         26.5574 
       0.527764           33.15         25.8719 
       0.533884         32.5943         25.2175 
           0.54         31.8041         24.5903 
       0.546137         31.3296          23.986 
       0.552299         30.7991         23.4017 
       0.558452         29.8517         22.8379 
       0.564573         29.3546         22.2941 
       0.570708         28.8672         21.7656 
       0.576825          28.206         21.2549 
       0.582926         27.5984         20.7614 
       0.589034         26.9127         20.2828 
       0.595184         26.5637         19.8164 
       0.601379         26.0316         19.3619 
       0.607522         25.5107         18.9261 
       0.613639         25.2673         18.5064 
       0.619772         24.6119          18.099 
       0.625918         24.4397         17.7035 
       0.632068         24.0524         17.3195 
       0.638161         23.5342         16.9501 
         0.6443         23.0697         16.5883 
       0.650464         22.6506         16.2356 
       0.656582         22.4884         15.8956 
       0.662703         22.0373         15.5653 
       0.668861         21.6215         15.2429 
       0.675024         21.2424         14.9297 
       0.681124         20.8692         14.6288 
       0.687237         20.5027         14.3357 
       0.693381         20.3184         14.0494 
       0.699536         19.7932         13.7704 
       0.705665         19.7395         13.5002 
       0.711789         19.2691         13.2374 
       0.717957         18.9913         12.9797 
        0.72409         18.7221         12.7304 
       0.730186         18.4423         12.4892 
       0.736317         18.2419          12.253 
       0.742472         17.9155         12.0221 
       0.748622         17.7318         11.7975 
        0.75476         17.4136         11.5792 
       0.760888         17.1345         11.3667 
       0.767043         16.9165         11.1589 
       0.773185         16.6274         10.9567 
       0.779291         16.5286         10.7607 
       0.785407         16.3404         10.5692 
       0.791564         16.0423         10.3812 
       0.797719         15.6597         10.1979 
       0.803834           15.64         10.0202 
       0.809972         15.4817         9.84613 
       0.816124         15.1391         9.67584 
       0.822261         14.9649         9.51006 
       0.828378         14.8246         9.34868 
       0.834502         14.6775         9.19094 
       0.840667         14.4552         9.03585 
       0.846816         14.1882          8.8848 
       0.852925         14.0515         8.73818 
       0.859047         13.8927         8.59458 
       0.865192         13.7513         8.45376 
       0.871341         13.6337         8.31603 
       0.877463         13.3936         8.18201 
       0.883569         13.2214          8.0513 
       0.889708         13.0151         7.92279 
       0.895864         12.8912         7.79678 
       0.902008         12.7972          7.6738 
       0.908149         12.6525         7.55355 
       0.914301          12.571         7.43571 
       0.920448         12.3353         7.32051 
       0.926574         12.2113         7.20817 
       0.932687         12.0658         7.09843 
       0.938823         11.9114         6.99061 
       0.944975           11.78         6.88478 
       0.951105         11.6605         6.78154 
       0.957225         11.5517         6.68061 
       0.963368          11.458          6.5814 
       0.969511          11.336         6.48422 
       0.975621         11.2262         6.38953 
       0.981748         11.0623          6.2965 
       0.987916         10.9964         6.20474 
        0.99406         10.8404         6.11517 
        1.00019         10.6885         6.02756 
        1.00632          10.646         5.94174 
        1.01246         10.5473         5.85748 
        1.01859         10.3659         5.77499 
        1.02471         10.3262          5.6942 
        1.03085         10.2159         5.61469 
        1.03698         10.0519         5.53687 
        1.04314         9.99437          5.4602 
        1.04929         9.87118         5.38516 
        1.05541          9.7562         5.31185 
        1.06154          9.6972         5.23973 
        1.06769         9.64597         5.16884 
        1.07382         9.50885          5.0995 
        1.07993         9.42574          5.0316 
        1.08607         9.33515         4.96466 
        1.09222         9.26664         4.89887 
        1.09836         9.14875         4.83436 
        1.10449         9.08193         4.77109 
        1.11063           8.972         4.70889 
        1.11677         8.93374         4.64782 
         1.1229         8.87508         4.58795 
        1.12903         8.75358         4.52909 
        1.13518         8.64521         4.47121 
        1.14131         8.61177         4.41439 
        1.14745         8.52598         4.35858 
        1.15359         8.46787         4.30374 
        1.15973         8.37618         4.24982 
        1.16584         8.26191         4.19708 
        1.17197         8.22149         4.14515 
        1.17811         8.16736         4.09395 
        1.18424         8.09005         4.04377 
        1.19038         8.05302         3.99428 
        1.19652         7.96208         3.94565 
        1.20267         7.88806         3.89783 
        1.20881         7.85493         3.85082 
        1.21495          7.7917         3.80466 
        1.22108         7.69395         3.75926 
         1.2272         7.63641         3.71472 
        1.23334         7.57142          3.6708 
        1.23949         7.49841         3.62748 
        1.24562         7.46434         3.58499 
        1.25174         7.40886         3.54324 
        1.25789         7.34239         3.50203 
        1.26402         7.31212         3.46155 
        1.27014         7.23966         3.42181 
        1.27628         7.15342         3.38258 
        1.28244         7.09579         3.34389 
        1.28858         7.09191         3.30586 
        1.29471         7.00849          3.2685 
        1.30084         6.93783         3.23176 
        1.30697         6.91959         3.19553 
        1.31312         6.82299         3.15981 
        1.31925         6.76991         3.12474 
        1.32537         6.73892         3.09025 
        1.33151         6.70253         3.05615 
        1.33765         6.63933         3.02259 
        1.34378         6.59141          2.9896 
        1.34992          6.5346         2.95709 
        1.35606         6.49936         2.92498 
         1.3622         6.46204         2.89342 
        1.36833          6.3897         2.86239 
        1.37445         6.35879         2.83184 
        1.38059         6.32668         2.80164 
        1.38675         6.26341         2.77181 
        1.39288         6.24487         2.74254 
        1.39901         6.17145          2.7137 
        1.40515         6.14503         2.68522 
         1.4113         6.09787         2.65715 
        1.41742         6.05178          2.6296 
        1.42355         6.00107         2.60238 
         1.4297         5.98072         2.57547 
        1.43585         5.94451         2.54895 
        1.44198          5.9117         2.52291 
        1.44809         5.86145         2.49728 
        1.45423         5.81707         2.47191 
        1.46036         5.77163         2.44694 
        1.46649          5.7492         2.42231 
        1.47263         5.69186           2.398 
        1.47877         5.65652         2.37403 
        1.48491         5.63037         2.35035 
        1.49104         5.59175         2.32705 
        1.49718         5.55777         2.30405 
        1.50333         5.52435         2.28132 
        1.50947         5.47638         2.25895 
         1.5156         5.45124         2.23691 
        1.52172         5.42602         2.21516 
        1.52787         5.38364         2.19366 
          1.534          5.3421         2.17247 
        1.54013         5.31368         2.15159 
        1.54627         5.27142         2.13094 
        1.55241          5.2423         2.11056 
        1.55855         5.22039         2.09047 
        1.56467         5.17942         2.07071 
         1.5708         5.16344         2.05114 
        1.57695         5.11974         2.03179 
        1.58308         5.07652         2.01274 
        1.58922         5.06589         1.99393 
        1.59535         5.04074         1.97536 
         1.6015         4.99109           1.957 
        1.60764         4.95733         1.93888 
        1.61376          4.9435         1.92105 
        1.61989         4.90931         1.90342 
        1.62604          4.8834         1.88598 
        1.63218         4.86707         1.86876 
        1.63831         4.82636          1.8518 
        1.64444         4.80227         1.83505 
        1.65059         4.75352         1.81846 
        1.65673          4.7582          1.8021 
        1.66285         4.70706         1.78598 
        1.66898         4.68279         1.77006 
        1.67512         4.66423          1.7543 
        1.68127         4.63281         1.73872 
         1.6874         4.61269         1.72336 
        1.69353         4.57146          1.7082 
        1.69967         4.56301         1.69318 
        1.70581         4.54041         1.67835 
        1.71193         4.50203         1.66376 
        1.71806         4.48457          1.6493 
        1.72421         4.45882           1.635 
        1.73035         4.43988         1.62087 
        1.73649         4.41406         1.60692 
        1.74262          4.3849         1.59314 
        1.74876          4.3716         1.57952 
        1.75489         4.34438         1.56608 
        1.76101         4.31442         1.55281 
        1.76715         4.30006         1.53967 
        1.77329         4.26914         1.52666 
        1.77943         4.24214         1.51381 
        1.78557         4.23184         1.50111 
        1.79171         4.20797         1.48856 
        1.79785         4.18085         1.47616 
        1.80399         4.16062         1.46389 
        1.81012         4.13928         1.45179 
        1.81625         4.11889         1.43982 
        1.82239          4.1013         1.42797 
        1.82853         4.07214         1.41626 
        1.83466         4.05389          1.4047 
        1.84078         4.03983         1.39327 
        1.84692         4.02507         1.38196 
        1.85306          3.9957         1.37075 
         1.8592         3.97092         1.35969 
        1.86533         3.95431         1.34876 
        1.87147         3.93574         1.33793 
        1.87761         3.91763         1.32722 
        1.88375         3.88915         1.31664 
        1.88988         3.88232         1.30619 
        1.89601         3.85877         1.29584 
        1.90215         3.83784          1.2856 
        1.90829         3.81665         1.27547 
        1.91442         3.79908         1.26545 
        1.92056         3.78786         1.25555 
         1.9267         3.76117         1.24574 
        1.93284         3.74349         1.23603 
        1.93897         3.72323         1.22645 
        1.94509         3.71593         1.21699 
        1.95123         3.69488          1.2076 
        1.95737         3.66915          1.1983 
        1.96349         3.66041         1.18913 
        1.96964          3.6417         1.18003 
        1.97578         3.61836         1.17102 
        1.98192          3.6098         1.16212 
        1.98805          3.5913         1.15331 
        1.99419         3.56915         1.14459 
        2.00033         3.56263         1.13596 
        2.00647          3.5401         1.12742 
         2.0126         3.52884         1.11898 
        2.01874         3.50878         1.11062 
        2.02488         3.49455         1.10234 
        2.03101         3.47516         1.09415 
        2.03714         3.45244         1.08606 
        2.04328         3.44235         1.07803 
        2.04941         3.42138          1.0701 
        2.05554         3.41335         1.06225 
        2.06167          3.3922         1.05447 
        2.06781         3.38403         1.04677 
        2.07396         3.37384         1.03913 
        2.08009         3.35534         1.03158 
        2.08622         3.33578         1.02412 
        2.09237         3.31789         1.01671 
        2.09851         3.31495         1.00938 
        2.10464         3.29798         1.00213 
        2.11077          3.2747        0.994961 
        2.11691         3.26087        0.987847 
        2.12305         3.25236        0.980801 
        2.12918         3.24257        0.973842 
        2.13531         3.22758        0.966949 
        2.14145         3.21106        0.960108 
         2.1476         3.19615        0.953325 
        2.15372         3.18034        0.946641 
        2.15985         3.17993        0.940015 
        2.16599         3.15245        0.933433 
        2.17213         3.14151        0.926921 
        2.17827         3.13483        0.920473 
         2.1844         3.12027        0.914093 
        2.19054         3.09854         0.90777 
        2.19666         3.08862        0.901517 
         2.2028         3.07688        0.895316 
        2.20893         3.06486        0.889171 
        2.21508         3.05254        0.883077 
        2.22122         3.03683        0.877038 
        2.22736         3.02583        0.871068 
        2.23349         3.01882        0.865154 
        2.23962         3.00457        0.859293 
        2.24577         2.99312        0.853481 
         2.2519         2.98554         0.84773 
        2.25802          2.9667        0.842042 
        2.26417         2.95929         0.83639 
        2.27031         2.94385        0.830785 
        2.27644         2.92838        0.825248 
        2.28257         2.91147        0.819761 
        2.28872         2.91378        0.814314 
        2.29486         2.89917        0.808917 
        2.30099         2.88345        0.803581 
        2.30712          2.8719         0.79829 
        2.31326         2.85796        0.793038 
         2.3194         2.84853        0.787837 
        2.32553         2.84342        0.782691 
        2.33166           2.832        0.777592 
         2.3378         2.81819        0.772533 
        2.34394         2.80758        0.767517 
        2.35007         2.79451        0.762552 
        2.35619         2.78588        0.757638 
        2.36233         2.77454        0.752755 
        2.36848         2.76266        0.747905 
        2.37462         2.75853        0.743108 
        2.38075          2.7434        0.738358 
        2.38689          2.7381        0.733645 
        2.39303         2.72069        0.728974 
        2.39916         2.71251        0.724349 
        2.40529          2.7024        0.719764 
        2.41143         2.69175        0.715216 
        2.41757         2.68941        0.710705 
         2.4237         2.67543        0.706241 
        2.42983         2.66128        0.701816 
        2.43598         2.65155        0.697417 
        2.44211         2.64086        0.693063 
        2.44823         2.63231        0.688756 
        2.45437         2.62337        0.684474 
        2.46052         2.61689        0.680224 
        2.46665         2.60653        0.676019 
        2.47279         2.59151         0.67185 
        2.47892         2.58371        0.667713 
        2.48507         2.57707        0.663608 
         2.4912         2.56411        0.659545 
