# k  (h/Mpc)    P(k)  (Mpc/h)^3    P_linear(k)  (Mpc/h)^3
     0.00783031         7954.97         8071.53 
       0.013688         9455.14         9415.93 
       0.019231         9051.54         9033.66 
      0.0249154         7776.49         7876.41 
      0.0312784         6362.43         6383.31 
      0.0375637         5163.96         5135.26 
      0.0433917         4291.39         4311.87 
      0.0492413         3789.12         3782.08 
      0.0555754         3392.11         3438.19 
      0.0619321         3231.87         3203.63 
       0.067871            2955         2987.59 
      0.0738098          2696.7         2725.47 
      0.0800417         2364.64          2400.9 
      0.0862327          2059.6         2066.16 
      0.0921407         1800.07         1779.09 
      0.0982031          1560.6         1547.72 
       0.104506         1429.56         1383.84 
       0.110769          1324.5         1286.42 
       0.116806         1256.04         1231.16 
       0.122832          1214.5         1188.23 
       0.129052         1140.26         1134.61 
       0.135211         1070.08         1060.97 
       0.141259         997.167         970.672 
       0.147318         910.505         873.304 
       0.153489         815.253         780.823 
       0.159709         750.207         705.058 
       0.165845         706.529         651.474 
       0.171974         664.704         616.819 
       0.178125         639.753         594.707 
       0.184229         619.102         577.473 
        0.19034         583.263         557.975 
       0.196428         568.255         532.307 
       0.202534         543.841         500.031 
       0.208729         506.988         463.518 
       0.214876         472.119         427.862 
       0.220989         448.524         396.748 
       0.227147         422.287         371.893 
        0.23329          403.57         353.702 
       0.239377         393.594         340.712 
       0.245482         369.427         330.349 
       0.251667         365.566         320.132 
       0.257832         352.829          308.49 
       0.263955         338.884         294.845 
       0.270079         323.522         279.619 
        0.27624         315.501         263.916 
       0.282372         301.691         249.205 
        0.28843         289.485         236.553 
       0.294538         275.617         226.036 
       0.300721         271.948         217.504 
        0.30691         259.543         210.413 
       0.313033         253.451         204.043 
       0.319153         243.353         197.597 
       0.325316         237.479         190.648 
        0.33145         228.649         183.198 
       0.337538         224.321         175.556 
       0.343633         215.912         168.025 
       0.349808         208.391          160.93 
       0.355968         204.455          154.61 
       0.362074         198.891         149.162 
       0.368217         193.134          144.37 
       0.374374         186.374          140.02 
       0.380519           183.3         135.894 
       0.386598          178.31         131.809 
       0.392688         175.388         127.634 
        0.39888         170.629          123.32 
       0.405048         166.065         119.032 
       0.411186         162.219         114.916 
       0.417313         158.474         111.062 
       0.423458         154.821         107.497 
       0.429607         151.174         104.246 
       0.435692         146.308         101.283 
       0.441815         144.985         98.4705 
       0.447964         142.164         95.7472 
       0.454126         136.014         93.0694 
       0.460267         134.369         90.4136 
       0.466387         132.342         87.7933 
        0.47254         129.273         85.2226 
       0.478662         128.175         82.7604 
       0.484765         124.004         80.4216 
       0.490885         121.944         78.2084 
       0.497035         120.244         76.1209 
       0.503198         116.882         74.1404 
       0.509342         114.872          72.247 
       0.515458           113.1         70.4202 
       0.521598         111.144         68.6342 
       0.527764         109.547         66.8819 
       0.533884         107.825         65.1791 
           0.54         105.674         63.5225 
       0.546137         104.644         61.9166 
       0.552299         102.778         60.3715 
       0.558452         100.715         58.8978 
       0.564573         98.9465          57.492 
       0.570708         97.2498         56.1359 
       0.576825         96.0154           54.83 
       0.582926         93.9939         53.5686 
       0.589034         92.5381         52.3425 
       0.595184         91.2659         51.1416 
       0.601379         89.9729         49.9634 
       0.607522         87.9676         48.8268 
       0.613639         87.5508         47.7289 
       0.619772         85.6535         46.6641 
       0.625918         84.5576         45.6347 
       0.632068         83.5841         44.6411 
       0.638161         82.5982         43.6891 
         0.6443         81.4732         42.7592 
       0.650464         80.4942         41.8522 
       0.656582         79.1912         40.9756 
       0.662703         77.8577         40.1217 
       0.668861         76.7817         39.2861 
       0.675024         75.9183         38.4732 
       0.681124         75.0509         37.6919 
       0.687237         73.6008          36.932 
       0.693381         72.7209         36.1906 
       0.699536         71.9147         35.4691 
       0.705665         71.9868         34.7708 
       0.711789         70.1129         34.0921 
       0.717957         69.6355         33.4267 
        0.72409         68.5572         32.7825 
       0.730186         67.4479         32.1588 
       0.736317         67.2122         31.5477 
       0.742472         66.4419         30.9503 
       0.748622         65.6328          30.369 
        0.75476         64.9365          29.804 
       0.760888         63.9719         29.2545 
       0.767043         63.3968          28.717 
       0.773185         62.6098         28.1944 
       0.779291         62.0126         27.6878 
       0.785407         61.4873         27.1931 
       0.791564         60.8358         26.7075 
       0.797719         59.7418         26.2339 
       0.803834         59.4859         25.7748 
       0.809972         58.4576          25.325 
       0.816124         58.0676          24.885 
       0.822261         57.5831         24.4565 
       0.828378         57.1528         24.0395 
       0.834502         56.5068         23.6319 
       0.840667         55.8872         23.2311 
       0.846816         55.1107         22.8408 
       0.852925         54.7022         22.4619 
       0.859047         53.9578          22.091 
       0.865192         53.6118         21.7272 
       0.871341         53.2996         21.3715 
       0.877463          52.361         21.0254 
       0.883569         52.0324         20.6878 
       0.889708         51.6679          20.356 
       0.895864         51.2201         20.0307 
       0.902008         50.7029         19.7131 
       0.908149         50.3209         19.4027 
       0.914301         49.8569         19.0985 
       0.920448         49.4415         18.8011 
       0.926574          48.884         18.5111 
       0.932687         48.6859         18.2279 
       0.938823         47.9044         17.9496 
       0.944975         47.6166         17.6765 
       0.951105         47.1788           17.41 
       0.957225         46.6096         17.1496 
       0.963368         46.5493         16.8936 
       0.969511         46.1561         16.6428 
       0.975621         45.8292         16.3985 
       0.981748         45.2761         16.1584 
       0.987916         44.9113         15.9217 
        0.99406         44.6437         15.6906 
        1.00019         44.1655         15.4646 
        1.00632         43.9067         15.2433 
        1.01246         43.5878         15.0259 
        1.01859         42.9744         14.8132 
        1.02471         42.9435         14.6049 
        1.03085         42.5333         14.3998 
        1.03698         42.1332         14.1991 
        1.04314         41.7933         14.0014 
        1.04929         41.4809          13.808 
        1.05541         41.0474         13.6189 
        1.06154         41.0297          13.433 
        1.06769         40.6051         13.2503 
        1.07382         40.3865         13.0715 
        1.07993         40.1302         12.8965 
        1.08607          39.758          12.724 
        1.09222          39.533         12.5544 
        1.09836         39.2112         12.3882 
        1.10449         38.9311         12.2251 
        1.11063         38.5121         12.0649 
        1.11677         38.2967         11.9075 
         1.1229         38.0489         11.7533 
        1.12903         37.5448         11.6016 
        1.13518         37.6962         11.4526 
        1.14131         37.4001         11.3062 
        1.14745         36.8906         11.1624 
        1.15359         36.8595         11.0212 
        1.15973          36.408         10.8823 
        1.16584         36.2247         10.7465 
        1.17197         36.0212         10.6128 
        1.17811         35.8225         10.4809 
        1.18424         35.4626         10.3517 
        1.19038         35.2888         10.2243 
        1.19652         35.1987         10.0991 
        1.20267         34.8744         9.97596 
        1.20881         34.6426         9.85492 
        1.21495         34.3553         9.73609 
        1.22108         34.1982         9.61923 
         1.2272          33.817         9.50457 
        1.23334         33.7057         9.39152 
        1.23949           33.67         9.28005 
        1.24562          33.263         9.17069 
        1.25174         33.1785         9.06326 
        1.25789         32.9744         8.95723 
        1.26402         32.6838         8.85308 
        1.27014         32.3981         8.75084 
        1.27628         32.2648         8.64991 
        1.28244         32.0836         8.55038 
        1.28858          31.935         8.45255 
        1.29471         31.8013         8.35646 
        1.30084         31.6132         8.26196 
        1.30697         31.3739         8.16878 
        1.31312         31.1158          8.0769 
        1.31925         30.9982         7.98672 
        1.32537         30.8379         7.89801 
        1.33151         30.5765         7.81034 
        1.33765         30.5147         7.72405 
        1.34378         30.3025         7.63923 
        1.34992         30.0612         7.55563 
        1.35606         29.8994          7.4731 
         1.3622          29.752         7.39195 
        1.36833         29.5289         7.31221 
        1.37445         29.4866         7.23368 
        1.38059          29.269         7.15606 
        1.38675         28.9926          7.0794 
        1.39288         28.9879         7.00417 
        1.39901         28.7329         6.93007 
        1.40515         28.5884         6.85687 
         1.4113         28.4676         6.78476 
        1.41742         28.2492         6.71396 
        1.42355         28.1323         6.64404 
         1.4297         27.9831         6.57491 
        1.43585         27.9056         6.50679 
        1.44198         27.6208         6.43989 
        1.44809          27.542         6.37406 
        1.45423         27.3956         6.30891 
        1.46036         27.3205         6.24478 
        1.46649         27.1066         6.18152 
        1.47263         26.9557         6.11909 
        1.47877         26.8761         6.05754 
        1.48491         26.8133         5.99675 
        1.49104         26.5687         5.93691 
        1.49718         26.3226         5.87785 
        1.50333         26.3164          5.8195 
        1.50947         26.1992         5.76205 
         1.5156         26.0352         5.70547 
        1.52172         25.8888         5.64964 
        1.52787         25.8329         5.59445 
          1.534         25.6556         5.54007 
        1.54013         25.4665         5.48646 
        1.54627         25.4031         5.43347 
        1.55241         25.1829         5.38116 
        1.55855         25.1254         5.32962 
        1.56467         24.9105          5.2789 
         1.5708         24.9434         5.22869 
        1.57695          24.692         5.17906 
        1.58308         24.6319         5.13019 
        1.58922         24.5481         5.08192 
        1.59535         24.3941         5.03428 
         1.6015         24.2312         4.98719 
        1.60764         24.1365         4.94072 
        1.61376          23.968         4.89498 
        1.61989         23.8472         4.84977 
        1.62604         23.8165         4.80504 
        1.63218         23.7006         4.76089 
        1.63831          23.558         4.71741 
        1.64444         23.4611         4.67445 
        1.65059         23.3137         4.63192 
        1.65673         23.1694         4.58997 
        1.66285         23.1281         4.54865 
        1.66898         22.9953         4.50783 
        1.67512          22.915         4.46743 
        1.68127         22.7544         4.42749 
         1.6874         22.6614         4.38813 
        1.69353         22.5795         4.34926 
        1.69967         22.4456         4.31078 
        1.70581         22.3512         4.27277 
        1.71193         22.2859         4.23537 
        1.71806         22.1202         4.19833 
        1.72421         22.0138         4.16166 
        1.73035         21.8984         4.12548 
        1.73649         21.8589         4.08972 
        1.74262         21.7293         4.05442 
        1.74876         21.7046         4.01952 
        1.75489         21.5612         3.98509 
        1.76101         21.4383         3.95108 
        1.76715         21.3711         3.91742 
        1.77329         21.3071         3.88411 
        1.77943         21.1784         3.85117 
        1.78557         21.0523         3.81866 
        1.79171         20.9769         3.78653 
        1.79785         20.8625         3.75475 
        1.80399          20.805         3.72335 
        1.81012          20.719         3.69234 
        1.81625         20.6358         3.66171 
        1.82239         20.5601         3.63137 
        1.82853          20.417         3.60139 
        1.83466         20.3473         3.57178 
        1.84078         20.1987         3.54253 
        1.84692         20.1517         3.51357 
        1.85306         20.0678         3.48489 
         1.8592         19.9567         3.45657 
        1.86533         19.8747         3.42859 
        1.87147         19.7998         3.40088 
        1.87761         19.7559         3.37347 
        1.88375         19.6897         3.34639 
        1.88988         19.5725         3.31964 
        1.89601         19.4532         3.29316 
        1.90215         19.4058         3.26695 
        1.90829         19.3619         3.24104 
        1.91442         19.2323         3.21541 
        1.92056         19.1651         3.19008 
         1.9267         19.0588         3.16499 
        1.93284         18.9536         3.14016 
        1.93897         18.9263         3.11564 
        1.94509         18.8271         3.09144 
        1.95123          18.762         3.06743 
        1.95737         18.6601         3.04366 
        1.96349         18.5931          3.0202 
        1.96964         18.5119         2.99692 
        1.97578         18.4359         2.97387 
        1.98192         18.3449         2.95112 
        1.98805         18.2994         2.92859 
        1.99419         18.2144          2.9063 
        2.00033         18.0819         2.88424 
        2.00647         18.0387          2.8624 
         2.0126         17.9728         2.84083 
        2.01874         17.8908         2.81945 
        2.02488         17.8617         2.79827 
        2.03101          17.747         2.77734 
        2.03714         17.6912         2.75665 
        2.04328         17.6004         2.73615 
        2.04941         17.5289         2.71587 
        2.05554         17.4815         2.69581 
        2.06167         17.4203         2.67593 
        2.06781         17.3402         2.65624 
        2.07396         17.2955         2.63672 
        2.08009         17.2378         2.61743 
        2.08622         17.0843         2.59836 
        2.09237         17.0574         2.57944 
        2.09851          17.001          2.5607 
        2.10464         16.9298         2.54218 
        2.11077         16.8343         2.52387 
        2.11691         16.7858          2.5057 
        2.12305         16.7374          2.4877 
        2.12918         16.6746         2.46992 
        2.13531         16.5825         2.45232 
        2.14145         16.5574         2.43484 
         2.1476         16.4684         2.41752 
        2.15372         16.3937         2.40045 
        2.15985         16.2881         2.38352 
        2.16599         16.2793         2.36672 
        2.17213         16.2219         2.35009 
        2.17827         16.1156         2.33362 
         2.1844         16.0378         2.31733 
        2.19054         16.0126         2.30119 
        2.19666         15.9626         2.28522 
         2.2028         15.8975         2.26939 
        2.20893         15.8317         2.25371 
        2.21508         15.7402         2.23815 
        2.22122         15.6493         2.22273 
        2.22736         15.6556         2.20749 
        2.23349          15.566          2.1924 
        2.23962          15.503         2.17744 
        2.24577         15.4302         2.16261 
         2.2519         15.4077         2.14794 
        2.25802         15.3307         2.13342 
        2.26417         15.3075           2.119 
        2.27031         15.2115          2.1047 
        2.27644         15.1686         2.09057 
        2.28257         15.0907         2.07657 
        2.28872         15.0201         2.06267 
        2.29486         14.9776          2.0489 
        2.30099          14.914         2.03529 
        2.30712         14.8814         2.02179 
        2.31326         14.8168          2.0084 
         2.3194         14.7825         1.99513 
        2.32553         14.7026           1.982 
        2.33166         14.6288           1.969 
         2.3378         14.5817         1.95609 
        2.34394         14.5439          1.9433 
        2.35007         14.4743         1.93064 
        2.35619         14.3891         1.91811 
        2.36233          14.372         1.90565 
        2.36848         14.3123         1.89329 
        2.37462         14.2582         1.88106 
        2.38075         14.1963         1.86894 
        2.38689         14.1777         1.85693 
        2.39303          14.095         1.84502 
        2.39916         14.0532         1.83323 
        2.40529         13.9941         1.82154 
        2.41143         13.9424         1.80995 
        2.41757         13.9039         1.79845 
         2.4237         13.8413         1.78707 
        2.42983         13.7853         1.77579 
        2.43598         13.7595         1.76458 
        2.44211         13.6945         1.75349 
        2.44823         13.6371         1.74251 
        2.45437         13.5898          1.7316 
        2.46052         13.5427         1.72077 
        2.46665         13.5085         1.71005 
        2.47279         13.4213         1.69943 
        2.47892         13.4004         1.68889 
        2.48507         13.3488         1.67843 
         2.4912         13.3157         1.66807 
