# k  (h/Mpc)    P(k)  (Mpc/h)^3    P_linear(k)  (Mpc/h)^3
     0.00783031         16974.6         17230.4 
       0.013688         20284.9         20092.3 
       0.019231         19336.9         19272.6 
      0.0249154         16478.5         16801.4 
      0.0312784         13511.3         13615.1 
      0.0375637         11014.6         10952.4 
      0.0433917         9103.92          9195.9 
      0.0492413          8068.5         8065.77 
      0.0555754         7163.38         7332.17 
      0.0619321         6890.38          6831.8 
       0.067871         6242.13         6371.01 
      0.0738098         5703.41         5811.97 
      0.0800417         4993.09         5119.77 
      0.0862327         4377.06         4405.91 
      0.0921407         3870.25         3793.74 
      0.0982031         3364.13         3300.35 
       0.104506         3114.82         2950.87 
       0.110769         2883.74         2743.11 
       0.116806         2740.88         2625.27 
       0.122832         2634.36         2533.72 
       0.129052         2454.39         2419.38 
       0.135211         2309.08         2262.35 
       0.141259         2174.77         2069.79 
       0.147318         2005.26         1862.17 
       0.153489         1804.08         1664.97 
       0.159709         1680.02         1503.41 
       0.165845         1598.44         1389.15 
       0.171974         1513.82         1315.25 
       0.178125         1447.58          1268.1 
       0.184229         1390.77         1231.35 
        0.19034         1313.53         1189.77 
       0.196428         1281.97         1135.04 
       0.202534          1228.1         1066.22 
       0.208729          1157.1         988.358 
       0.214876         1095.66         912.328 
       0.220989         1048.32         845.983 
       0.227147          1000.2         792.986 
        0.23329         957.587         754.195 
       0.239377         938.607         726.497 
       0.245482         877.951         704.399 
       0.251667         872.772         682.614 
       0.257832         837.219          657.79 
       0.263955          807.96         628.693 
       0.270079         774.869         596.228 
        0.27624         763.341         562.745 
       0.282372         731.197         531.376 
        0.28843          717.08         504.399 
       0.294538         679.215         481.972 
       0.300721         674.636          463.78 
        0.30691         645.986          448.66 
       0.313033          632.79         435.077 
       0.319153         615.962         421.332 
       0.325316         597.463         406.514 
        0.33145         580.496          390.63 
       0.337538         569.802         374.334 
       0.343633         553.523         358.276 
       0.349808          532.87         343.147 
       0.355968         528.283         329.671 
       0.362074         520.836         318.054 
       0.368217         505.073         307.836 
       0.374374         483.296         298.561 
       0.380519         481.965         289.763 
       0.386598         468.198         281.053 
       0.392688         465.282          272.15 
        0.39888         451.481         262.951 
       0.405048         442.745         253.809 
       0.411186         435.736         245.032 
       0.417313         426.737         236.815 
       0.423458         417.458         229.212 
       0.429607         411.563          222.28 
       0.435692         401.074         215.963 
       0.441815         396.938         209.966 
       0.447964         388.352         204.159 
       0.454126         380.936         198.449 
       0.460267         372.955         192.786 
       0.466387         368.162         187.199 
        0.47254         362.405         181.718 
       0.478662         360.436         176.468 
       0.484765         347.323          171.48 
       0.490885         344.168         166.761 
       0.497035         337.568          162.31 
       0.503198         333.368         158.087 
       0.509342          330.94          154.05 
       0.515458         326.863         150.155 
       0.521598         318.168         146.347 
       0.527764         313.919          142.61 
       0.533884         311.093         138.979 
           0.54         306.608         135.447 
       0.546137         305.025         132.023 
       0.552299         298.906         128.728 
       0.558452          297.23         125.586 
       0.564573         292.999         122.588 
       0.570708         287.319         119.697 
       0.576825         281.856         116.912 
       0.582926         279.875         114.223 
       0.589034         277.083         111.608 
       0.595184         274.759         109.048 
       0.601379         269.986         106.535 
       0.607522          266.46         104.112 
       0.613639         264.817         101.771 
       0.619772         259.532         99.5003 
       0.625918         258.329         97.3053 
       0.632068         253.882         95.1867 
       0.638161          252.75         93.1568 
         0.6443         248.719         91.1741 
       0.650464          246.27         89.2401 
       0.656582         243.461         87.3709 
       0.662703         243.199         85.5502 
       0.668861         239.083         83.7684 
       0.675024         236.064         82.0351 
       0.681124         234.297         80.3692 
       0.687237         231.863         78.7488 
       0.693381         228.205         77.1679 
       0.699536         226.063         75.6295 
       0.705665         224.047         74.1406 
       0.711789         222.661         72.6935 
       0.717957         221.334         71.2747 
        0.72409         218.957         69.9009 
       0.730186         216.174          68.571 
       0.736317         213.873         67.2682 
       0.742472         212.323         65.9943 
       0.748622         210.613         64.7547 
        0.75476          208.39         63.5501 
       0.760888         206.128         62.3785 
       0.767043         205.843         61.2323 
       0.773185          203.74         60.1179 
       0.779291         200.068         59.0378 
       0.785407         199.669          57.983 
       0.791564         197.567         56.9474 
       0.797719         194.965         55.9377 
       0.803834         193.611         54.9587 
       0.809972         192.937         53.9997 
       0.816124         191.896         53.0613 
       0.822261         190.261         52.1478 
       0.828378         188.171         51.2586 
       0.834502         187.081         50.3894 
       0.840667         185.071         49.5348 
       0.846816         183.657         48.7026 
       0.852925         182.736         47.8948 
       0.859047           181.2         47.1038 
       0.865192         178.838         46.3282 
       0.871341         177.498         45.5696 
       0.877463         176.579         44.8316 
       0.883569         175.937         44.1119 
       0.889708         173.722         43.4044 
       0.895864         172.308         42.7107 
       0.902008         171.101         42.0336 
       0.908149         170.471         41.3717 
       0.914301         168.184          40.723 
       0.920448         167.311         40.0889 
       0.926574         165.941         39.4706 
       0.932687         165.926         38.8667 
       0.938823         163.708         38.2732 
       0.944975         162.832         37.6909 
       0.951105         161.816         37.1228 
       0.957225         160.701         36.5674 
       0.963368         158.376         36.0215 
       0.969511          157.91         35.4868 
       0.975621         156.455         34.9659 
       0.981748         156.347         34.4541 
       0.987916         154.829         33.9493 
        0.99406         153.504         33.4566 
        1.00019          153.23         32.9747 
        1.00632         151.732         32.5027 
        1.01246         150.738         32.0393 
        1.01859         150.555         31.5856 
        1.02471          148.35         31.1414 
        1.03085         147.251         30.7042 
        1.03698         146.584         30.2763 
        1.04314         145.112         29.8547 
        1.04929          144.64         29.4422 
        1.05541         144.143         29.0392 
        1.06154         142.751         28.6427 
        1.06769         142.516          28.253 
        1.07382         141.114         27.8719 
        1.07993         140.148         27.4987 
        1.08607         139.561         27.1309 
        1.09222         138.776         26.7693 
        1.09836         137.672         26.4149 
        1.10449         136.223         26.0672 
        1.11063         135.396         25.7255 
        1.11677         134.845           25.39 
         1.1229         133.828         25.0611 
        1.12903         133.379         24.7378 
        1.13518         132.637         24.4199 
        1.14131          131.31         24.1077 
        1.14745         131.178         23.8013 
        1.15359         130.033         23.5001 
        1.15973         129.224          23.204 
        1.16584         128.218         22.9143 
        1.17197         127.731         22.6292 
        1.17811         126.754         22.3481 
        1.18424         126.312         22.0725 
        1.19038         125.987         21.8009 
        1.19652         124.918         21.5339 
        1.20267         124.137         21.2714 
        1.20881         123.358         21.0133 
        1.21495         122.413         20.7599 
        1.22108         121.811         20.5107 
         1.2272         120.842         20.2663 
        1.23334         120.507         20.0252 
        1.23949         119.694         19.7875 
        1.24562         118.952         19.5543 
        1.25174         118.445         19.3253 
        1.25789         117.641         19.0992 
        1.26402         116.364         18.8771 
        1.27014         115.811         18.6591 
        1.27628         115.581         18.4439 
        1.28244         115.266         18.2317 
        1.28858         114.356          18.023 
        1.29471         113.323         17.8182 
        1.30084         113.293         17.6167 
        1.30697         111.973          17.418 
        1.31312         111.554         17.2221 
        1.31925         110.797         17.0298 
        1.32537         110.468         16.8406 
        1.33151         109.562         16.6537 
        1.33765         108.921         16.4697 
        1.34378         108.508         16.2888 
        1.34992         108.139         16.1106 
        1.35606          107.68         15.9346 
         1.3622         106.603         15.7616 
        1.36833         105.987         15.5915 
        1.37445         105.603         15.4241 
        1.38059         104.744         15.2586 
        1.38675           104.2         15.0951 
        1.39288         103.992         14.9347 
        1.39901         103.493         14.7767 
        1.40515         102.535         14.6206 
         1.4113         102.212         14.4669 
        1.41742         101.456         14.3159 
        1.42355         100.964         14.1668 
         1.4297         100.529         14.0194 
        1.43585          99.779         13.8742 
        1.44198         99.3413         13.7315 
        1.44809         98.9741         13.5912 
        1.45423          98.535         13.4522 
        1.46036         97.8457         13.3155 
        1.46649         97.1816         13.1806 
        1.47263         96.5269         13.0475 
        1.47877         96.1471         12.9163 
        1.48491          95.423         12.7866 
        1.49104         95.2906         12.6591 
        1.49718         94.6707         12.5331 
        1.50333         94.1447         12.4087 
        1.50947         93.6311         12.2862 
         1.5156         93.2202         12.1655 
        1.52172         92.7233         12.0465 
        1.52787         92.0963         11.9288 
          1.534         91.6673         11.8129 
        1.54013         91.2336         11.6986 
        1.54627         90.8146         11.5856 
        1.55241         90.2117          11.474 
        1.55855         89.6754         11.3642 
        1.56467         89.4494          11.256 
         1.5708         88.6937         11.1489 
        1.57695         88.5503         11.0431 
        1.58308         88.0291         10.9389 
        1.58922         87.6887          10.836 
        1.59535         87.1489         10.7344 
         1.6015         86.7604          10.634 
        1.60764         86.2222         10.5349 
        1.61376         85.8925         10.4374 
        1.61989         85.4221          10.341 
        1.62604         84.9199         10.2456 
        1.63218         84.8003         10.1515 
        1.63831         83.9239         10.0587 
        1.64444         83.5955         9.96714 
        1.65059         83.1476         9.87647 
        1.65673         82.6487         9.78701 
        1.66285         82.3694         9.69892 
        1.66898         82.0658         9.61188 
        1.67512         81.3609         9.52573 
        1.68127         81.1503         9.44057 
         1.6874         80.5322         9.35663 
        1.69353         80.2086         9.27376 
        1.69967         79.9882          9.1917 
        1.70581          79.471         9.11066 
        1.71193         79.0191         9.03091 
        1.71806         78.7513         8.95194 
        1.72421         78.2038         8.87375 
        1.73035         77.9092         8.79659 
        1.73649         77.5864         8.72036 
        1.74262         77.0076         8.64509 
        1.74876         76.7744         8.57066 
        1.75489         76.2653         8.49726 
        1.76101         75.8845         8.42474 
        1.76715         75.3819         8.35296 
        1.77329         75.1946         8.28194 
        1.77943         74.6398          8.2117 
        1.78557         74.5535         8.14239 
        1.79171         73.7854         8.07386 
        1.79785         73.4709         8.00611 
        1.80399         73.1797         7.93914 
        1.81012         72.9377         7.87304 
        1.81625         72.5582         7.80771 
        1.82239         72.1682         7.74303 
        1.82853          71.899         7.67911 
        1.83466         71.5113         7.61597 
        1.84078         71.0513          7.5536 
        1.84692         70.7985         7.49184 
        1.85306         70.4194         7.43069 
         1.8592         70.1901         7.37031 
        1.86533         69.7082         7.31064 
        1.87147         69.2531         7.25156 
        1.87761         69.0467         7.19311 
        1.88375         68.7165         7.13537 
        1.88988         68.3237         7.07833 
        1.89601          68.025         7.02187 
        1.90215         67.5136         6.96599 
        1.90829         67.2843         6.91075 
        1.91442         67.0002         6.85609 
        1.92056         66.6068         6.80208 
         1.9267         66.3303         6.74859 
        1.93284         65.9834         6.69564 
        1.93897         65.6436         6.64336 
        1.94509         65.4435         6.59175 
        1.95123         65.0374         6.54056 
        1.95737          64.678         6.48987 
        1.96349         64.3383         6.43985 
        1.96964         63.9995         6.39021 
        1.97578         63.6955         6.34107 
        1.98192         63.6633         6.29255 
        1.98805         63.0161         6.24452 
        1.99419         62.8289           6.197 
        2.00033         62.6294         6.14994 
        2.00647         62.2194         6.10339 
         2.0126         61.9321         6.05739 
        2.01874         61.4654          6.0118 
        2.02488          61.364         5.96664 
        2.03101         60.9721         5.92202 
        2.03714         60.5789          5.8779 
        2.04328         60.3517         5.83418 
        2.04941         60.0959         5.79094 
        2.05554         59.8939         5.74817 
        2.06167          59.611         5.70577 
        2.06781         59.1415         5.66379 
        2.07396         58.8968         5.62218 
        2.08009          58.709         5.58105 
        2.08622         58.3776         5.54038 
        2.09237         58.1466         5.50004 
        2.09851         57.9385         5.46009 
        2.10464         57.5374          5.4206 
        2.11077         57.3105         5.38155 
        2.11691         56.9678         5.34279 
        2.12305         56.7299         5.30442 
        2.12918         56.4754         5.26651 
        2.13531         56.0805         5.22897 
        2.14145         55.8738         5.19171 
         2.1476         55.5569         5.15477 
        2.15372         55.4049         5.11837 
        2.15985         55.0643         5.08229 
        2.16599         54.8061         5.04645 
        2.17213         54.5878           5.011 
        2.17827         54.2781         4.97589 
         2.1844         54.0219         4.94115 
        2.19054         53.8022         4.90673 
        2.19666         53.5724         4.87269 
         2.2028            53.4         4.83893 
        2.20893         53.0186         4.80548 
        2.21508          52.852         4.77231 
        2.22122         52.5543         4.73944 
        2.22736         52.3397         4.70695 
        2.23349         52.0679         4.67477 
        2.23962         51.7725         4.64287 
        2.24577         51.4637         4.61124 
         2.2519         51.3349         4.57996 
        2.25802         51.0956           4.549 
        2.26417          50.804         4.51825 
        2.27031         50.5733         4.48776 
        2.27644         50.3057         4.45763 
        2.28257         50.1264         4.42778 
        2.28872         49.8049         4.39815 
        2.29486         49.5789         4.36879 
        2.30099          49.318         4.33976 
        2.30712         49.1563         4.31099 
        2.31326         48.8495         4.28242 
         2.3194         48.6506         4.25413 
        2.32553         48.4316         4.22614 
        2.33166         48.1108         4.19841 
         2.3378         47.9149          4.1709 
        2.34394         47.6722         4.14362 
        2.35007         47.4843         4.11662 
        2.35619         47.3024          4.0899 
        2.36233          47.047         4.06335 
        2.36848         46.8476         4.03698 
        2.37462         46.5772          4.0109 
        2.38075         46.4412         3.98507 
        2.38689         46.2097         3.95945 
        2.39303         45.9506         3.93406 
        2.39916         45.7345         3.90892 
        2.40529         45.6086           3.884 
        2.41143         45.3633         3.85928 
        2.41757         45.1381         3.83476 
         2.4237         44.9071          3.8105 
        2.42983         44.7043         3.78645 
        2.43598         44.4615         3.76254 
        2.44211         44.2593         3.73888 
        2.44823         44.1054         3.71548 
        2.45437         43.8729         3.69221 
        2.46052         43.7062         3.66912 
        2.46665         43.5079         3.64627 
        2.47279         43.2203         3.62362 
        2.47892         43.1012         3.60114 
        2.48507         42.8091         3.57884 
         2.4912         42.6856         3.55677 
