# k  (h/Mpc)    Pcb(k)  (Mpc/h)^3    Pcb_linear(k)  (Mpc/h)^3
     0.00783031         13111.6         13293.5 
       0.013688         15649.7         15524.6 
       0.019231         14949.9         14901.4 
      0.0249154         12784.4           12996 
      0.0312784         10475.8         10534.3 
      0.0375637          8525.6         8475.69 
      0.0433917         7062.35          7117.2 
      0.0492413         6250.09         6243.07 
      0.0555754         5567.95         5675.65 
      0.0619321         5336.58         5288.61 
       0.067871          4852.2          4932.1 
      0.0738098         4431.09         4499.46 
      0.0800417         3881.49         3963.68 
      0.0862327         3393.71          3411.1 
      0.0921407         2986.44          2937.2 
      0.0982031         2592.25         2555.25 
       0.104506         2390.58          2284.7 
       0.110769          2213.7         2123.87 
       0.116806         2101.34         2032.65 
       0.122832          2025.2         1961.78 
       0.129052         1892.25         1873.26 
       0.135211         1778.78         1751.69 
       0.141259         1668.23         1602.61 
       0.147318         1531.78         1441.86 
       0.153489          1375.1         1289.17 
       0.159709          1275.1         1164.08 
       0.165845         1207.91         1075.61 
       0.171974         1140.84          1018.4 
       0.178125         1093.74         981.894 
       0.184229         1054.31         953.439 
        0.19034          992.79         921.249 
       0.196428         969.412         878.868 
       0.202534         928.954         825.582 
       0.208729         871.424         765.299 
       0.214876         819.095         706.428 
       0.220989         781.843         655.057 
       0.227147         742.177         614.022 
        0.23329         710.111         583.988 
       0.239377         694.687          562.54 
       0.245482         649.332         545.431 
       0.251667         644.724         528.563 
       0.257832         620.061          509.34 
       0.263955         597.573         486.811 
       0.270079         571.859         461.674 
        0.27624          561.87         435.747 
       0.282372         538.005         411.457 
        0.28843         522.807         390.567 
       0.294538         495.793         373.203 
       0.300721         491.862         359.117 
        0.30691         469.705          347.41 
       0.313033         460.001          336.89 
       0.319153          445.22         326.249 
       0.325316         432.511         314.775 
        0.33145          418.67         302.476 
       0.337538         411.501         289.858 
       0.343633         397.789         277.424 
       0.349808         383.352         265.709 
       0.355968          378.88         255.273 
       0.362074         371.702         246.278 
       0.368217         361.031         238.367 
       0.374374         345.668         231.184 
       0.380519         343.035         224.373 
       0.386598         333.815         217.628 
       0.392688         330.539         210.734 
        0.39888         321.202         203.612 
       0.405048          313.56         196.532 
       0.411186         307.643         189.737 
       0.417313          301.43         183.374 
       0.423458         294.892         177.487 
       0.429607         289.481         172.118 
       0.435692         281.601         167.227 
       0.441815          278.87         162.583 
       0.447964         272.871         158.087 
       0.454126         264.626         153.666 
       0.460267         260.298         149.281 
       0.466387         256.987         144.955 
        0.47254         251.433          140.71 
       0.478662          250.63         136.645 
       0.484765         241.589         132.783 
       0.490885         238.758          129.13 
       0.497035         234.626         125.682 
       0.503198         230.088         122.413 
       0.509342         227.955         119.286 
       0.515458         224.659          116.27 
       0.521598         219.558         113.321 
       0.527764         216.651         110.428 
       0.533884         214.059         107.617 
           0.54          210.68         104.881 
       0.546137         209.384          102.23 
       0.552299         204.908         99.6788 
       0.558452         203.239         97.2457 
       0.564573         200.073         94.9246 
       0.570708         195.759         92.6855 
       0.576825         193.033         90.5294 
       0.582926         190.348         88.4467 
       0.589034         188.418         86.4223 
       0.595184          186.33         84.4394 
       0.601379         183.673         82.4942 
       0.607522         180.582         80.6176 
       0.613639         179.263         78.8048 
       0.619772         175.514         77.0467 
       0.625918         174.197          75.347 
       0.632068         171.621         73.7065 
       0.638161         170.539         72.1347 
         0.6443         167.895         70.5995 
       0.650464         166.153         69.1018 
       0.656582          164.05         67.6545 
       0.662703          163.13         66.2447 
       0.668861          160.16         64.8649 
       0.675024         158.033         63.5228 
       0.681124         157.205         62.2329 
       0.687237         154.873         60.9781 
       0.693381         152.406          59.754 
       0.699536          151.36         58.5627 
       0.705665          150.33         57.4098 
       0.711789         148.061         56.2893 
       0.717957          147.74         55.1906 
        0.72409         145.529         54.1269 
       0.730186         143.583         53.0971 
       0.736317         142.075         52.0883 
       0.742472         141.182         51.1019 
       0.748622         139.833          50.142 
        0.75476         138.558         49.2092 
       0.760888         136.823          48.302 
       0.767043         136.345         47.4145 
       0.773185         134.938         46.5515 
       0.779291         132.389         45.7152 
       0.785407         131.967         44.8984 
       0.791564         130.893         44.0965 
       0.797719         128.545         43.3147 
       0.803834         127.975         42.5566 
       0.809972         127.033          41.814 
       0.816124         126.379         41.0874 
       0.822261         125.104           40.38 
       0.828378         123.893         39.6915 
       0.834502         123.498         39.0184 
       0.840667          121.59         38.3567 
       0.846816         120.328         37.7122 
       0.852925         119.811         37.0868 
       0.859047         118.448         36.4743 
       0.865192         117.379         35.8737 
       0.871341         116.426         35.2863 
       0.877463          115.25         34.7148 
       0.883569         114.986         34.1575 
       0.889708         113.792         33.6097 
       0.895864         112.542         33.0725 
       0.902008         111.828         32.5483 
       0.908149         111.377         32.0357 
       0.914301         110.097         31.5334 
       0.920448          109.23         31.0424 
       0.926574         108.484         30.5636 
       0.932687         108.407         30.0959 
       0.938823         106.724         29.6364 
       0.944975         105.669         29.1855 
       0.951105         105.195         28.7456 
       0.957225         104.204         28.3155 
       0.963368         102.986         27.8929 
       0.969511         102.907         27.4788 
       0.975621         102.211         27.0754 
       0.981748         101.669         26.6791 
       0.987916          100.57         26.2883 
        0.99406         99.7824         25.9067 
        1.00019         99.5611         25.5335 
        1.00632         98.4376         25.1681 
        1.01246         97.9741         24.8092 
        1.01859         97.1344          24.458 
        1.02471         96.2343          24.114 
        1.03085         95.4183         23.7754 
        1.03698          95.194         23.4441 
        1.04314         94.1981         23.1177 
        1.04929         93.7025         22.7983 
        1.05541         92.9439         22.4862 
        1.06154         92.5701         22.1792 
        1.06769         92.2631         21.8774 
        1.07382         91.4483         21.5823 
        1.07993         90.8091         21.2933 
        1.08607         90.0923         21.0085 
        1.09222         89.9157         20.7285 
        1.09836         89.0704         20.4541 
        1.10449         88.4222         20.1849 
        1.11063         87.7941         19.9203 
        1.11677         87.3921         19.6605 
         1.1229         86.6212         19.4058 
        1.12903         86.0688         19.1554 
        1.13518         86.0101         18.9093 
        1.14131          85.257         18.6676 
        1.14745          84.689         18.4302 
        1.15359         84.1854          18.197 
        1.15973          83.779         17.9677 
        1.16584         82.9707         17.7435 
        1.17197         82.5602         17.5227 
        1.17811         82.1638          17.305 
        1.18424         81.6144         17.0916 
        1.19038         81.3359         16.8813 
        1.19652         80.7969         16.6745 
        1.20267         79.9795         16.4712 
        1.20881          79.639         16.2714 
        1.21495         79.0856         16.0752 
        1.22108         78.8387         15.8823 
         1.2272         77.9692          15.693 
        1.23334           77.71         15.5063 
        1.23949         77.2646         15.3222 
        1.24562         76.7464         15.1417 
        1.25174         76.3663         14.9643 
        1.25789         76.0465         14.7892 
        1.26402         75.3594         14.6173 
        1.27014         75.0806         14.4485 
        1.27628         74.6991         14.2818 
        1.28244         74.2076         14.1175 
        1.28858          74.035          13.956 
        1.29471         73.4502         13.7973 
        1.30084         73.1201         13.6413 
        1.30697         72.5712         13.4874 
        1.31312         72.1802         13.3357 
        1.31925         71.7144         13.1868 
        1.32537         71.4524         13.0404 
        1.33151         70.7942         12.8956 
        1.33765         70.5673         12.7531 
        1.34378         70.1927         12.6131 
        1.34992          69.845         12.4751 
        1.35606         69.4416         12.3388 
         1.3622         68.8755         12.2048 
        1.36833         68.7542         12.0731 
        1.37445         68.2844         11.9435 
        1.38059         67.7553         11.8153 
        1.38675         67.4251         11.6888 
        1.39288         67.1604         11.5645 
        1.39901         66.8438         11.4422 
        1.40515         66.3689         11.3213 
         1.4113         66.0681         11.2023 
        1.41742         65.9288         11.0854 
        1.42355         65.3998         10.9699 
         1.4297         65.2384         10.8558 
        1.43585           64.69         10.7433 
        1.44198         64.3008         10.6329 
        1.44809         64.0694         10.5242 
        1.45423         63.7794         10.4166 
        1.46036         63.5066         10.3107 
        1.46649         63.0522         10.2063 
        1.47263         62.6896         10.1032 
        1.47877         62.5091         10.0016 
        1.48491          62.103          9.9012 
        1.49104         61.8495         9.80241 
        1.49718         61.4327         9.70489 
        1.50333         61.2213         9.60854 
        1.50947         60.8996         9.51369 
         1.5156         60.5692         9.42026 
        1.52172         60.2687         9.32809 
        1.52787         60.1036         9.23697 
          1.534         59.6053         9.14717 
        1.54013          59.261         9.05867 
        1.54627         59.1523         8.97117 
        1.55241         58.6256         8.88481 
        1.55855         58.4875         8.79971 
        1.56467         58.1779         8.71596 
         1.5708         57.9586         8.63307 
        1.57695         57.7945         8.55112 
        1.58308         57.2841         8.47043 
        1.58922         57.0455         8.39073 
        1.59535         56.9204         8.31208 
         1.6015         56.3695         8.23432 
        1.60764         56.2567          8.1576 
        1.61376         55.9257         8.08207 
        1.61989         55.6825         8.00743 
        1.62604         55.4435         7.93357 
        1.63218         55.2591         7.86069 
        1.63831         54.7374         7.78889 
        1.64444         54.5957         7.71796 
        1.65059         54.3849         7.64774 
        1.65673         54.0643         7.57847 
        1.66285         53.7343         7.51026 
        1.66898         53.5852         7.44286 
        1.67512         53.1653         7.37615 
        1.68127          53.044         7.31021 
         1.6874         52.7844         7.24521 
        1.69353         52.5147         7.18104 
        1.69967         52.2381          7.1175 
        1.70581         52.0983         7.05475 
        1.71193         51.9086         6.99299 
        1.71806          51.411         6.93184 
        1.72421         51.3264          6.8713 
        1.73035         51.0834         6.81155 
        1.73649          50.774         6.75252 
        1.74262         50.5861         6.69424 
        1.74876         50.3111          6.6366 
        1.75489         50.1091         6.57977 
        1.76101         49.9226         6.52361 
        1.76715         49.5586         6.46803 
        1.77329         49.3549         6.41303 
        1.77943         49.0626         6.35865 
        1.78557         48.9009         6.30498 
        1.79171         48.6696         6.25191 
        1.79785         48.3836         6.19945 
        1.80399         48.3343          6.1476 
        1.81012          47.994         6.09641 
        1.81625         47.6906         6.04582 
        1.82239         47.5404         5.99573 
        1.82853         47.2801         5.94624 
        1.83466         47.0498         5.89735 
        1.84078         46.8196         5.84906 
        1.84692         46.5697         5.80123 
        1.85306         46.3675         5.75388 
         1.8592          46.128         5.70713 
        1.86533         45.9562         5.66092 
        1.87147         45.6989         5.61518 
        1.87761         45.5608         5.56991 
        1.88375         45.3319          5.5252 
        1.88988         45.1612         5.48103 
        1.89601          44.918         5.43732 
        1.90215         44.6929         5.39405 
        1.90829         44.5611         5.35127 
        1.91442         44.3438         5.30894 
        1.92056         44.0483         5.26712 
         1.9267          43.888          5.2257 
        1.93284         43.6169          5.1847 
        1.93897         43.5168         5.14422 
        1.94509         43.2807         5.10426 
        1.95123         43.0779         5.06462 
        1.95737         42.8841         5.02537 
        1.96349         42.6248         4.98663 
        1.96964          42.525          4.9482 
        1.97578         42.2661         4.91015 
        1.98192         42.0985         4.87257 
        1.98805         42.0057         4.83538 
        1.99419         41.7048         4.79858 
        2.00033         41.5342         4.76215 
        2.00647         41.3817          4.7261 
         2.0126          41.032         4.69048 
        2.01874         41.0249         4.65518 
        2.02488         40.8164         4.62021 
        2.03101         40.6047         4.58566 
        2.03714         40.4414         4.55149 
        2.04328         40.2294         4.51764 
        2.04941         40.0271         4.48416 
        2.05554         39.8256         4.45104 
        2.06167          39.712          4.4182 
        2.06781         39.4628          4.3857 
        2.07396         39.3584         4.35347 
        2.08009          39.197         4.32163 
        2.08622         38.9187         4.29014 
        2.09237         38.8047          4.2589 
        2.09851         38.6693         4.22796 
        2.10464         38.4915         4.19738 
        2.11077         38.2948         4.16715 
        2.11691         38.0598         4.13714 
        2.12305         37.9253         4.10742 
        2.12918         37.7847         4.07807 
        2.13531         37.5517           4.049 
        2.14145         37.3717         4.02015 
         2.1476         37.2059         3.99155 
        2.15372           37.01         3.96336 
        2.15985         36.9228         3.93542 
        2.16599         36.7484         3.90767 
        2.17213         36.6411         3.88022 
        2.17827         36.4095         3.85303 
         2.1844         36.2605         3.82613 
        2.19054         36.0663         3.79948 
        2.19666         35.8975         3.77312 
         2.2028         35.7473         3.74698 
        2.20893         35.6509         3.72108 
        2.21508         35.5165         3.69539 
        2.22122         35.3243         3.66994 
        2.22736         35.2043         3.64478 
        2.23349         35.0201         3.61986 
        2.23962         34.7854         3.59516 
        2.24577         34.6334         3.57067 
         2.2519         34.4792         3.54644 
        2.25802           34.45         3.52248 
        2.26417         34.2041         3.49867 
        2.27031          34.044         3.47505 
        2.27644         33.9257         3.45172 
        2.28257         33.7823         3.42861 
        2.28872         33.5948         3.40566 
        2.29486          33.502         3.38293 
        2.30099          33.357         3.36045 
        2.30712         33.2192         3.33817 
        2.31326         33.0076         3.31605 
         2.3194         32.8671         3.29414 
        2.32553         32.7401         3.27247 
        2.33166         32.6198           3.251 
         2.3378         32.4202         3.22969 
        2.34394         32.3692         3.20857 
        2.35007         32.1725         3.18766 
        2.35619         32.0043         3.16697 
        2.36233         31.9165         3.14641 
        2.36848         31.8103         3.12599 
        2.37462         31.5829          3.1058 
        2.38075         31.5459          3.0858 
        2.38689         31.3805         3.06596 
        2.39303         31.2167          3.0463 
        2.39916         31.0324         3.02683 
        2.40529         30.9321         3.00754 
        2.41143         30.8472         2.98839 
        2.41757         30.6892         2.96941 
         2.4237         30.6136         2.95062 
        2.42983          30.411           2.932 
        2.43598         30.3183         2.91349 
        2.44211         30.1545         2.89517 
        2.44823         30.0765         2.87704 
        2.45437         29.8821         2.85903 
        2.46052         29.7269         2.84115 
        2.46665         29.6438         2.82345 
        2.47279         29.5148         2.80591 
        2.47892         29.4048         2.78851 
        2.48507           29.26         2.77124 
         2.4912         29.1613         2.75415 
