# k  (h/Mpc)    Pcb(k)  (Mpc/h)^3    Pcb_linear(k)  (Mpc/h)^3
     0.00783031         3025.82         3059.74 
       0.013688         3578.67         3574.93 
       0.019231         3436.82          3432.1 
      0.0249154         2971.79         2993.57 
      0.0312784         2425.93         2426.71 
      0.0375637         1962.47         1952.56 
      0.0433917            1638         1639.65 
      0.0492413         1442.04         1438.29 
      0.0555754         1298.92         1307.59 
      0.0619321          1226.8         1218.44 
       0.067871         1130.27         1136.31 
      0.0738098          1030.9         1036.64 
      0.0800417         905.545         913.207 
      0.0862327         785.016         785.898 
      0.0921407         680.704         676.717 
      0.0982031         590.302         588.719 
       0.104506         535.449         526.386 
       0.110769         496.568         489.333 
       0.116806          471.43         468.317 
       0.122832         456.647          451.99 
       0.129052         431.736         431.597 
       0.135211         404.168         403.586 
       0.141259         373.563         369.239 
       0.147318         338.972         332.202 
       0.153489         302.903         297.024 
       0.159709          275.77         268.204 
       0.165845         257.914         247.821 
       0.171974         242.003         234.639 
       0.178125          233.69         226.228 
       0.184229         226.862         219.672 
        0.19034         215.564         212.256 
       0.196428         208.327         202.491 
       0.202534          198.38         190.214 
       0.208729         183.765         176.325 
       0.214876         169.726         162.761 
       0.220989         159.933         150.926 
       0.227147         149.317         141.471 
        0.23329         142.365         134.551 
       0.239377         138.106          129.61 
       0.245482         131.482         125.668 
       0.251667         129.192         121.781 
       0.257832         124.627         117.352 
       0.263955         119.357         112.162 
       0.270079         113.655          106.37 
        0.27624         109.291         100.396 
       0.282372         103.999            94.8 
        0.28843          98.724         89.9871 
       0.294538           94.37         85.9863 
       0.300721          92.116          82.741 
        0.30691         88.2354         80.0436 
       0.313033         85.7283         77.6198 
       0.319153         81.9379         75.1682 
       0.325316         80.5073         72.5246 
        0.33145         77.1644         69.6909 
       0.337538         74.8872         66.7837 
       0.343633         71.7575         63.9188 
       0.349808         69.3085         61.2197 
       0.355968         67.1751         58.8153 
       0.362074         64.8958         56.7428 
       0.368217         62.9041         54.9201 
       0.374374         61.0185         53.2652 
       0.380519         59.5612         51.6958 
       0.386598         57.9088         50.1417 
       0.392688         56.6209         48.5534 
        0.39888         54.8215         46.9125 
       0.405048         53.3095         45.2813 
       0.411186         51.8726         43.7157 
       0.417313          50.153         42.2495 
       0.423458         48.7792         40.8932 
       0.429607         47.4643         39.6563 
       0.435692          45.904         38.5294 
       0.441815         45.1625         37.4595 
       0.447964         44.3408         36.4235 
       0.454126         42.4793         35.4049 
       0.460267         41.7865         34.3945 
       0.466387         40.5753         33.3978 
        0.47254         39.8361         32.4199 
       0.478662         39.1366         31.4832 
       0.484765         37.8709         30.5934 
       0.490885         37.0079         29.7518 
       0.497035         36.5137         28.9574 
       0.503198         35.4778         28.2041 
       0.509342         34.5558         27.4837 
       0.515458          33.838         26.7888 
       0.521598         33.2412         26.1094 
       0.527764         32.5264         25.4428 
       0.533884         31.9731         24.7951 
           0.54         31.2014         24.1648 
       0.546137         30.7241          23.554 
       0.552299         30.1936         22.9662 
       0.558452         29.2613         22.4056 
       0.564573         28.7769         21.8708 
       0.570708          28.302         21.3549 
       0.576825         27.6431         20.8581 
       0.582926         27.0588         20.3783 
       0.589034         26.3806         19.9118 
       0.595184         26.0354          19.455 
       0.601379         25.5141         19.0068 
       0.607522           25.01         18.5744 
       0.613639         24.7637         18.1568 
       0.619772         24.1145         17.7517 
       0.625918         23.9504         17.3601 
       0.632068         23.5644         16.9821 
       0.638161         23.0543           16.62 
         0.6443         22.5977         16.2662 
       0.650464          22.184         15.9212 
       0.656582         22.0268         15.5877 
       0.662703         21.5898         15.2629 
       0.668861         21.1766          14.945 
       0.675024         20.8026         14.6358 
       0.681124          20.434         14.3386 
       0.687237         20.0796         14.0495 
       0.693381         19.8972         13.7674 
       0.699536         19.3778          13.493 
       0.705665         19.3174         13.2273 
       0.711789         18.8633         12.9691 
       0.717957         18.5933          12.716 
        0.72409         18.3232         12.4709 
       0.730186          18.052         12.2337 
       0.736317         17.8518         12.0012 
       0.742472         17.5349          11.774 
       0.748622         17.3501         11.5528 
        0.75476         17.0363         11.3379 
       0.760888         16.7661         11.1289 
       0.767043         16.5539         10.9244 
       0.773185         16.2646         10.7256 
       0.779291         16.1709         10.5329 
       0.785407         15.9799         10.3447 
       0.791564         15.6889         10.1599 
       0.797719         15.3186         9.97978 
       0.803834          15.298         9.80513 
       0.809972         15.1426         9.63402 
       0.816124         14.8052         9.46661 
       0.822261         14.6341         9.30364 
       0.828378           14.49         9.14499 
       0.834502         14.3502         8.98991 
       0.840667         14.1332         8.83745 
       0.846816           13.87         8.68897 
       0.852925         13.7348         8.54486 
       0.859047         13.5805         8.40374 
       0.865192         13.4435         8.26536 
       0.871341         13.3279         8.13003 
       0.877463         13.0888         7.99836 
       0.883569         12.9217         7.86996 
       0.889708         12.7186         7.74374 
       0.895864          12.598         7.61997 
       0.902008         12.5061         7.49918 
       0.908149         12.3642         7.38109 
       0.914301         12.2783         7.26536 
       0.920448         12.0483         7.15223 
       0.926574         11.9276         7.04191 
       0.932687         11.7867         6.93416 
       0.938823         11.6332         6.82829 
       0.944975         11.5042          6.7244 
       0.951105          11.387         6.62304 
       0.957225         11.2844         6.52396 
       0.963368         11.1867         6.42657 
       0.969511         11.0693         6.33117 
       0.975621         10.9583         6.23823 
       0.981748         10.8018         6.14692 
       0.987916         10.7376         6.05686 
        0.99406         10.5813         5.96896 
        1.00019         10.4309         5.88298 
        1.00632          10.392         5.79877 
        1.01246         10.2926          5.7161 
        1.01859         10.1171         5.63517 
        1.02471         10.0768         5.55591 
        1.03085          9.9679         5.47791 
        1.03698          9.8091         5.40157 
        1.04314         9.75337         5.32636 
        1.04929         9.63166         5.25276 
        1.05541         9.52065         5.18086 
        1.06154          9.4597         5.11012 
        1.06769         9.40984          5.0406 
        1.07382         9.27399         4.97261 
        1.07993         9.19425         4.90603 
        1.08607         9.10745         4.84039 
        1.09222         9.03763          4.7759 
        1.09836          8.9242         4.71266 
        1.10449         8.85619         4.65064 
        1.11063         8.75052         4.58967 
        1.11677          8.7127         4.52981 
         1.1229         8.65467         4.47113 
        1.12903         8.53503         4.41345 
        1.13518         8.42997         4.35673 
        1.14131         8.39434         4.30104 
        1.14745         8.31094         4.24637 
        1.15359         8.25322         4.19263 
        1.15973         8.16584          4.1398 
        1.16584         8.05215         4.08813 
        1.17197         8.01113         4.03726 
        1.17811         7.96142          3.9871 
        1.18424         7.88435         3.93795 
        1.19038         7.84945         3.88948 
        1.19652         7.75826         3.84184 
        1.20267         7.68576         3.79501 
        1.20881         7.65417         3.74897 
        1.21495         7.59151         3.70376 
        1.22108         7.49598         3.65931 
         1.2272         7.44108         3.61569 
        1.23334         7.37379         3.57268 
        1.23949         7.30389         3.53027 
        1.24562         7.26993         3.48867 
        1.25174           7.215         3.44781 
        1.25789         7.15266         3.40747 
        1.26402         7.12051         3.36785 
        1.27014         7.05218         3.32896 
        1.27628          6.9669         3.29056 
        1.28244         6.90903          3.2527 
        1.28858         6.90504         3.21548 
        1.29471         6.82263         3.17893 
        1.30084         6.75432         3.14298 
        1.30697         6.73845         3.10753 
        1.31312         6.64254         3.07258 
        1.31925         6.59099         3.03827 
        1.32537          6.5588         3.00453 
        1.33151         6.52476         2.97118 
        1.33765         6.46208         2.93835 
        1.34378         6.41477         2.90608 
        1.34992          6.3618         2.87428 
        1.35606         6.32314         2.84288 
         1.3622         6.28664         2.81202 
        1.36833         6.21887         2.78168 
        1.37445         6.18703          2.7518 
        1.38059         6.15806         2.72228 
        1.38675          6.0972         2.69312 
        1.39288          6.0763          2.6645 
        1.39901         6.00371         2.63631 
        1.40515         5.97798         2.60846 
         1.4113         5.93229         2.58103 
        1.41742         5.88795          2.5541 
        1.42355         5.83764          2.5275 
         1.4297         5.81497          2.5012 
        1.43585         5.78173         2.47528 
        1.44198         5.75033         2.44984 
        1.44809         5.70068         2.42479 
        1.45423         5.65681         2.40001 
        1.46036         5.61226         2.37561 
        1.46649         5.58952         2.35155 
        1.47263         5.53451          2.3278 
        1.47877         5.49973         2.30439 
        1.48491         5.47318         2.28126 
        1.49104         5.43594          2.2585 
        1.49718         5.40312         2.23603 
        1.50333         5.37079         2.21383 
        1.50947         5.32351         2.19198 
         1.5156         5.29884         2.17045 
        1.52172         5.27295         2.14921 
        1.52787         5.23286         2.12822 
          1.534         5.19186         2.10753 
        1.54013         5.16549         2.08714 
        1.54627         5.12343         2.06698 
        1.55241         5.09496         2.04708 
        1.55855         5.07386         2.02747 
        1.56467         5.03277         2.00818 
         1.5708          5.0164         1.98908 
        1.57695         4.97389          1.9702 
        1.58308         4.93133         1.95161 
        1.58922         4.92104         1.93324 
        1.59535         4.89705         1.91512 
         1.6015         4.84866         1.89721 
        1.60764         4.81491         1.87953 
        1.61376         4.80172         1.86213 
        1.61989         4.76907         1.84493 
        1.62604         4.74199         1.82791 
        1.63218         4.72787         1.81112 
        1.63831         4.68779         1.79458 
        1.64444         4.66504         1.77823 
        1.65059         4.61606         1.76206 
        1.65673         4.62055          1.7461 
        1.66285         4.57088         1.73038 
        1.66898         4.54694         1.71485 
        1.67512         4.52802         1.69948 
        1.68127         4.49761         1.68429 
         1.6874         4.47903         1.66931 
        1.69353         4.43864         1.65453 
        1.69967         4.42894         1.63989 
        1.70581         4.40696         1.62543 
        1.71193         4.37049          1.6112 
        1.71806          4.3543         1.59711 
        1.72421         4.32755         1.58316 
        1.73035         4.30997          1.5694 
        1.73649         4.28407          1.5558 
        1.74262         4.25611         1.54237 
        1.74876         4.24281         1.52909 
        1.75489         4.21674         1.51599 
        1.76101         4.18639         1.50306 
        1.76715         4.17228         1.49025 
        1.77329         4.14354         1.47758 
        1.77943         4.11605         1.46505 
        1.78557         4.10555         1.45268 
        1.79171         4.08258         1.44046 
        1.79785         4.05724         1.42837 
        1.80399         4.03637         1.41642 
        1.81012         4.01522         1.40463 
        1.81625         3.99615         1.39297 
        1.82239         3.97866         1.38143 
        1.82853          3.9502         1.37003 
        1.83466         3.93267         1.35876 
        1.84078         3.91839         1.34764 
        1.84692          3.9053         1.33662 
        1.85306           3.875         1.32571 
         1.8592         3.85061         1.31494 
        1.86533         3.83468         1.30429 
        1.87147          3.8171         1.29375 
        1.87761         3.79843         1.28332 
        1.88375         3.77219         1.27302 
        1.88988         3.76354         1.26284 
        1.89601         3.74143         1.25277 
        1.90215         3.72095          1.2428 
        1.90829         3.70055         1.23295 
        1.91442          3.6837         1.22319 
        1.92056         3.67161         1.21356 
         1.9267         3.64548         1.20401 
        1.93284         3.62961         1.19457 
        1.93897         3.60976         1.18524 
        1.94509         3.60167         1.17603 
        1.95123         3.58121          1.1669 
        1.95737         3.55601         1.15786 
        1.96349          3.5476         1.14893 
        1.96964         3.53004         1.14008 
        1.97578         3.50604         1.13131 
        1.98192         3.49855         1.12265 
        1.98805         3.48038         1.11408 
        1.99419         3.45918         1.10561 
        2.00033         3.45196         1.09721 
        2.00647         3.43024          1.0889 
         2.0126         3.41983          1.0807 
        2.01874         3.39843         1.07256 
        2.02488         3.38704         1.06451 
        2.03101         3.36559         1.05655 
        2.03714         3.34534         1.04868 
        2.04328         3.33469         1.04088 
        2.04941         3.31485         1.03316 
        2.05554          3.3057         1.02553 
        2.06167          3.2872         1.01797 
        2.06781         3.27724         1.01048 
        2.07396         3.26777         1.00305 
        2.08009         3.24965        0.995715 
        2.08622          3.2315        0.988459 
        2.09237         3.21344        0.981261 
        2.09851         3.21007        0.974134 
        2.10464         3.19426        0.967089 
        2.11077         3.17155        0.960122 
        2.11691         3.15776        0.953208 
        2.12305         3.14983        0.946361 
        2.12918         3.14026        0.939599 
        2.13531         3.12542        0.932901 
        2.14145         3.10958        0.926254 
         2.1476          3.0941        0.919663 
        2.15372         3.07904        0.913169 
        2.15985         3.07939        0.906732 
        2.16599         3.05203        0.900337 
        2.17213         3.04131        0.894012 
        2.17827         3.03459        0.887749 
         2.1844         3.01982        0.881551 
        2.19054          3.0005         0.87541 
        2.19666         2.98976        0.869336 
         2.2028         2.97794        0.863314 
        2.20893         2.96644        0.857347 
        2.21508         2.95414        0.851429 
        2.22122         2.93881        0.845564 
        2.22736         2.92905        0.839767 
        2.23349          2.9214        0.834026 
        2.23962         2.90699        0.828335 
        2.24577         2.89641        0.822693 
         2.2519         2.88916         0.81711 
        2.25802         2.87139        0.811588 
        2.26417         2.86354        0.806102 
        2.27031         2.84865        0.800661 
        2.27644         2.83315        0.795287 
        2.28257         2.81797        0.789961 
        2.28872         2.81928        0.784674 
        2.29486         2.80385        0.779437 
        2.30099          2.7891        0.774258 
        2.30712         2.77844        0.769124 
        2.31326         2.76442        0.764027 
         2.3194         2.75597        0.758979 
        2.32553         2.75057        0.753986 
        2.33166         2.73933        0.749039 
         2.3378         2.72586         0.74413 
        2.34394         2.71578        0.739264 
        2.35007         2.70306        0.734447 
        2.35619         2.69531        0.729679 
        2.36233         2.68341        0.724943 
        2.36848         2.67142        0.720238 
        2.37462         2.66787        0.715585 
        2.38075         2.65306        0.710978 
        2.38689         2.64823        0.706407 
        2.39303         2.63107        0.701877 
        2.39916         2.62315        0.697391 
        2.40529         2.61335        0.692945 
        2.41143         2.60325        0.688535 
        2.41757         2.59954         0.68416 
         2.4237          2.5873        0.679832 
        2.42983         2.57215        0.675541 
        2.43598         2.56335        0.671276 
        2.44211         2.55277        0.667055 
        2.44823         2.54535        0.662879 
        2.45437          2.5357        0.658728 
        2.46052         2.52937        0.654609 
        2.46665          2.5196        0.650532 
        2.47279         2.50571        0.646491 
        2.47892         2.49809        0.642481 
        2.48507         2.49113        0.638502 
         2.4912         2.47814        0.634564 
