# k  (h/Mpc)    P(k)  (Mpc/h)^3    P_linear(k)  (Mpc/h)^3
     0.00783031           15300         15365.6 
       0.013688         18494.3         18983.6 
       0.019231         18994.6         19295.1 
      0.0249154         17931.9         17908.7 
      0.0312784         15346.8         15524.9 
      0.0375637         12910.4         13160.8 
      0.0433917         11271.9         11353.2 
      0.0492413         9865.04         10011.2 
      0.0555754         8960.43         9020.25 
      0.0619321         8024.61         8341.99 
       0.067871         7642.14         7829.75 
      0.0738098         7195.65         7312.24 
      0.0800417         6602.91         6698.02 
      0.0862327          5911.3         6020.05 
      0.0921407         5316.65         5361.01 
      0.0982031         4794.34         4737.86 
       0.104506         4218.05         4200.95 
       0.110769         3865.91         3801.77 
       0.116806          3668.9         3534.01 
       0.122832         3448.95          3350.8 
       0.129052         3278.85         3208.08 
       0.135211         3200.97         3072.87 
       0.141259         2984.64         2918.83 
       0.147318         2776.25         2734.11 
       0.153489         2605.53         2522.56 
       0.159709         2479.76         2304.88 
       0.165845         2249.09          2106.8 
       0.171974         2171.38         1940.78 
       0.178125         2082.16         1812.09 
       0.184229         1917.67         1718.95 
        0.19034         1890.86         1650.81 
       0.196428         1839.07         1595.54 
       0.202534         1732.24         1540.97 
       0.208729         1702.97         1478.06 
       0.214876         1627.49         1405.17 
       0.220989         1541.68         1324.64 
       0.227147         1495.55         1241.27 
        0.23329         1432.18          1162.5 
       0.239377         1418.34         1093.93 
       0.245482         1346.59         1037.15 
       0.251667          1296.9          991.59 
       0.257832         1275.77         955.441 
       0.263955          1217.8         924.827 
       0.270079         1184.64         895.613 
        0.27624         1136.53         864.648 
       0.282372         1121.59         830.975 
        0.28843         1103.36         795.208 
       0.294538         1050.91         758.128 
       0.300721         1029.03         721.661 
        0.30691         1004.37         688.059 
       0.313033         963.717         658.847 
       0.319153         952.424         633.801 
       0.325316         939.969         612.235 
        0.33145         918.864         593.221 
       0.337538         887.827         575.554 
       0.343633         867.149         557.987 
       0.349808         849.863           539.7 
       0.355968         833.617         520.837 
       0.362074         806.185         501.858 
       0.368217         803.878         483.081 
       0.374374         791.453         465.154 
       0.380519         762.253          448.65 
       0.386598         757.355         433.841 
       0.392688         738.358         420.449 
        0.39888         722.116         408.036 
       0.405048         707.777         396.443 
       0.411186         706.455         385.313 
       0.417313         701.392         374.337 
       0.423458         680.356         363.301 
       0.429607         661.628         352.308 
       0.435692         655.171         341.594 
       0.441815          642.52         331.143 
       0.447964         633.873         321.164 
       0.454126          626.01         311.787 
       0.460267         617.091         303.046 
       0.466387         606.187         294.899 
        0.47254         597.103         287.165 
       0.478662         587.694         279.785 
       0.484765         581.133         272.624 
       0.490885         575.157         265.595 
       0.497035          563.49         258.656 
       0.503198         563.196         251.828 
       0.509342         552.163         245.199 
       0.515458         541.286         238.836 
       0.521598         538.624         232.722 
       0.527764          526.86         226.857 
       0.533884         522.002         221.305 
           0.54         517.515         216.011 
       0.546137         509.086         210.911 
       0.552299         506.949         205.957 
       0.558452         499.595         201.141 
       0.564573         496.021         196.467 
       0.570708         490.249         191.901 
       0.576825         480.742         187.469 
       0.582926         479.378         183.174 
       0.589034         471.704         179.007 
       0.595184         467.679         174.954 
       0.601379         460.551         171.024 
       0.607522         452.658         167.273 
       0.613639         452.065         163.666 
       0.619772         449.645         160.162 
       0.625918          441.26         156.749 
       0.632068         439.028         153.425 
       0.638161         434.572          150.22 
         0.6443         429.007         147.077 
       0.650464         425.243         144.009 
       0.656582         421.787         141.047 
       0.662703          418.12         138.168 
       0.668861         411.807         135.355 
       0.675024          410.15         132.622 
       0.681124         402.701         129.998 
       0.687237         402.022         127.445 
       0.693381         396.078         124.953 
       0.699536         395.536         122.525 
       0.705665         390.182         120.171 
       0.711789         388.697         117.879 
       0.717957         383.617         115.627 
        0.72409          379.55         113.444 
       0.730186         380.651          111.33 
       0.736317         374.097         109.258 
       0.742472         371.008         107.233 
       0.748622         368.944         105.263 
        0.75476         365.617         103.349 
       0.760888         362.935         101.487 
       0.767043         359.846          99.665 
       0.773185         357.194         97.8921 
       0.779291         353.302         96.1725 
       0.785407         351.178         94.4912 
       0.791564         348.871         92.8389 
       0.797719         343.387         91.2265 
       0.803834         345.114         89.6625 
       0.809972           339.5         88.1294 
       0.816124         336.616         86.6291 
       0.822261          334.18         85.1681 
       0.828378          332.79         83.7457 
       0.834502         327.509         82.3551 
       0.840667         327.748         80.9876 
       0.846816         322.723         79.6554 
       0.852925         323.294          78.362 
       0.859047         320.072         77.0948 
       0.865192         318.501         75.8517 
       0.871341         314.498         74.6352 
       0.877463         313.053          73.451 
       0.883569         310.636         72.2956 
       0.889708         307.761         71.1591 
       0.895864          304.46         70.0442 
       0.902008         303.286         68.9556 
       0.908149         300.507         67.8908 
       0.914301         299.155         66.8469 
       0.920448         296.678         65.8261 
       0.926574         294.832         64.8302 
       0.932687         293.986         63.8571 
       0.938823         290.573         62.9007 
       0.944975         289.953         61.9617 
       0.951105         287.148         61.0454 
       0.957225          284.02         60.1493 
       0.963368         284.516         59.2682 
       0.969511         279.539         58.4049 
       0.975621         278.031         57.5635 
       0.981748         277.378         56.7366 
       0.987916         275.594         55.9208 
        0.99406         273.041         55.1243 
        1.00019         270.734         54.3449 
        1.00632         270.332         53.5813 
        1.01246         267.996         52.8314 
        1.01859          265.21         52.0971 
        1.02471         263.603         51.3778 
        1.03085         262.629         50.6696 
        1.03698         261.434         49.9763 
        1.04314         260.035         49.2932 
        1.04929         258.458         48.6244 
        1.05541         256.213         47.9708 
        1.06154         254.353         47.3277 
        1.06769         252.361         46.6954 
        1.07382         250.824         46.0768 
        1.07993         249.353         45.4709 
        1.08607         248.139         44.8734 
        1.09222         245.876          44.286 
        1.09836         245.171         43.7099 
        1.10449         243.437         43.1448 
        1.11063         241.712         42.5891 
        1.11677         239.585         42.0434 
         1.1229         239.231         41.5082 
        1.12903         236.812         40.9819 
        1.13518         235.427         40.4643 
        1.14131         234.598         39.9559 
        1.14745         232.185         39.4566 
        1.15359         230.555         38.9658 
        1.15973         229.697         38.4831 
        1.16584         228.162         38.0108 
        1.17197         227.091         37.5458 
        1.17811         224.964         37.0871 
        1.18424         223.825         36.6375 
        1.19038         222.961         36.1941 
        1.19652         220.406         35.7581 
        1.20267         219.802         35.3294 
        1.20881         218.206         34.9079 
        1.21495         217.755         34.4939 
        1.22108         215.985         34.0867 
         1.2272         213.917          33.687 
        1.23334          213.13         33.2929 
        1.23949         211.975         32.9041 
        1.24562         210.631         32.5227 
        1.25174         209.601         32.1479 
        1.25789         207.611         31.7779 
        1.26402         207.303         31.4144 
        1.27014         206.327         31.0575 
        1.27628         204.688         30.7051 
        1.28244         203.033         30.3575 
        1.28858         202.116         30.0157 
        1.29471         200.792           29.68 
        1.30084         200.146         29.3497 
        1.30697         198.216          29.024 
        1.31312         197.236         28.7028 
        1.31925         195.942         28.3874 
        1.32537          195.35         28.0771 
        1.33151          193.92         27.7704 
        1.33765         192.624         27.4684 
        1.34378         191.935         27.1715 
        1.34992         190.236         26.8788 
        1.35606         189.564         26.5898 
         1.3622         188.042         26.3055 
        1.36833         187.251         26.0262 
        1.37445         186.862          25.751 
        1.38059         184.676         25.4789 
        1.38675         183.591         25.2102 
        1.39288         182.766         24.9464 
        1.39901         181.258         24.6864 
        1.40515         180.786         24.4297 
         1.4113         179.581         24.1766 
        1.41742         178.244         23.9282 
        1.42355         177.876         23.6827 
         1.4297          176.59           23.44 
        1.43585         175.948         23.2007 
        1.44198         174.239         22.9658 
        1.44809         173.717         22.7345 
        1.45423         172.687         22.5056 
        1.46036         171.555         22.2802 
        1.46649          170.44         22.0578 
        1.47263         169.894         21.8384 
        1.47877         168.703          21.622 
        1.48491          167.45         21.4082 
        1.49104         165.973         21.1977 
        1.49718         165.762         20.9899 
        1.50333         164.136         20.7846 
        1.50947         163.644         20.5825 
         1.5156         162.648         20.3833 
        1.52172         161.819         20.1868 
        1.52787         160.996         19.9925 
          1.534         160.262          19.801 
        1.54013         159.014         19.6122 
        1.54627         158.345         19.4255 
        1.55241         157.539         19.2412 
        1.55855         156.737         19.0596 
        1.56467         155.762         18.8808 
         1.5708         154.504         18.7038 
        1.57695         154.031         18.5289 
        1.58308         152.796         18.3565 
        1.58922         152.049         18.1863 
        1.59535         151.087         18.0182 
         1.6015         150.365         17.8521 
        1.60764         149.318         17.6881 
        1.61376          148.41         17.5267 
        1.61989          147.85         17.3671 
        1.62604         146.796         17.2091 
        1.63218          146.17         17.0533 
        1.63831         145.324         16.8997 
        1.64444         144.159         16.7479 
        1.65059         143.617         16.5976 
        1.65673         142.795         16.4494 
        1.66285         142.189         16.3034 
        1.66898          141.24         16.1591 
        1.67512         140.243         16.0163 
        1.68127         139.786          15.875 
         1.6874         138.851         15.7358 
        1.69353         138.279         15.5983 
        1.69967         137.285         15.4622 
        1.70581         136.839         15.3278 
        1.71193          135.89         15.1954 
        1.71806         134.751         15.0643 
        1.72421         134.258         14.9346 
        1.73035         133.526         14.8065 
        1.73649         132.594         14.6799 
        1.74262         132.084         14.5549 
        1.74876         131.372         14.4313 
        1.75489         131.019         14.3094 
        1.76101         129.731         14.1889 
        1.76715         129.038         14.0697 
        1.77329         128.222         13.9516 
        1.77943         127.484         13.8349 
        1.78557         126.927         13.7197 
        1.79171         126.172         13.6058 
        1.79785         125.333         13.4931 
        1.80399         124.799         13.3818 
        1.81012         124.113         13.2718 
        1.81625         123.368         13.1632 
        1.82239         122.905         13.0556 
        1.82853         121.888         12.9492 
        1.83466         120.986         12.8442 
        1.84078         120.772         12.7404 
        1.84692         120.324         12.6376 
        1.85306         119.401         12.5358 
         1.8592         118.914         12.4353 
        1.86533         117.989         12.3359 
        1.87147         117.441         12.2375 
        1.87761         116.735         12.1402 
        1.88375         115.988          12.044 
        1.88988         115.493         11.9489 
        1.89601         115.005         11.8549 
        1.90215         114.565         11.7617 
        1.90829         113.453         11.6697 
        1.91442         112.693         11.5786 
        1.92056         112.341         11.4885 
         1.9267         111.662         11.3993 
        1.93284         110.911          11.311 
        1.93897         110.503         11.2238 
        1.94509         109.891         11.1377 
        1.95123         109.336         11.0523 
        1.95737         108.725         10.9678 
        1.96349         108.109         10.8843 
        1.96964         107.393         10.8015 
        1.97578         106.936         10.7195 
        1.98192         106.569         10.6385 
        1.98805          105.96         10.5583 
        1.99419         105.126          10.479 
        2.00033         104.681         10.4004 
        2.00647         104.216         10.3227 
         2.0126         103.522         10.2458 
        2.01874         103.035         10.1697 
        2.02488         102.387         10.0943 
        2.03101         101.981         10.0197 
        2.03714         101.288           9.946 
        2.04328         101.002         9.87294 
        2.04941          100.38         9.80068 
        2.05554          99.947         9.72919 
        2.06167         99.0883         9.65832 
        2.06781         98.7427         9.58814 
        2.07396         98.1332         9.51856 
        2.08009         97.4279         9.44979 
        2.08622         97.0957         9.38178 
        2.09237         96.4078         9.31431 
        2.09851         96.0316         9.24749 
        2.10464         95.7218         9.18143 
        2.11077         94.9487          9.1161 
        2.11691         94.5375         9.05126 
        2.12305         94.0395         8.98704 
        2.12918         93.5013         8.92361 
        2.13531         93.0224         8.86078 
        2.14145         92.5881         8.79841 
         2.1476         92.0855         8.73657 
        2.15372         91.4981         8.67563 
        2.15985         91.0852         8.61521 
        2.16599         90.4945         8.55519 
        2.17213         90.0074         8.49581 
        2.17827         89.5224           8.437 
         2.1844         89.1789         8.37881 
        2.19054         88.6001         8.32114 
        2.19666         87.9293          8.2641 
         2.2028         87.8158         8.20754 
        2.20893         87.4081         8.15148 
        2.21508         86.7926         8.09588 
        2.22122         86.3521         8.04078 
        2.22736          86.061         7.98631 
        2.23349         85.4102         7.93236 
        2.23962         85.0029         7.87888 
        2.24577         84.5931         7.82584 
         2.2519         84.0809         7.77336 
        2.25802         83.7386         7.72145 
        2.26417         83.1104         7.66987 
        2.27031         82.6079         7.61871 
        2.27644         82.3721         7.56817 
        2.28257         81.9583         7.51809 
        2.28872         81.4811         7.46837 
        2.29486         81.2693          7.4191 
        2.30099         80.6114         7.37038 
        2.30712         80.3472         7.32208 
        2.31326         79.8452         7.27412 
         2.3194         79.4613         7.22663 
        2.32553         79.0731         7.17963 
        2.33166         78.5789         7.13308 
         2.3378         78.1619         7.08687 
        2.34394         77.8886         7.04106 
        2.35007         77.3149         6.99571 
        2.35619         76.9857         6.95082 
        2.36233         76.5062         6.90622 
        2.36848         76.1836         6.86192 
        2.37462          75.935          6.8181 
        2.38075         75.3874          6.7747 
        2.38689         75.0435         6.73165 
        2.39303         74.7258         6.68897 
        2.39916         74.3101         6.64671 
        2.40529         73.9939         6.60482 
        2.41143         73.5399         6.56326 
        2.41757         73.0823         6.52204 
         2.4237         72.7304         6.48124 
        2.42983         72.3182          6.4408 
        2.43598         72.0853          6.4006 
        2.44211         71.7698         6.36081 
        2.44823         71.3448         6.32144 
        2.45437         71.0127          6.2823 
        2.46052         70.5893         6.24346 
        2.46665         69.9756         6.20502 
        2.47279         69.8871         6.16691 
        2.47892         69.5659         6.12909 
        2.48507         69.1701         6.09156 
         2.4912         68.7731         6.05441 
