# k  (h/Mpc)    P(k)  (Mpc/h)^3    P_linear(k)  (Mpc/h)^3
     0.00783031          9768.1         9831.79 
       0.013688         11879.6         12149.4 
       0.019231           12194         12350.2 
      0.0249154         11480.1         11463.8 
      0.0312784         9861.57         9938.46 
      0.0375637          8310.7         8425.39 
      0.0433917         7244.59          7268.4 
      0.0492413         6346.97          6409.4 
      0.0555754         5765.31         5775.07 
      0.0619321         5189.58         5340.91 
       0.067871         4937.02            5013 
      0.0738098         4636.23         4681.71 
      0.0800417         4258.82         4288.48 
      0.0862327         3811.28         3854.43 
      0.0921407         3415.44         3432.49 
      0.0982031         3066.02         3033.52 
       0.104506         2694.22         2689.76 
       0.110769          2460.7         2434.18 
       0.116806         2330.96         2262.75 
       0.122832         2186.92         2145.45 
       0.129052         2090.43         2054.08 
       0.135211          2031.5         1967.51 
       0.141259         1901.43         1868.88 
       0.147318         1764.04         1750.61 
       0.153489         1650.18         1615.16 
       0.159709         1555.16         1475.79 
       0.165845         1404.64         1348.96 
       0.171974         1351.42         1242.66 
       0.178125         1284.25         1160.26 
       0.184229         1189.28         1100.63 
        0.19034         1166.22            1057 
       0.196428          1132.3         1021.61 
       0.202534         1063.91         986.668 
       0.208729         1046.65          946.39 
       0.214876         1002.22         899.719 
       0.220989         938.448         848.161 
       0.227147          910.52         794.778 
        0.23329         869.708         744.341 
       0.239377         851.625          700.44 
       0.245482         805.015         664.084 
       0.251667         773.083          634.91 
       0.257832         763.116         611.764 
       0.263955         724.223         592.163 
       0.270079         700.972         573.457 
        0.27624          672.67         553.631 
       0.282372         659.142          532.07 
        0.28843         652.437         509.168 
       0.294538         618.214         485.426 
       0.300721         599.363         462.077 
        0.30691         587.782         440.562 
       0.313033          560.95         421.858 
       0.319153         551.751         405.821 
       0.325316         541.833         392.012 
        0.33145         529.294         379.838 
       0.337538          510.37         368.526 
       0.343633         495.942         357.278 
       0.349808          483.63         345.568 
       0.355968         474.307         333.491 
       0.362074         458.626         321.338 
       0.368217         455.377         309.316 
       0.374374          446.05         297.837 
       0.380519         427.947          287.27 
       0.386598         423.084         277.788 
       0.392688          412.91         269.213 
        0.39888         402.235         261.265 
       0.405048         394.675         253.842 
       0.411186          392.84         246.715 
       0.417313         387.118         239.687 
       0.423458         376.084         232.621 
       0.429607         366.003         225.582 
       0.435692         360.223         218.722 
       0.441815         353.844          212.03 
       0.447964         345.823         205.641 
       0.454126         341.407         199.637 
       0.460267         336.092          194.04 
       0.466387         329.791         188.824 
        0.47254         325.306         183.872 
       0.478662         317.429         179.146 
       0.484765          313.67         174.561 
       0.490885         309.902          170.06 
       0.497035         304.315         165.617 
       0.503198         303.043         161.245 
       0.509342         295.293         157.001 
       0.515458         290.954         152.927 
       0.521598         285.537         149.012 
       0.527764          281.83         145.256 
       0.533884         280.539         141.701 
           0.54         275.613         138.312 
       0.546137         269.601         135.046 
       0.552299         268.324         131.874 
       0.558452          263.78         128.791 
       0.564573         261.773         125.798 
       0.570708         256.902         122.874 
       0.576825         252.856         120.037 
       0.582926          250.63         117.287 
       0.589034         246.888         114.618 
       0.595184         245.154         112.023 
       0.601379         240.992         109.507 
       0.607522          236.15         107.105 
       0.613639         234.945         104.795 
       0.619772         233.376         102.552 
       0.625918         230.324         100.366 
       0.632068         226.275          98.238 
       0.638161         224.732         96.1856 
         0.6443         222.641         94.1734 
       0.650464         218.858         92.2088 
       0.656582         217.118         90.3127 
       0.662703         215.542         88.4691 
       0.668861         211.395         86.6678 
       0.675024          210.93         84.9178 
       0.681124         208.193         83.2376 
       0.687237         206.131         81.6032 
       0.693381         203.545         80.0076 
       0.699536         201.769         78.4528 
       0.705665         199.725         76.9457 
       0.711789         197.588         75.4779 
       0.717957         195.477          74.036 
        0.72409         193.287         72.6384 
       0.730186         194.053         71.2845 
       0.736317         190.734         69.9579 
       0.742472         188.272          68.661 
       0.748622         185.702         67.3997 
        0.75476         186.312         66.1742 
       0.760888         183.873         64.9822 
       0.767043         181.119         63.8155 
       0.773185         179.756         62.6803 
       0.779291         177.455         61.5793 
       0.785407         176.646         60.5027 
       0.791564         175.008         59.4448 
       0.797719         172.335         58.4124 
       0.803834         173.054         57.4109 
       0.809972         171.249         56.4293 
       0.816124         168.563         55.4686 
       0.822261         167.332         54.5332 
       0.828378         167.116         53.6224 
       0.834502         164.714          52.732 
       0.840667         164.417         51.8564 
       0.846816         162.036         51.0034 
       0.852925         161.001         50.1752 
       0.859047         159.452         49.3638 
       0.865192         158.992         48.5678 
       0.871341         157.062          47.789 
       0.877463         155.692         47.0307 
       0.883569         155.596         46.2909 
       0.889708         154.054         45.5632 
       0.895864          152.65         44.8493 
       0.902008          151.16         44.1523 
       0.908149         149.582         43.4705 
       0.914301         149.164         42.8021 
       0.920448         148.738         42.1485 
       0.926574         146.474         41.5108 
       0.932687         146.227         40.8878 
       0.938823         145.127         40.2753 
       0.944975         143.955         39.6741 
       0.951105         142.618         39.0874 
       0.957225         142.031         38.5136 
       0.963368         140.807         37.9495 
       0.969511         139.451         37.3967 
       0.975621         138.211         36.8579 
       0.981748         137.423         36.3285 
       0.987916         136.726         35.8061 
        0.99406         135.917         35.2961 
        1.00019         134.878          34.797 
        1.00632         133.936         34.3081 
        1.01246         133.102          33.828 
        1.01859         132.224         33.3578 
        1.02471         131.255         32.8972 
        1.03085         130.243         32.4438 
        1.03698         129.281         31.9999 
        1.04314         128.833         31.5625 
        1.04929         128.224         31.1343 
        1.05541         127.315         30.7158 
        1.06154         126.214          30.304 
        1.06769         125.465         29.8991 
        1.07382         124.798          29.503 
        1.07993         123.898          29.115 
        1.08607         123.109         28.7324 
        1.09222         122.335         28.3564 
        1.09836         121.475         27.9875 
        1.10449          120.64         27.6257 
        1.11063         119.939         27.2698 
        1.11677         119.249         26.9204 
         1.1229         118.271         26.5777 
        1.12903         117.685         26.2407 
        1.13518         116.888         25.9093 
        1.14131          116.28         25.5838 
        1.14745          115.67         25.2641 
        1.15359         114.403         24.9498 
        1.15973         114.107         24.6408 
        1.16584         113.397         24.3383 
        1.17197         112.822         24.0406 
        1.17811         111.812         23.7469 
        1.18424         111.335          23.459 
        1.19038          110.83         23.1751 
        1.19652          110.08          22.896 
        1.20267         109.357         22.6215 
        1.20881         108.615         22.3515 
        1.21495          108.14         22.0864 
        1.22108          107.56         21.8257 
         1.2272         106.703         21.5698 
        1.23334          106.47         21.3175 
        1.23949         105.828         21.0685 
        1.24562         104.985         20.8243 
        1.25174         104.466         20.5843 
        1.25789         103.807         20.3474 
        1.26402         103.437         20.1147 
        1.27014          102.76         19.8861 
        1.27628         101.852         19.6605 
        1.28244         101.739         19.4379 
        1.28858         100.798         19.2191 
        1.29471         100.246         19.0041 
        1.30084         99.5825         18.7927 
        1.30697         99.2828         18.5841 
        1.31312         98.5931         18.3784 
        1.31925         97.9307         18.1765 
        1.32537         97.5771         17.9778 
        1.33151         97.3246         17.7814 
        1.33765         96.4601          17.588 
        1.34378         96.1276         17.3979 
        1.34992         95.7731         17.2105 
        1.35606         95.0566         17.0255 
         1.3622         94.8636         16.8435 
        1.36833         93.8642         16.6646 
        1.37445         93.5922         16.4884 
        1.38059         93.1383         16.3142 
        1.38675         92.3676         16.1421 
        1.39288         91.9814         15.9732 
        1.39901         91.3387         15.8068 
        1.40515         90.9939         15.6423 
         1.4113         90.5627         15.4803 
        1.41742         89.9459         15.3212 
        1.42355         89.7154         15.1641 
         1.4297         89.0188         15.0086 
        1.43585         88.5922         14.8555 
        1.44198         87.9853          14.705 
        1.44809         87.4106         14.5569 
        1.45423         87.3466         14.4103 
        1.46036         86.5983          14.266 
        1.46649         86.0615         14.1237 
        1.47263         85.7426         13.9831 
        1.47877         85.2799         13.8446 
        1.48491          84.835         13.7077 
        1.49104         84.0802         13.5729 
        1.49718         83.9173         13.4399 
        1.50333         83.5291         13.3084 
        1.50947         83.1887          13.179 
         1.5156         82.8609         13.0515 
        1.52172          82.126         12.9256 
        1.52787         81.7682         12.8012 
          1.534         81.3423         12.6786 
        1.54013         81.0796         12.5577 
        1.54627         80.3643         12.4382 
        1.55241         80.2177         12.3202 
        1.55855         79.5775         12.2039 
        1.56467         78.9488         12.0894 
         1.5708         78.6925         11.9761 
        1.57695         78.3918          11.864 
        1.58308         77.9854         11.7537 
        1.58922         77.7668         11.6447 
        1.59535         77.4977         11.5371 
         1.6015         76.9547         11.4307 
        1.60764         76.5058         11.3257 
        1.61376         76.1339         11.2223 
        1.61989         75.5979         11.1202 
        1.62604          75.358          11.019 
        1.63218         75.0768         10.9192 
        1.63831         74.6425         10.8209 
        1.64444         74.3003         10.7237 
        1.65059         73.8259         10.6275 
        1.65673         73.4886         10.5326 
        1.66285         72.9671         10.4391 
        1.66898         72.5655         10.3467 
        1.67512          72.269         10.2552 
        1.68127          72.062         10.1648 
         1.6874         71.5615         10.0757 
        1.69353         71.1681         9.98764 
        1.69967         70.9249         9.90047 
        1.70581         70.5733         9.81438 
        1.71193          70.153         9.72964 
        1.71806         69.8078         9.64572 
        1.72421         69.5581         9.56262 
        1.73035         69.2514          9.4806 
        1.73649         68.7738         9.39956 
        1.74262         68.3367         9.31953 
        1.74876         68.1256         9.24038 
        1.75489         67.7329         9.16232 
        1.76101          67.352         9.08518 
        1.76715         67.1003         9.00882 
        1.77329         66.6933         8.93325 
        1.77943         66.5271         8.85851 
        1.78557         66.1915         8.78474 
        1.79171         65.7725         8.71179 
        1.79785         65.4198         8.63967 
        1.80399         65.1964         8.56837 
        1.81012         64.8143         8.49797 
        1.81625         64.5207          8.4284 
        1.82239         64.2282          8.3595 
        1.82853         63.7716         8.29141 
        1.83466         63.5323         8.22414 
        1.84078         63.2728         8.15769 
        1.84692         63.1513         8.09186 
        1.85306         62.7177         8.02668 
         1.8592          62.427         7.96232 
        1.86533         62.0667          7.8987 
        1.87147         61.7555         7.83571 
        1.87761         61.3993         7.77337 
        1.88375         61.1448         7.71178 
        1.88988         60.7451         7.65092 
        1.89601          60.563         7.59069 
        1.90215         60.1476         7.53106 
        1.90829         59.9525          7.4721 
        1.91442         59.6038         7.41376 
        1.92056         59.4602          7.3561 
         1.9267         59.0775         7.29899 
        1.93284          58.863         7.24246 
        1.93897          58.525         7.18663 
        1.94509         58.2083         7.13151 
        1.95123         57.9853         7.07683 
        1.95737         57.7294         7.02268 
        1.96349         57.4763         6.96924 
        1.96964         57.1519          6.9162 
        1.97578         56.8121         6.86369 
        1.98192         56.5441         6.81183 
        1.98805         56.1549          6.7605 
        1.99419         56.0385          6.7097 
        2.00033         55.7231         6.65939 
        2.00647         55.4947         6.60961 
         2.0126         55.2116         6.56043 
        2.01874         55.1452         6.51167 
        2.02488         54.7741         6.46336 
        2.03101         54.4931         6.41564 
        2.03714         54.2685         6.36844 
        2.04328         53.9363         6.32166 
        2.04941         53.5397         6.27539 
        2.05554         53.4971         6.22961 
        2.06167         53.2926         6.18423 
        2.06781         52.9437          6.1393 
        2.07396         52.6445         6.09475 
        2.08009         52.4227         6.05071 
        2.08622         52.2018         6.00717 
        2.09237         51.9389         5.96396 
        2.09851         51.6024         5.92118 
        2.10464         51.4256         5.87888 
        2.11077          51.245         5.83705 
        2.11691         50.9576         5.79553 
        2.12305          50.676         5.75441 
        2.12918         50.4256          5.7138 
        2.13531         50.2025         5.67357 
        2.14145         49.9691         5.63363 
         2.1476         49.8481         5.59403 
        2.15372         49.6022         5.55501 
        2.15985          49.262         5.51633 
        2.16599         49.0161          5.4779 
        2.17213         48.8041         5.43988 
        2.17827         48.6246         5.40222 
         2.1844         48.2982         5.36496 
        2.19054         48.2319         5.32804 
        2.19666         47.9324         5.29151 
         2.2028         47.6529          5.2553 
        2.20893         47.4339          5.2194 
        2.21508         47.1378          5.1838 
        2.22122         46.9723         5.14852 
        2.22736         46.7321         5.11365 
        2.23349         46.5805          5.0791 
        2.23962          46.369         5.04486 
        2.24577         46.0988          5.0109 
         2.2519         45.8959          4.9773 
        2.25802         45.6923         4.94406 
        2.26417          45.471         4.91103 
        2.27031         45.2823         4.87827 
        2.27644         45.1461         4.84591 
        2.28257         44.7512         4.81384 
        2.28872         44.7357           4.782 
        2.29486         44.4785         4.75046 
        2.30099         44.1511         4.71927 
        2.30712         44.0437         4.68834 
        2.31326         43.8351         4.65763 
         2.3194         43.6048         4.62722 
        2.32553         43.4719         4.59713 
        2.33166         43.1933         4.56732 
         2.3378         42.9886         4.53773 
        2.34394         42.7857          4.5084 
        2.35007          42.591         4.47937 
        2.35619         42.4292         4.45062 
        2.36233         42.1533         4.42206 
        2.36848         42.0738          4.3937 
        2.37462         41.7188         4.36564 
        2.38075         41.6795         4.33785 
        2.38689         41.4824         4.31028 
        2.39303         41.2528         4.28296 
        2.39916         41.0468          4.2559 
        2.40529         40.9046         4.22908 
        2.41143         40.6975         4.20246 
        2.41757         40.5776         4.17607 
         2.4237         40.3776         4.14995 
        2.42983         40.1293         4.12406 
        2.43598         39.9653         4.09831 
        2.44211         39.7394         4.07284 
        2.44823         39.5719         4.04763 
        2.45437         39.4306         4.02257 
        2.46052          39.161          3.9977 
        2.46665          39.035         3.97308 
        2.47279         38.7858         3.94868 
        2.47892         38.6885         3.92447 
        2.48507         38.5848         3.90043 
         2.4912         38.2382         3.87665 
