# k  (h/Mpc)    Pcb(k)  (Mpc/h)^3    Pcb_linear(k)  (Mpc/h)^3
     0.00783031         21179.2         21515.9 
       0.013688         25905.1         25615.7 
       0.019231         25157.8         25095.9 
      0.0249154         21960.1           22497 
      0.0312784         18726.3           18967 
      0.0375637         15946.2         15937.5 
      0.0433917         13602.3         13874.9 
      0.0492413         12356.4         12463.4 
      0.0555754         11000.2         11412.9 
      0.0619321         10538.9         10543.8 
       0.067871         9385.36         9695.17 
      0.0738098         8497.45         8746.52 
      0.0800417         7422.17         7698.81 
      0.0862327         6617.22         6721.94 
      0.0921407         6014.05         5944.39 
      0.0982031          5385.9         5345.23 
       0.104506         5120.02         4917.94 
       0.110769         4783.49         4628.39 
       0.116806         4534.19         4402.79 
       0.122832          4295.6         4169.47 
       0.129052         3934.07         3887.71 
       0.135211         3668.56         3571.09 
       0.141259         3471.63          3251.9 
       0.147318         3244.97         2958.01 
       0.153489         2968.12          2710.4 
       0.159709         2819.09         2521.67 
       0.165845         2735.62         2386.47 
       0.171974          2605.7         2282.87 
       0.178125         2482.99            2189 
       0.184229         2363.37         2089.59 
        0.19034         2238.35         1977.04 
       0.196428         2173.95         1854.83 
       0.202534         2075.32         1731.19 
       0.208729          1977.2         1615.12 
       0.214876         1904.22         1516.53 
       0.220989         1837.24         1436.94 
       0.227147         1769.93         1372.63 
        0.23329          1702.7         1318.56 
       0.239377         1677.57         1268.74 
       0.245482         1575.72         1217.85 
       0.251667         1565.14         1163.29 
       0.257832          1499.7         1106.69 
       0.263955         1447.32         1050.88 
       0.270079         1397.75         998.324 
        0.27624          1379.1         950.965 
       0.282372         1323.82          909.96 
        0.28843         1319.65         874.782 
       0.294538         1254.55         843.099 
       0.300721          1245.1         813.024 
        0.30691         1200.42         783.455 
       0.313033         1174.84         754.001 
       0.319153         1157.73         724.492 
       0.325316         1119.86         695.303 
        0.33145         1095.58         667.616 
       0.337538         1072.62         642.091 
       0.343633         1052.82         618.726 
       0.349808         1017.32         597.161 
       0.355968         1009.32         577.276 
       0.362074         1001.08         558.673 
       0.368217         967.757         540.575 
       0.374374         934.104         522.813 
       0.380519          936.59         505.421 
       0.386598         907.524         488.653 
       0.392688         903.559         472.522 
        0.39888          878.06         456.959 
       0.405048         869.129         442.378 
       0.411186          856.74         428.777 
       0.417313         838.786         415.961 
       0.423458         822.524         403.718 
       0.429607         814.789         391.948 
       0.435692         797.134          380.66 
       0.441815         789.035         369.618 
       0.447964         774.463         358.877 
       0.454126         769.083           348.5 
       0.460267         748.923         338.573 
       0.466387         739.227         329.121 
        0.47254         738.386         320.062 
       0.478662         727.702         311.449 
       0.484765         706.993          303.21 
       0.490885         702.561         295.253 
       0.497035         688.128          287.53 
       0.503198         683.904         280.042 
       0.509342         677.104         272.808 
       0.515458         673.344         265.845 
       0.521598         656.155         259.101 
       0.527764         646.325         252.581 
       0.533884         642.431          246.35 
           0.54         636.903         240.349 
       0.546137         629.754         234.541 
       0.552299         622.783          228.91 
       0.558452         616.847         223.475 
       0.564573         610.469         218.239 
       0.570708         602.855          213.15 
       0.576825         588.619         208.232 
       0.582926          590.52         203.481 
       0.589034         583.743         198.877 
       0.595184         578.762         194.392 
       0.601379         570.368         190.022 
       0.607522           562.4         185.825 
       0.613639         561.136         181.773 
       0.619772         551.985         177.834 
       0.625918          547.82         174.004 
       0.632068         540.597         170.285 
       0.638161         537.735         166.708 
         0.6443         530.132         163.209 
       0.650464         528.044         159.799 
       0.656582         521.688         156.512 
       0.662703         520.768         153.317 
       0.668861         512.968         150.194 
       0.675024         508.387         147.157 
       0.681124         504.564         144.236 
       0.687237         501.233          141.39 
       0.693381         494.002         138.607 
       0.699536         486.267         135.896 
       0.705665         485.665          133.27 
       0.711789          483.34         130.716 
       0.717957         479.078         128.212 
        0.72409         476.869         125.788 
       0.730186         469.974         123.442 
       0.736317          467.15         121.144 
       0.742472         463.597         118.896 
       0.748622         459.124         116.708 
        0.75476         452.471          114.58 
       0.760888         448.903         112.509 
       0.767043         448.576         110.481 
       0.773185          444.68         108.508 
       0.779291         439.758         106.594 
       0.785407         436.718         104.725 
       0.791564          432.51         102.888 
       0.797719         430.942         101.097 
       0.803834         424.811          99.361 
       0.809972         424.491         97.6594 
       0.816124           422.9         95.9943 
       0.822261          417.55         94.3729 
       0.828378         414.918         92.7941 
       0.834502         410.229         91.2504 
       0.840667          407.48         89.7321 
       0.846816           405.8         88.2529 
       0.852925         403.216         86.8166 
       0.859047         400.757         85.4096 
       0.865192           395.8         84.0293 
       0.871341         392.575         82.6789 
       0.877463         392.686         81.3646 
       0.883569         388.508         80.0824 
       0.889708         386.271         78.8214 
       0.895864         385.886         77.5846 
       0.902008          382.06         76.3772 
       0.908149         376.462         75.1964 
       0.914301         375.128         74.0388 
       0.920448         373.402         72.9068 
       0.926574         368.101         71.8027 
       0.932687         367.118          70.724 
       0.938823         363.815         69.6637 
       0.944975         363.832         68.6229 
       0.951105         360.155         67.6072 
       0.957225         357.777         66.6139 
       0.963368         353.422         65.6374 
       0.969511         352.601         64.6806 
       0.975621         350.982          63.748 
       0.981748         348.178         62.8316 
       0.987916         346.541         61.9276 
        0.99406         342.136         61.0448 
        1.00019         340.049         60.1811 
        1.00632         338.907         59.3351 
        1.01246         336.101         58.5041 
        1.01859         335.696         57.6904 
        1.02471         331.357         56.8934 
        1.03085         330.232         56.1087 
        1.03698         328.126         55.3405 
        1.04314         326.141         54.5835 
        1.04929         323.019         53.8426 
        1.05541         323.413         53.1184 
        1.06154         318.315         52.4059 
        1.06769         317.644         51.7054 
        1.07382          314.87         51.0202 
        1.07993         313.672         50.3489 
        1.08607         312.777         49.6871 
        1.09222         308.927         49.0366 
        1.09836         306.866         48.3985 
        1.10449         305.149         47.7726 
        1.11063         301.634         47.1572 
        1.11677         302.274         46.5529 
         1.1229         299.304         45.9603 
        1.12903         297.939         45.3775 
        1.13518         295.087         44.8044 
        1.14131         293.716         44.2417 
        1.14745         292.397         43.6889 
        1.15359          290.43         43.1456 
        1.15973         288.706         42.6113 
        1.16584         286.285         42.0885 
        1.17197         286.191         41.5738 
        1.17811         282.975         41.0662 
        1.18424         280.919         40.5685 
        1.19038          280.07         40.0777 
        1.19652         277.843         39.5953 
        1.20267         277.521         39.1208 
        1.20881         274.794         38.6542 
        1.21495         273.145          38.196 
        1.22108         271.351         37.7454 
         1.2272          269.84         37.3031 
        1.23334         269.165         36.8669 
        1.23949          265.75         36.4367 
        1.24562         264.933         36.0146 
        1.25174         263.983         35.5998 
        1.25789         261.693         35.1903 
        1.26402         259.855         34.7881 
        1.27014         258.402         34.3931 
        1.27628         256.212          34.003 
        1.28244         256.484         33.6183 
        1.28858         254.134         33.2401 
        1.29471         253.305         32.8686 
        1.30084         250.567         32.5031 
        1.30697         250.049         32.1426 
        1.31312         247.424         31.7871 
        1.31925         245.952         31.4382 
        1.32537         245.678         31.0948 
        1.33151         243.314         30.7554 
        1.33765         241.314         30.4212 
        1.34378         240.961         30.0927 
        1.34992         239.696         29.7689 
        1.35606         238.589         29.4491 
         1.3622         235.936         29.1346 
        1.36833         235.196         28.8255 
        1.37445         233.484         28.5211 
        1.38059         232.023         28.2201 
        1.38675         231.028         27.9228 
        1.39288          229.85          27.631 
        1.39901         228.073         27.3434 
        1.40515         227.334         27.0594 
         1.4113         225.737         26.7795 
        1.41742         224.083         26.5047 
        1.42355         222.923         26.2332 
         1.4297         221.435         25.9647 
        1.43585         220.161         25.7001 
        1.44198         220.005         25.4402 
        1.44809         217.936         25.1844 
        1.45423          216.73         24.9312 
        1.46036         215.435         24.6819 
        1.46649         214.398          24.436 
        1.47263         213.307         24.1932 
        1.47877         211.704         23.9538 
        1.48491         209.679         23.7173 
        1.49104         209.297         23.4845 
        1.49718          207.46         23.2547 
        1.50333         206.993         23.0276 
        1.50947         205.376         22.8039 
         1.5156         204.047         22.5836 
        1.52172         203.342         22.3662 
        1.52787         201.538         22.1513 
          1.534          201.17         21.9394 
        1.54013         199.378         21.7306 
        1.54627         198.533         21.5241 
        1.55241         197.334         21.3202 
        1.55855         195.496         21.1193 
        1.56467         195.195         20.9215 
         1.5708         193.873         20.7257 
        1.57695          193.08         20.5322 
        1.58308         191.575         20.3416 
        1.58922         190.416         20.1532 
        1.59535         189.127         19.9673 
         1.6015         187.991         19.7836 
        1.60764         187.467         19.6022 
        1.61376         186.351         19.4236 
        1.61989         185.324         19.2471 
        1.62604         184.009         19.0724 
        1.63218          183.31            18.9 
        1.63831         181.667         18.7301 
        1.64444         180.963         18.5623 
        1.65059         180.084         18.3961 
        1.65673         179.145         18.2321 
        1.66285          177.62         18.0706 
        1.66898         177.101          17.911 
        1.67512          175.91         17.7531 
        1.68127         174.607         17.5969 
         1.6874         174.136         17.4429 
        1.69353         172.802         17.2909 
        1.69967         171.661         17.1403 
        1.70581         170.834         16.9916 
        1.71193         169.472         16.8452 
        1.71806          169.09         16.7002 
        1.72421          167.96         16.5566 
        1.73035         167.369          16.415 
        1.73649         166.181         16.2749 
        1.74262         165.329         16.1367 
        1.74876          163.91              16 
        1.75489         163.418         15.8651 
        1.76101         162.016         15.7318 
        1.76715         161.684         15.5999 
        1.77329         160.441         15.4693 
        1.77943         159.858         15.3402 
        1.78557         158.855         15.2128 
        1.79171         157.996         15.0867 
        1.79785         156.876         14.9621 
        1.80399         156.199         14.8389 
        1.81012          155.46         14.7173 
        1.81625         154.658         14.5971 
        1.82239          153.51         14.4781 
        1.82853         152.754         14.3604 
        1.83466         152.118         14.2442 
        1.84078          151.12         14.1294 
        1.84692         149.981         14.0156 
        1.85306         149.785          13.903 
         1.8592         148.676         13.7918 
        1.86533         148.281         13.6819 
        1.87147          147.02         13.5731 
        1.87761         146.084         13.4654 
        1.88375         145.431          13.359 
        1.88988         144.011         13.2538 
        1.89601         143.856         13.1498 
        1.90215         143.191         13.0467 
        1.90829         141.921         12.9449 
        1.91442         141.555         12.8441 
        1.92056         140.529         12.7445 
         1.9267         139.687         12.6458 
        1.93284         138.842         12.5481 
        1.93897         138.287         12.4517 
        1.94509         137.739         12.3564 
        1.95123         136.961         12.2619 
        1.95737         136.038         12.1684 
        1.96349          135.53          12.076 
        1.96964          134.49         11.9844 
        1.97578         133.592         11.8937 
        1.98192         132.981         11.8041 
        1.98805         132.488         11.7154 
        1.99419         131.536         11.6276 
        2.00033         130.949         11.5406 
        2.00647         130.293         11.4546 
         2.0126          129.41         11.3696 
        2.01874         128.911         11.2854 
        2.02488         128.551         11.2019 
        2.03101         127.243         11.1194 
        2.03714         126.824         11.0378 
        2.04328         125.989          10.957 
        2.04941         125.511          10.877 
        2.05554          124.55         10.7979 
        2.06167         124.047         10.7195 
        2.06781         123.124         10.6418 
        2.07396         122.906         10.5648 
        2.08009         121.897         10.4887 
        2.08622         121.043         10.4135 
        2.09237         120.639         10.3388 
        2.09851         119.943         10.2649 
        2.10464         119.494         10.1918 
        2.11077         118.818         10.1195 
        2.11691         118.137         10.0477 
        2.12305         117.712         9.97663 
        2.12918         117.032         9.90642 
        2.13531          116.18         9.83689 
        2.14145         115.601         9.76786 
         2.1476         114.877         9.69941 
        2.15372         114.549         9.63197 
        2.15985         113.696          9.5651 
        2.16599         113.156         9.49867 
        2.17213          112.74         9.43295 
        2.17827         111.871         9.36787 
         2.1844         111.265         9.30346 
        2.19054         110.958         9.23963 
        2.19666         110.203          9.1765 
         2.2028         109.555         9.11389 
        2.20893         109.108         9.05185 
        2.21508         108.405         8.99031 
        2.22122         107.895         8.92933 
        2.22736         107.377         8.86904 
        2.23349         106.946         8.80932 
        2.23962          106.36         8.75012 
        2.24577         105.606         8.69141 
         2.2519         105.134         8.63332 
        2.25802         104.395         8.57586 
        2.26417         104.137         8.51876 
        2.27031         103.393         8.46213 
        2.27644         102.938         8.40618 
        2.28257         102.536         8.35074 
        2.28872         101.761         8.29569 
        2.29486         101.268         8.24116 
        2.30099         100.749         8.18722 
        2.30712         100.227         8.13374 
        2.31326         99.7117         8.08066 
         2.3194         99.0842         8.02807 
        2.32553         98.5997         7.97605 
        2.33166         97.9919         7.92451 
         2.3378         97.7124         7.87335 
        2.34394         97.1118         7.82263 
        2.35007         96.6737         7.77243 
        2.35619          96.124         7.72273 
        2.36233         95.6988         7.67335 
        2.36848         95.0916          7.6243 
        2.37462         94.7235         7.57578 
        2.38075         94.1344         7.52773 
        2.38689         93.6627         7.48006 
        2.39303         93.0887         7.43281 
        2.39916         92.6762         7.38602 
        2.40529         92.4378         7.33963 
        2.41143         91.8221         7.29361 
        2.41757         91.3166         7.24797 
         2.4237         90.8833          7.2028 
        2.42983         90.4116         7.15802 
        2.43598         89.8178          7.1135 
        2.44211         89.4252         7.06943 
        2.44823          88.907         7.02584 
        2.45437          88.556         6.98249 
        2.46052         88.0289         6.93947 
        2.46665         87.6895          6.8969 
        2.47279         87.1662         6.85469 
        2.47892         86.7435         6.81281 
        2.48507         86.3849         6.77124 
         2.4912         85.9604          6.7301 
