# k  (h/Mpc)    P(k)  (Mpc/h)^3    P_linear(k)  (Mpc/h)^3
     0.00783031         12061.6         12247.2 
       0.013688         14474.5         14376.9 
       0.019231         13891.1         13855.6 
      0.0249154         11934.6         12130.7 
      0.0312784         9831.51          9886.2 
      0.0375637         8056.71         8013.07 
      0.0433917         6729.42         6783.01 
      0.0492413         5994.48         5992.93 
      0.0555754         5368.34         5471.39 
      0.0619321         5135.48         5094.58 
       0.067871         4655.84          4730.2 
      0.0738098         4226.46         4289.37 
      0.0800417         3685.03         3758.72 
      0.0862327         3215.71         3230.07 
      0.0921407         2837.37         2791.92 
      0.0982031         2481.65         2450.34 
       0.104506         2308.28         2215.99 
       0.110769         2152.86         2078.51 
       0.116806         2048.27         1995.17 
       0.122832         1970.56         1919.19 
       0.129052          1830.9         1817.36 
       0.135211          1707.4         1682.68 
       0.141259         1591.39         1527.52 
       0.147318          1457.4         1370.35 
       0.153489         1311.37         1229.73 
       0.159709         1222.36         1121.01 
       0.165845          1166.1            1048 
       0.171974         1106.81         1001.76 
       0.178125         1063.79         969.715 
       0.184229         1025.13          939.23 
        0.19034         960.731         900.655 
       0.196428         933.491         850.946 
       0.202534          890.75         792.611 
       0.208729          833.36         731.514 
       0.214876         782.977         676.147 
       0.220989         749.402         631.077 
       0.227147         712.949         597.128 
        0.23329         684.657         572.893 
       0.239377         670.683         554.629 
       0.245482          627.19         537.832 
       0.251667         621.308         518.883 
       0.257832         596.471         496.446 
       0.263955         573.389         471.152 
       0.270079         548.087         444.697 
        0.27624         537.934         419.316 
       0.282372         515.316         397.151 
        0.28843         500.835         379.096 
       0.294538         475.586         364.569 
       0.300721         472.148         352.491 
        0.30691         450.755         341.648 
       0.313033         441.116          330.81 
       0.319153         426.508         319.169 
       0.325316         414.084         306.458 
        0.33145         400.375          293.34 
       0.337538         393.368         280.533 
       0.343633         380.077         268.645 
       0.349808         366.415         257.971 
       0.355968         362.171         248.771 
       0.362074         355.001         240.848 
       0.368217         344.861         233.609 
       0.374374         330.266         226.663 
       0.380519         327.498         219.663 
       0.386598         318.568         212.543 
       0.392688         315.175         205.292 
        0.39888         306.304         197.962 
       0.405048         298.769         190.969 
       0.411186         292.991          184.51 
       0.417313         287.125         178.607 
       0.423458         280.826         173.238 
       0.429607         275.515         168.287 
       0.435692         267.885         163.634 
       0.441815         265.282         159.075 
       0.447964         259.576         154.549 
       0.454126         251.146         150.016 
       0.460267         247.257          145.55 
       0.466387         244.218         141.233 
        0.47254         238.609         137.088 
       0.478662         237.842         133.186 
       0.484765          229.38         129.536 
       0.490885         226.531         126.106 
       0.497035         222.704         122.832 
       0.503198         218.041         119.667 
       0.509342         215.885         116.588 
       0.515458         212.774         113.593 
       0.521598         208.075         110.651 
       0.527764          205.23         107.763 
       0.533884          202.65         104.985 
           0.54          199.41         102.317 
       0.546137         198.054         99.7645 
       0.552299         193.833         97.3215 
       0.558452         192.094         94.9834 
       0.564573         189.052         92.7391 
       0.570708          184.99         90.5578 
       0.576825         182.433         88.4456 
       0.582926         179.781         86.3978 
       0.589034         177.851         84.4027 
       0.595184         175.784         82.4484 
       0.601379         173.405         80.5382 
       0.607522         170.301         78.7049 
       0.613639         169.018         76.9427 
       0.619772         165.444         75.2408 
       0.625918         164.077         73.5956 
       0.632068         161.728         72.0031 
       0.638161         160.618          70.472 
         0.6443         158.141         68.9706 
       0.650464         156.494         67.5016 
       0.656582         154.459         66.0816 
       0.662703         153.368         64.6999 
       0.668861         150.624         63.3499 
       0.675024         148.599         62.0394 
       0.681124         147.808         60.7825 
       0.687237         145.485         59.5606 
       0.693381         143.201         58.3683 
       0.699536         142.231         57.2073 
       0.705665         141.368         56.0829 
       0.711789         138.972         54.9887 
       0.717957         138.623          53.915 
        0.72409         136.505         52.8749 
       0.730186         134.596         51.8681 
       0.736317         133.321         50.8817 
       0.742472         132.416         49.9176 
       0.748622         131.106         48.9798 
        0.75476         129.887         48.0688 
       0.760888         128.215         47.1829 
       0.767043         127.716         46.3164 
       0.773185         126.354         45.4737 
       0.779291          124.03         44.6571 
       0.785407          123.57         43.8594 
       0.791564         122.512         43.0762 
       0.797719         120.339         42.3124 
       0.803834          119.78         41.5719 
       0.809972         118.732         40.8464 
       0.816124         118.158         40.1365 
       0.822261         116.912         39.4455 
       0.828378         115.802         38.7728 
       0.834502         115.425         38.1153 
       0.840667          113.59         37.4689 
       0.846816         112.374         36.8394 
       0.852925         111.852         36.2284 
       0.859047         110.518         35.6301 
       0.865192         109.574         35.0434 
       0.871341         108.652         34.4696 
       0.877463         107.513         33.9113 
       0.883569          107.19         33.3669 
       0.889708          106.12         32.8316 
       0.895864         104.975         32.3068 
       0.902008         104.268         31.7946 
       0.908149         103.762         31.2939 
       0.914301         102.603         30.8031 
       0.920448         101.789         30.3234 
       0.926574         101.058         29.8556 
       0.932687         100.961         29.3987 
       0.938823         99.3392         28.9497 
       0.944975         98.3252         28.5091 
       0.951105         97.8878         28.0793 
       0.957225         96.8996          27.659 
       0.963368         95.8767          27.246 
       0.969511         95.7725         26.8414 
       0.975621         95.1357         26.4472 
       0.981748         94.5289         26.0599 
       0.987916         93.4958          25.678 
        0.99406         92.7836         25.3051 
        1.00019         92.4714         24.9404 
        1.00632         91.4988         24.5833 
        1.01246         91.0243         24.2326 
        1.01859         90.0982         23.8893 
        1.02471         89.4264         23.5532 
        1.03085         88.6308         23.2223 
        1.03698         88.3711         22.8985 
        1.04314         87.4544         22.5795 
        1.04929          86.958         22.2674 
        1.05541         86.2218         21.9624 
        1.06154         85.8819         21.6624 
        1.06769         85.5468         21.3676 
        1.07382         84.8348         21.0792 
        1.07993         84.2178         20.7969 
        1.08607         83.5415         20.5185 
        1.09222         83.3418          20.245 
        1.09836         82.5541         19.9768 
        1.10449         82.0011         19.7137 
        1.11063         81.3607         19.4552 
        1.11677         81.0144         19.2013 
         1.1229         80.2095         18.9525 
        1.12903         79.6271         18.7078 
        1.13518         79.6518         18.4673 
        1.14131         78.9876         18.2311 
        1.14745         78.3546         17.9992 
        1.15359         77.9135         17.7713 
        1.15973         77.4927         17.5473 
        1.16584         76.7963         17.3281 
        1.17197         76.4013         17.1124 
        1.17811         75.9901         16.8997 
        1.18424         75.4603         16.6912 
        1.19038         75.1318         16.4856 
        1.19652         74.6644         16.2835 
        1.20267         73.9003         16.0849 
        1.20881         73.5802         15.8896 
        1.21495         73.0771         15.6978 
        1.22108         72.8333         15.5092 
         1.2272         72.0063         15.3242 
        1.23334          71.764         15.1418 
        1.23949         71.3386         14.9619 
        1.24562         70.8627         14.7855 
        1.25174         70.4914         14.6121 
        1.25789         70.2014          14.441 
        1.26402         69.6367          14.273 
        1.27014         69.2422          14.108 
        1.27628         68.9001         13.9452 
        1.28244         68.4182         13.7846 
        1.28858         68.2678         13.6267 
        1.29471         67.7718         13.4717 
        1.30084          67.389         13.3192 
        1.30697         66.9154         13.1689 
        1.31312         66.5333         13.0207 
        1.31925         66.1181         12.8752 
        1.32537         65.8766         12.7321 
        1.33151         65.2337         12.5906 
        1.33765         65.0111         12.4514 
        1.34378         64.6408         12.3146 
        1.34992         64.3406         12.1797 
        1.35606         63.9677         12.0466 
         1.3622         63.4031         11.9156 
        1.36833         63.2871          11.787 
        1.37445         62.8597         11.6603 
        1.38059         62.3769         11.5351 
        1.38675         62.0732         11.4114 
        1.39288         61.7637           11.29 
        1.39901         61.5121         11.1705 
        1.40515         61.0614         11.0524 
         1.4113           60.79          10.936 
        1.41742         60.6727         10.8218 
        1.42355         60.1438          10.709 
         1.4297         59.9676         10.5974 
        1.43585         59.4671         10.4875 
        1.44198         59.1086         10.3796 
        1.44809         58.9055         10.2734 
        1.45423         58.5947         10.1683 
        1.46036         58.3629         10.0648 
        1.46649         57.9705         9.96276 
        1.47263         57.5953         9.86204 
        1.47877         57.4001         9.76274 
        1.48491         57.0912         9.66466 
        1.49104          56.802         9.56813 
        1.49718         56.3844         9.47284 
        1.50333         56.1993          9.3787 
        1.50947          55.901         9.28603 
         1.5156         55.5773         9.19474 
        1.52172         55.3288         9.10469 
        1.52787         55.1856         9.01566 
          1.534         54.7104         8.92792 
        1.54013         54.3931         8.84145 
        1.54627         54.2818         8.75596 
        1.55241         53.7755         8.67159 
        1.55855         53.6234         8.58845 
        1.56467         53.2916         8.50662 
         1.5708         53.1768         8.42563 
        1.57695          52.967         8.34557 
        1.58308         52.5136         8.26674 
        1.58922         52.3183         8.18886 
        1.59535         52.1867         8.11202 
         1.6015         51.6739         8.03606 
        1.60764         51.5414          7.9611 
        1.61376         51.2433         7.88731 
        1.61989         50.9897         7.81439 
        1.62604         50.7911         7.74223 
        1.63218         50.6363         7.67102 
        1.63831         50.1887         7.60087 
        1.64444         50.0217         7.53158 
        1.65059         49.7934         7.46298 
        1.65673         49.5386         7.39531 
        1.66285         49.2023         7.32866 
        1.66898          49.062         7.26282 
        1.67512          48.687         7.19765 
        1.68127          48.513         7.13323 
         1.6874         48.3142         7.06973 
        1.69353         48.0451         7.00704 
        1.69967         47.8148         6.94496 
        1.70581         47.6856         6.88366 
        1.71193         47.4908         6.82333 
        1.71806         47.0163         6.76359 
        1.72421         46.9435         6.70445 
        1.73035         46.7251         6.64608 
        1.73649         46.3897         6.58842 
        1.74262         46.2595         6.53149 
        1.74876         45.9979         6.47519 
        1.75489         45.8163         6.41966 
        1.76101          45.632         6.36481 
        1.76715         45.2971         6.31052 
        1.77329         45.1003          6.2568 
        1.77943         44.8337         6.20367 
        1.78557         44.6959         6.15124 
        1.79171         44.4766         6.09941 
        1.79785         44.2262         6.04816 
        1.80399         44.1645         5.99751 
        1.81012         43.8305         5.94751 
        1.81625         43.5378          5.8981 
        1.82239         43.4335         5.84918 
        1.82853         43.1526         5.80083 
        1.83466         42.9397         5.75307 
        1.84078          42.719          5.7059 
        1.84692         42.5039         5.65919 
        1.85306          42.315         5.61293 
         1.8592         42.0646         5.56727 
        1.86533         41.9324         5.52214 
        1.87147         41.7234         5.47745 
        1.87761         41.5666         5.43325 
        1.88375         41.3499         5.38957 
        1.88988         41.2252         5.34643 
        1.89601         40.9755         5.30373 
        1.90215         40.7827         5.26147 
        1.90829          40.675         5.21968 
        1.91442          40.433         5.17835 
        1.92056         40.1543          5.1375 
         1.9267         39.9949         5.09704 
        1.93284         39.7854           5.057 
        1.93897         39.6763         5.01746 
        1.94509         39.4317         4.97843 
        1.95123         39.2736         4.93972 
        1.95737         39.0846         4.90138 
        1.96349         38.8511         4.86355 
        1.96964         38.7907         4.82601 
        1.97578         38.5147         4.78885 
        1.98192         38.3648         4.75216 
        1.98805          38.285         4.71584 
        1.99419         38.0081          4.6799 
        2.00033         37.8307         4.64432 
        2.00647          37.683         4.60911 
         2.0126         37.3903         4.57433 
        2.01874         37.3905         4.53986 
        2.02488         37.1874         4.50571 
        2.03101          36.976         4.47197 
        2.03714         36.8235         4.43861 
        2.04328         36.6298         4.40555 
        2.04941         36.4355         4.37285 
        2.05554         36.2509         4.34051 
        2.06167         36.1654         4.30845 
        2.06781         35.9208         4.27671 
        2.07396         35.8304         4.24524 
        2.08009         35.6748         4.21415 
        2.08622         35.4288         4.18339 
        2.09237         35.3125         4.15289 
        2.09851          35.169         4.12268 
        2.10464         35.0102         4.09282 
        2.11077         34.8797          4.0633 
        2.11691         34.6248           4.034 
        2.12305         34.4835         4.00498 
        2.12918         34.3447         3.97632 
        2.13531         34.1566         3.94794 
        2.14145         33.9984         3.91976 
         2.1476         33.8559         3.89183 
        2.15372         33.6599         3.86431 
        2.15985         33.5617         3.83703 
        2.16599         33.4352         3.80993 
        2.17213         33.3283         3.78313 
        2.17827         33.0857         3.75658 
         2.1844         32.9829         3.73032 
        2.19054         32.8076         3.70429 
        2.19666         32.6582         3.67856 
         2.2028         32.4799         3.65304 
        2.20893         32.4137         3.62775 
        2.21508         32.2899         3.60267 
        2.22122          32.092         3.57782 
        2.22736         31.9994         3.55325 
        2.23349         31.8319         3.52892 
        2.23962         31.6198         3.50481 
        2.24577           31.48          3.4809 
         2.2519         31.3345         3.45724 
        2.25802         31.2829         3.43384 
        2.26417         31.0765          3.4106 
        2.27031         30.9469         3.38754 
        2.27644         30.8125         3.36476 
        2.28257         30.7134          3.3422 
        2.28872         30.5271          3.3198 
        2.29486         30.4522         3.29761 
        2.30099          30.289         3.27566 
        2.30712         30.1748         3.25391 
        2.31326         29.9855         3.23231 
         2.3194         29.8774         3.21092 
        2.32553         29.7654         3.18977 
        2.33166         29.6565         3.16881 
         2.3378         29.4265         3.14801 
        2.34394           29.39         3.12739 
        2.35007         29.2308         3.10698 
        2.35619         29.0813         3.08678 
        2.36233         28.9988         3.06671 
        2.36848         28.8767         3.04678 
        2.37462          28.699         3.02707 
        2.38075         28.6498         3.00755 
        2.38689         28.5061         2.98818 
        2.39303         28.3516         2.96899 
        2.39916         28.1771         2.94999 
        2.40529         28.0806         2.93115 
        2.41143         28.0172         2.91246 
        2.41757          27.886         2.89393 
         2.4237         27.7882         2.87559 
        2.42983         27.5942         2.85742 
        2.43598         27.5103         2.83935 
        2.44211         27.3742         2.82146 
        2.44823          27.298         2.80377 
        2.45437         27.1364         2.78619 
        2.46052         26.9667         2.76874 
        2.46665          26.913         2.75146 
        2.47279         26.7973         2.73435 
        2.47892          26.675         2.71736 
        2.48507         26.5513          2.7005 
         2.4912         26.4701         2.68382 
