# k  (h/Mpc)    P(k)  (Mpc/h)^3    P_linear(k)  (Mpc/h)^3
     0.00783031           13437         13503.8 
       0.013688         16447.8           16874 
       0.019231         17137.7         17404.9 
      0.0249154         16478.6         16478.7 
      0.0312784         14485.9           14672 
      0.0375637         12520.2         12784.9 
      0.0433917         11166.2         11276.7 
      0.0492413         9914.83         10098.1 
      0.0555754         9059.96         9164.07 
      0.0619321         8114.65         8467.17 
       0.067871         7692.78         7913.34 
      0.0738098         7217.85         7364.98 
      0.0800417         6627.32         6750.65 
      0.0862327         5970.88         6107.24 
      0.0921407          5415.8         5500.82 
      0.0982031         4937.68         4933.31 
       0.104506         4398.75         4439.44 
       0.110769         4058.83         4059.16 
       0.116806         3862.97         3786.34 
       0.122832          3621.3         3580.23 
       0.129052          3433.8          3403.9 
       0.135211         3331.98         3235.69 
       0.141259         3101.94         3058.05 
       0.147318         2881.35         2862.85 
       0.153489         2715.89         2653.55 
       0.159709         2596.76          2446.5 
       0.165845         2366.07         2260.73 
       0.171974         2295.18         2103.29 
       0.178125         2208.29         1976.26 
       0.184229         2036.41          1877.2 
        0.19034         2004.34            1797 
       0.196428         1946.96         1726.51 
       0.202534         1831.89         1656.97 
       0.208729          1798.1         1582.32 
       0.214876          1720.8         1502.94 
       0.220989         1630.93            1421 
       0.227147         1586.23         1339.67 
        0.23329          1522.9         1264.12 
       0.239377         1508.94         1197.81 
       0.245482         1435.37         1140.96 
       0.251667         1382.13         1092.36 
       0.257832         1361.22         1050.68 
       0.263955         1299.12         1013.16 
       0.270079         1264.46         976.911 
        0.27624          1212.6         940.065 
       0.282372         1196.83         902.398 
        0.28843         1178.52         864.658 
       0.294538         1123.12          827.16 
       0.300721         1099.84          791.02 
        0.30691         1075.12         757.694 
       0.313033         1032.66         727.973 
       0.319153         1020.37         701.435 
       0.325316         1007.47         677.301 
        0.33145         985.899         655.105 
       0.337538         952.835         634.071 
       0.343633          930.27         613.446 
       0.349808          912.09         592.699 
       0.355968         894.717         572.164 
       0.362074         866.559         552.215 
       0.368217         863.922         532.865 
       0.374374          850.76         514.517 
       0.380519         819.993         497.398 
       0.386598         814.832         481.673 
       0.392688         795.378         467.005 
        0.39888         777.257         452.974 
       0.405048         763.019         439.664 
       0.411186         760.921         426.864 
       0.417313         756.722         414.395 
       0.423458         733.284         402.181 
       0.429607         713.208         390.259 
       0.435692         706.682         378.838 
       0.441815         693.463         367.805 
       0.447964         684.162         357.236 
       0.454126          675.58         347.174 
       0.460267         666.017         337.663 
       0.466387         655.267         328.632 
        0.47254         644.472         319.928 
       0.478662         635.037         311.584 
       0.484765         628.451         303.531 
       0.490885          621.57         295.681 
       0.497035         609.658         288.016 
       0.503198         609.182         280.576 
       0.509342         597.272         273.409 
       0.515458          585.76         266.531 
       0.521598          582.35         259.889 
       0.527764          569.95         253.485 
       0.533884         565.364         247.374 
           0.54         560.089         241.489 
       0.546137         551.257         235.781 
       0.552299         548.909         230.233 
       0.558452         541.506         224.865 
       0.564573         536.746         219.681 
       0.570708         531.424         214.636 
       0.576825          520.87         209.757 
       0.582926         519.223         205.043 
       0.589034         511.495         200.476 
       0.595184         506.923         196.027 
       0.601379         499.197         191.692 
       0.607522         491.056         187.528 
       0.613639         490.234          183.51 
       0.619772          487.61         179.603 
       0.625918         478.686         175.802 
       0.632068         475.978         172.107 
       0.638161         470.918         168.548 
         0.6443         465.571         165.062 
       0.650464         461.253          161.66 
       0.656582         457.578         158.379 
       0.662703          453.14         155.191 
       0.668861         447.065         152.076 
       0.675024         444.684         149.047 
       0.681124         437.443         146.133 
       0.687237         436.409         143.291 
       0.693381         429.965         140.512 
       0.699536         428.857         137.802 
       0.705665         423.543         135.175 
       0.711789         422.284          132.62 
       0.717957         416.203         130.113 
        0.72409         412.155         127.685 
       0.730186         413.296         125.335 
       0.736317         406.267         123.032 
       0.742472          402.47         120.779 
       0.748622         399.963         118.584 
        0.75476          396.64          116.45 
       0.760888         393.699         114.372 
       0.767043         390.789         112.337 
       0.773185         388.104         110.356 
       0.779291         383.297         108.434 
       0.785407         381.071         106.556 
       0.791564         378.385         104.712 
       0.797719         372.634         102.912 
       0.803834         374.687         101.166 
       0.809972         368.622         99.4548 
       0.816124         365.288         97.7797 
       0.822261         362.698         96.1482 
       0.828378         361.152          94.559 
       0.834502          355.53         93.0047 
       0.840667         355.731         91.4755 
       0.846816         350.135         89.9853 
       0.852925          350.67         88.5379 
       0.859047         347.326         87.1195 
       0.865192         345.618         85.7277 
       0.871341          340.97         84.3656 
       0.877463         339.231         83.0395 
       0.883569         336.646         81.7454 
       0.889708         333.527         80.4725 
       0.895864         330.431         79.2235 
       0.902008         329.058         78.0039 
       0.908149         326.122         76.8108 
       0.914301         324.612         75.6408 
       0.920448         321.976         74.4965 
       0.926574         319.978           73.38 
       0.932687         318.588         72.2889 
       0.938823         314.917         71.2161 
       0.944975          314.11         70.1628 
       0.951105         311.176         69.1347 
       0.957225         307.527         68.1291 
       0.963368          308.11         67.1402 
       0.969511         302.485          66.171 
       0.975621         301.755         65.2263 
       0.981748         300.409         64.2977 
       0.987916         298.604         63.3815 
        0.99406         295.776         62.4866 
        1.00019          293.11          61.611 
        1.00632         292.857          60.753 
        1.01246         290.292         59.9102 
        1.01859         287.027         59.0849 
        1.02471         285.317         58.2762 
        1.03085         284.408           57.48 
        1.03698         282.805         56.7005 
        1.04314         281.632         55.9322 
        1.04929         279.749           55.18 
        1.05541         276.703         54.4448 
        1.06154         275.162         53.7212 
        1.06769         272.719         53.0098 
        1.07382         271.582         52.3137 
        1.07993         269.518         51.6317 
        1.08607         267.994         50.9591 
        1.09222         265.895         50.2978 
        1.09836         265.127         49.6492 
        1.10449         263.092         49.0128 
        1.11063         261.087         48.3869 
        1.11677         258.719         47.7722 
         1.1229          258.25         47.1693 
        1.12903         256.003         46.5763 
        1.13518         254.219          45.993 
        1.14131         253.455         45.4201 
        1.14745         250.511         44.8574 
        1.15359         248.779          44.304 
        1.15973         247.902         43.7599 
        1.16584         246.439         43.2273 
        1.17197         244.888         42.7028 
        1.17811         242.689         42.1855 
        1.18424         241.446         41.6783 
        1.19038         240.335          41.178 
        1.19652         237.583         40.6861 
        1.20267          237.08         40.2023 
        1.20881         235.261         39.7265 
        1.21495         234.694         39.2591 
        1.22108         232.845         38.7994 
         1.2272         230.199         38.3482 
        1.23334         229.573         37.9031 
        1.23949         228.432         37.4641 
        1.24562         226.893         37.0333 
        1.25174         225.483           36.61 
        1.25789         223.471          36.192 
        1.26402          223.25         35.7813 
        1.27014         222.175          35.378 
        1.27628         219.941         34.9797 
        1.28244         218.641         34.5869 
        1.28858         217.396         34.2006 
        1.29471         216.219         33.8212 
        1.30084         215.195         33.4478 
        1.30697          213.02         33.0796 
        1.31312         211.866         32.7163 
        1.31925         210.645         32.3598 
        1.32537          209.96         32.0088 
        1.33151          208.43         31.6619 
        1.33765         206.873         31.3203 
        1.34378         205.907         30.9845 
        1.34992         204.265         30.6533 
        1.35606         203.411         30.3263 
         1.3622         202.001         30.0047 
        1.36833         200.692         29.6885 
        1.37445         200.444          29.377 
        1.38059          198.17         29.0691 
        1.38675         196.893         28.7648 
        1.39288         195.974         28.4662 
        1.39901         194.486         28.1719 
        1.40515          193.88         27.8811 
         1.4113          192.34         27.5946 
        1.41742         190.777         27.3131 
        1.42355         190.918         27.0351 
         1.4297         189.217         26.7602 
        1.43585         188.277         26.4891 
        1.44198         186.517         26.2229 
        1.44809          185.92         25.9608 
        1.45423         184.826         25.7014 
        1.46036         183.636         25.4459 
        1.46649         182.534         25.1939 
        1.47263         181.873         24.9451 
        1.47877         180.434         24.6998 
        1.48491         179.021         24.4573 
        1.49104         177.507         24.2187 
        1.49718         177.126         23.9831 
        1.50333         175.586         23.7502 
        1.50947          174.91          23.521 
         1.5156         173.867         23.2951 
        1.52172         172.975         23.0721 
        1.52787         171.913         22.8517 
          1.534         171.103         22.6344 
        1.54013         169.876         22.4202 
        1.54627         169.016         22.2083 
        1.55241         168.185         21.9992 
        1.55855         167.371         21.7931 
        1.56467         166.178         21.5902 
         1.5708         164.777         21.3893 
        1.57695         164.248         21.1906 
        1.58308          163.01          20.995 
        1.58922         162.218         20.8017 
        1.59535         160.945         20.6109 
         1.6015         160.346         20.4222 
        1.60764         159.218          20.236 
        1.61376         158.094         20.0527 
        1.61989         157.427         19.8714 
        1.62604         156.288          19.692 
        1.63218         155.606          19.515 
        1.63831         154.802         19.3405 
        1.64444         153.524         19.1681 
        1.65059         152.882         18.9974 
        1.65673         151.885         18.8289 
        1.66285         151.295          18.663 
        1.66898         150.209          18.499 
        1.67512         149.313         18.3367 
        1.68127         148.632         18.1761 
         1.6874          147.61         18.0179 
        1.69353         147.127         17.8616 
        1.69967          145.88         17.7068 
        1.70581         145.467         17.5539 
        1.71193         144.316         17.4034 
        1.71806         143.125         17.2544 
        1.72421         142.666         17.1068 
        1.73035         141.757         16.9611 
        1.73649         140.761         16.8171 
        1.74262         140.326          16.675 
        1.74876         139.502         16.5343 
        1.75489         138.875         16.3956 
        1.76101         137.622         16.2585 
        1.76715         136.814         16.1229 
        1.77329         136.024         15.9885 
        1.77943         135.157         15.8557 
        1.78557         134.668         15.7246 
        1.79171         133.885         15.5949 
        1.79785         132.855         15.4667 
        1.80399         132.261           15.34 
        1.81012         131.437         15.2148 
        1.81625         130.779         15.0911 
        1.82239         130.018         14.9686 
        1.82853         129.231         14.8475 
        1.83466         128.235         14.7279 
        1.84078         127.908         14.6097 
        1.84692         127.353         14.4926 
        1.85306         126.338         14.3767 
         1.8592         125.858         14.2622 
        1.86533         124.746         14.1491 
        1.87147         124.291          14.037 
        1.87761         123.407         13.9261 
        1.88375         122.544         13.8165 
        1.88988         122.089         13.7082 
        1.89601         121.717         13.6011 
        1.90215         121.158          13.495 
        1.90829         119.852           13.39 
        1.91442         119.112         13.2862 
        1.92056         118.604         13.1836 
         1.9267         117.948         13.0819 
        1.93284         117.193         12.9813 
        1.93897         116.622         12.8819 
        1.94509         115.925         12.7838 
        1.95123         115.384         12.6864 
        1.95737         114.788           12.59 
        1.96349         114.053         12.4948 
        1.96964         113.371         12.4004 
        1.97578         112.748         12.3069 
        1.98192         112.357         12.2145 
        1.98805         111.655         12.1231 
        1.99419         110.658         12.0326 
        2.00033         110.345          11.943 
        2.00647         109.859         11.8543 
         2.0126         109.074         11.7667 
        2.01874         108.658         11.6798 
        2.02488         107.758         11.5937 
        2.03101         107.399         11.5087 
        2.03714         106.638         11.4246 
        2.04328         106.314         11.3412 
        2.04941         105.758         11.2588 
        2.05554         105.134         11.1772 
        2.06167         104.296         11.0963 
        2.06781         103.771         11.0162 
        2.07396         103.254         10.9368 
        2.08009         102.492         10.8583 
        2.08622          102.12         10.7807 
        2.09237          101.35         10.7036 
        2.09851         100.975         10.6274 
        2.10464         100.517         10.5519 
        2.11077         99.8406         10.4773 
        2.11691         99.4378         10.4033 
        2.12305         98.8679           10.33 
        2.12918         98.2366         10.2576 
        2.13531         97.6821         10.1858 
        2.14145         97.1999         10.1146 
         2.1476         96.6591          10.044 
        2.15372         96.0542         9.97435 
        2.15985         95.5805         9.90534 
        2.16599         94.9193         9.83679 
        2.17213         94.4564         9.76896 
        2.17827         93.8496         9.70179 
         2.1844         93.6304         9.63531 
        2.19054         92.9346         9.56942 
        2.19666         92.3124         9.50425 
         2.2028         92.0293         9.43963 
        2.20893         91.6045         9.37557 
        2.21508         90.9697         9.31204 
        2.22122          90.509         9.24907 
        2.22736         90.1641         9.18682 
        2.23349         89.4988         9.12516 
        2.23962         88.9798         9.06403 
        2.24577         88.6203          9.0034 
         2.2519         88.0329         8.94342 
        2.25802         87.6577         8.88408 
        2.26417         87.0496         8.82511 
        2.27031         86.4899         8.76662 
        2.27644         86.2218         8.70883 
        2.28257          85.697         8.65157 
        2.28872         85.3083         8.59472 
        2.29486         85.1046         8.53838 
        2.30099         84.2851         8.48267 
        2.30712         84.0352         8.42743 
        2.31326         83.5555         8.37259 
         2.3194         83.0298         8.31827 
        2.32553         82.5928         8.26452 
        2.33166         82.0953         8.21127 
         2.3378         81.8003         8.15842 
        2.34394         81.3181         8.10602 
        2.35007         80.6888         8.05415 
        2.35619         80.4467         8.00279 
        2.36233         80.0032         7.95177 
        2.36848         79.5029         7.90108 
        2.37462         79.2557         7.85094 
        2.38075         78.6823         7.80129 
        2.38689         78.3572         7.75202 
        2.39303         77.9655         7.70319 
        2.39916         77.5456         7.65482 
        2.40529         77.2158         7.60688 
        2.41143         76.7883         7.55931 
        2.41757         76.2636         7.51213 
         2.4237         75.8198         7.46544 
        2.42983         75.4198         7.41915 
        2.43598         75.1788         7.37313 
        2.44211         74.8427         7.32758 
        2.44823          74.383         7.28251 
        2.45437         74.0088          7.2377 
        2.46052         73.5708         7.19323 
        2.46665         72.9981         7.14921 
        2.47279         72.8393         7.10558 
        2.47892         72.4696         7.06228 
        2.48507         72.0884          7.0193 
         2.4912         71.5737         6.97676 
