# k  (h/Mpc)    Pcb(k)  (Mpc/h)^3    Pcb_linear(k)  (Mpc/h)^3
     0.00783031         1047.96         1057.76 
       0.013688         1326.83         1328.15 
       0.019231         1376.92         1376.89 
      0.0249154         1305.07         1312.51 
      0.0312784         1178.45          1180.2 
      0.0375637         1042.02         1040.21 
      0.0433917         924.916         927.189 
      0.0492413         837.826         837.411 
      0.0555754         760.098         763.966 
      0.0619321         709.259         706.301 
       0.067871         655.829         658.335 
      0.0738098         607.558         610.287 
      0.0800417         553.373         557.536 
      0.0862327         502.366         504.165 
      0.0921407         455.073         455.543 
      0.0982031          409.86         411.284 
       0.104506         375.399         373.457 
       0.110769         345.917         344.334 
       0.116806          322.44         322.827 
       0.122832         306.538         305.507 
       0.129052         288.721         289.484 
       0.135211         272.726         273.539 
       0.141259         257.498         256.926 
       0.147318         241.143         239.488 
       0.153489         222.617         221.784 
       0.159709          206.52         205.139 
       0.165845         193.967         190.777 
       0.171974          180.55         178.856 
       0.178125         171.243         169.171 
       0.184229         163.816         161.275 
        0.19034         155.178         154.366 
       0.196428         149.851          147.81 
       0.202534         144.288         141.113 
       0.208729         136.539          134.04 
       0.214876         128.684         126.866 
       0.220989         123.147         119.865 
       0.227147         115.344         113.265 
        0.23329          109.65         107.363 
       0.239377         105.105         102.272 
       0.245482          99.786         97.8625 
       0.251667         96.9653         93.9398 
       0.257832         93.2652         90.3629 
       0.263955         89.8456         86.9547 
       0.270079         86.5152          83.566 
        0.27624         83.8512         80.1407 
       0.282372         80.3915         76.7509 
        0.28843         76.7932          73.494 
       0.294538         73.6978         70.3873 
       0.300721         71.4503          67.483 
        0.30691         68.2423         64.8415 
       0.313033         65.9935         62.4698 
       0.319153         63.0203         60.2949 
       0.325316         61.9255         58.2418 
        0.33145          59.709         56.2839 
       0.337538         57.9913         54.3877 
       0.343633         55.9414         52.5257 
       0.349808         54.2703         50.6805 
       0.355968         52.5462         48.9003 
       0.362074         50.7927         47.2152 
       0.368217         49.2659         45.6152 
       0.374374         47.6155         44.1131 
       0.380519         46.3768         42.7092 
       0.386598         45.1186         41.4025 
       0.392688         44.0628         40.1585 
        0.39888         42.7445         38.9447 
       0.405048         41.6874         37.7765 
       0.411186         40.6527         36.6476 
       0.417313         39.2794         35.5546 
       0.423458         38.2892         34.4957 
       0.429607         37.1887          33.477 
       0.435692         36.0853         32.5132 
       0.441815         35.3537         31.5887 
       0.447964         34.7136         30.7036 
       0.454126         33.4379         29.8571 
       0.460267         32.7612         29.0491 
       0.466387         31.7832          28.274 
        0.47254         31.2575         27.5212 
       0.478662         30.6428         26.7967 
       0.484765         29.7599         26.0975 
       0.490885         29.0477         25.4191 
       0.497035          28.656         24.7611 
       0.503198         27.8957         24.1261 
       0.509342         27.2011          23.517 
       0.515458         26.5938         22.9334 
       0.521598         26.1051         22.3693 
       0.527764         25.5074         21.8233 
       0.533884         25.0603         21.2999 
           0.54         24.5225         20.7938 
       0.546137         24.0784         20.3017 
       0.552299         23.6522         19.8232 
       0.558452         22.9262         19.3605 
       0.564573         22.6218         18.9146 
       0.570708         22.2056          18.482 
       0.576825         21.6324         18.0645 
       0.582926         21.2663         17.6616 
       0.589034         20.6833         17.2711 
       0.595184         20.3923         16.8904 
       0.601379         19.9831         16.5187 
       0.607522         19.6751         16.1612 
       0.613639         19.4387         15.8158 
       0.619772          18.924         15.4795 
       0.625918         18.7809         15.1524 
       0.632068         18.4657         14.8345 
       0.638161         18.0436         14.5287 
         0.6443         17.6769         14.2293 
       0.650464         17.3431         13.9374 
       0.656582         17.2091          13.656 
       0.662703         16.8917         13.3824 
       0.668861         16.5868         13.1149 
       0.675024         16.2679         12.8547 
       0.681124         15.9902         12.6041 
       0.687237         15.7471         12.3598 
       0.693381         15.5586         12.1207 
       0.699536         15.1389         11.8877 
       0.705665         15.0063         11.6617 
       0.711789         14.7456          11.442 
       0.717957          14.517         11.2264 
        0.72409         14.2804         11.0177 
       0.730186         14.0896         10.8156 
       0.736317         13.9404         10.6175 
       0.742472         13.7164         10.4238 
       0.748622         13.5093         10.2351 
        0.75476         13.2363         10.0515 
       0.760888         13.0853         9.87269 
       0.767043         12.9273         9.69758 
       0.773185         12.6697         9.52711 
       0.779291         12.5763         9.36175 
       0.785407         12.3823         9.20011 
       0.791564         12.1818         9.04131 
       0.797719         11.9728         8.88638 
       0.803834         11.8952         8.73609 
       0.809972         11.7777         8.58878 
       0.816124         11.5239         8.44457 
       0.822261         11.3733          8.3041 
       0.828378         11.2367         8.16726 
       0.834502         11.1372         8.03342 
       0.840667         10.9466         7.90174 
       0.846816         10.7651         7.77339 
       0.852925         10.6696         7.64873 
       0.859047         10.5385         7.52655 
       0.865192         10.4453         7.40666 
       0.871341         10.3336         7.28932 
       0.877463         10.1692         7.17508 
       0.883569         10.0109         7.06358 
       0.889708         9.85346          6.9539 
       0.895864         9.78444         6.84627 
       0.902008         9.67517         6.74117 
       0.908149         9.56931         6.63835 
       0.914301         9.43767         6.53752 
       0.920448         9.29768         6.43889 
       0.926574         9.19149         6.34265 
       0.932687         9.11151          6.2486 
       0.938823         8.98892         6.15613 
       0.944975         8.87309         6.06532 
       0.951105         8.79476         5.97669 
       0.957225         8.74429         5.88999 
       0.963368         8.62517         5.80473 
       0.969511         8.53024         5.72117 
       0.975621         8.42245         5.63971 
       0.981748         8.33595         5.55964 
       0.987916         8.25992         5.48063 
        0.99406         8.12893         5.40347 
        1.00019         8.01663         5.32795 
        1.00632         7.99429         5.25396 
        1.01246         7.90198         5.18127 
        1.01859         7.79416         5.11008 
        1.02471         7.72507         5.04033 
        1.03085         7.64791         4.97164 
        1.03698         7.54404          4.9044 
        1.04314         7.49136         4.83811 
        1.04929         7.39277         4.77322 
        1.05541         7.31273         4.70979 
        1.06154         7.25319         4.64736 
        1.06769         7.21557         4.58597 
        1.07382         7.10035          4.5259 
        1.07993         7.03092         4.46704 
        1.08607         6.98736           4.409 
        1.09222         6.91455         4.35193 
        1.09836         6.84777         4.29594 
        1.10449         6.77698         4.24101 
        1.11063         6.71533         4.18698 
        1.11677         6.66447         4.13392 
         1.1229          6.6029         4.08188 
        1.12903         6.53004         4.03068 
        1.13518         6.46348         3.98033 
        1.14131         6.38833         3.93087 
        1.14745         6.31826         3.88228 
        1.15359         6.28635          3.8345 
        1.15973         6.22201         3.78752 
        1.16584         6.15267         3.74153 
        1.17197         6.10346         3.69624 
        1.17811         6.06423         3.65157 
        1.18424         6.01783         3.60777 
        1.19038         5.97453         3.56456 
        1.19652         5.91309         3.52208 
        1.20267         5.84771          3.4803 
        1.20881         5.81474          3.4392 
        1.21495         5.76372         3.39884 
        1.22108         5.70363         3.35913 
         1.2272         5.67568         3.32016 
        1.23334         5.60111         3.28172 
        1.23949         5.55294          3.2438 
        1.24562          5.5282         3.20658 
        1.25174         5.46361         3.17001 
        1.25789          5.4282          3.1339 
        1.26402         5.38287         3.09842 
        1.27014         5.33425         3.06358 
        1.27628         5.29708         3.02917 
        1.28244         5.23367         2.99523 
        1.28858          5.2176         2.96185 
        1.29471         5.16101         2.92907 
        1.30084         5.11276         2.89681 
        1.30697         5.11124         2.86498 
        1.31312         5.01591          2.8336 
        1.31925         4.99824         2.80278 
        1.32537         4.95658         2.77245 
        1.33151         4.93503         2.74247 
        1.33765         4.87051         2.71294 
        1.34378         4.83726         2.68392 
        1.34992         4.81847         2.65529 
        1.35606           4.759         2.62703 
         1.3622         4.74029         2.59922 
        1.36833         4.70219         2.57189 
        1.37445         4.66748         2.54497 
        1.38059         4.64597         2.51834 
        1.38675         4.61165         2.49204 
        1.39288          4.5696         2.46622 
        1.39901         4.52502         2.44078 
        1.40515         4.49801         2.41564 
         1.4113         4.46878         2.39086 
        1.41742         4.43942         2.36653 
        1.42355         4.40421         2.34249 
         1.4297         4.36487         2.31872 
        1.43585         4.35011         2.29528 
        1.44198         4.32669         2.27226 
        1.44809         4.27707          2.2496 
        1.45423          4.2466         2.22716 
        1.46036         4.21546         2.20508 
        1.46649         4.18368         2.18328 
        1.47263         4.15421         2.16176 
        1.47877         4.11993         2.14055 
        1.48491         4.09557         2.11958 
        1.49104         4.07541         2.09894 
        1.49718         4.04638         2.07856 
        1.50333         4.02159         2.05843 
        1.50947         3.99291         2.03859 
         1.5156         3.96537         2.01906 
        1.52172         3.94206         1.99977 
        1.52787         3.91729         1.98071 
          1.534         3.88639         1.96191 
        1.54013         3.86663         1.94338 
        1.54627         3.82935         1.92505 
        1.55241         3.80525         1.90696 
        1.55855         3.79079         1.88913 
        1.56467         3.76501         1.87157 
         1.5708         3.73482         1.85419 
        1.57695         3.70855         1.83701 
        1.58308         3.68331         1.82008 
        1.58922         3.67153         1.80336 
        1.59535         3.64574         1.78685 
         1.6015         3.62143         1.77052 
        1.60764         3.59911         1.75441 
        1.61376         3.57794         1.73855 
        1.61989         3.55472         1.72286 
        1.62604         3.52887         1.70734 
        1.63218         3.51968         1.69202 
        1.63831         3.48939         1.67692 
        1.64444         3.46731           1.662 
        1.65059         3.44462         1.64722 
        1.65673         3.42946         1.63264 
        1.66285         3.40126         1.61828 
        1.66898         3.38644         1.60409 
        1.67512         3.35933         1.59004 
        1.68127         3.34193         1.57614 
         1.6874         3.33075         1.56245 
        1.69353         3.29435         1.54892 
        1.69967         3.28219         1.53552 
        1.70581         3.27064         1.52229 
        1.71193         3.24772         1.50926 
        1.71806         3.23255         1.49636 
        1.72421         3.21227         1.48359 
        1.73035         3.19565         1.47097 
        1.73649         3.17242         1.45851 
        1.74262         3.15352          1.4462 
        1.74876         3.14585         1.43403 
        1.75489         3.12159         1.42202 
        1.76101         3.09877         1.41016 
        1.76715         3.08661         1.39841 
        1.77329         3.07167         1.38678 
        1.77943         3.04418         1.37528 
        1.78557          3.0353         1.36393 
        1.79171         3.02013          1.3527 
        1.79785         2.99838          1.3416 
        1.80399         2.98457         1.33063 
        1.81012          2.9735         1.31979 
        1.81625         2.95109         1.30908 
        1.82239         2.93372         1.29847 
        1.82853         2.91453         1.28799 
        1.83466          2.9091         1.27763 
        1.84078         2.89024         1.26739 
        1.84692         2.87811         1.25725 
        1.85306         2.85499         1.24722 
         1.8592         2.84051          1.2373 
        1.86533         2.82662          1.2275 
        1.87147         2.81702          1.2178 
        1.87761         2.79967         1.20819 
        1.88375         2.77996          1.1987 
        1.88988         2.76855         1.18932 
        1.89601         2.75433         1.18004 
        1.90215         2.73645         1.17085 
        1.90829         2.72087         1.16176 
        1.91442         2.71292         1.15277 
        1.92056         2.69508         1.14388 
         1.9267         2.68535         1.13508 
        1.93284         2.67292         1.12636 
        1.93897         2.65833         1.11775 
        1.94509         2.63897         1.10925 
        1.95123         2.62508         1.10082 
        1.95737         2.61239         1.09247 
        1.96349         2.60286         1.08422 
        1.96964          2.5951         1.07604 
        1.97578         2.57623         1.06794 
        1.98192          2.5658         1.05994 
        1.98805         2.55223         1.05202 
        1.99419         2.54083         1.04418 
        2.00033         2.53486         1.03642 
        2.00647         2.51549         1.02873 
         2.0126         2.50721         1.02114 
        2.01874         2.48757         1.01362 
        2.02488         2.48063         1.00616 
        2.03101         2.46265        0.998793 
        2.03714          2.4518        0.991506 
        2.04328         2.44344        0.984284 
        2.04941         2.42544        0.977139 
        2.05554         2.42079        0.970071 
        2.06167         2.40719        0.963062 
        2.06781         2.39983        0.956123 
        2.07396         2.38809        0.949241 
        2.08009         2.37489         0.94244 
        2.08622         2.36025        0.935713 
        2.09237         2.35604        0.929038 
        2.09851          2.3425        0.922428 
        2.10464         2.33486        0.915893 
        2.11077         2.32119        0.909429 
        2.11691            2.31        0.903013 
        2.12305         2.30267        0.896659 
        2.12918         2.29259        0.890382 
        2.13531         2.28194        0.884164 
        2.14145         2.26914        0.877991 
         2.1476         2.25729         0.87187 
        2.15372         2.24772        0.865838 
        2.15985         2.23738        0.859858 
        2.16599         2.22926        0.853916 
        2.17213         2.21563        0.848038 
        2.17827         2.20892        0.842216 
         2.1844         2.19976        0.836453 
        2.19054         2.19214        0.830743 
        2.19666         2.17977        0.825094 
         2.2028         2.16979        0.819493 
        2.20893         2.16042        0.813941 
        2.21508         2.15244        0.808434 
        2.22122         2.13912        0.802976 
        2.22736         2.12955        0.797581 
        2.23349          2.1257        0.792236 
        2.23962         2.11227        0.786937 
        2.24577         2.10447        0.781682 
         2.2519         2.09436        0.776482 
        2.25802          2.0899        0.771338 
        2.26417         2.07919        0.766226 
        2.27031         2.07055        0.761156 
        2.27644         2.06286        0.756147 
        2.28257         2.05175        0.751183 
        2.28872         2.04402        0.746254 
        2.29486         2.03653        0.741371 
        2.30099           2.026        0.736541 
        2.30712         2.01616        0.731752 
        2.31326         2.01253        0.726998 
         2.3194          2.0016        0.722288 
        2.32553         1.99505        0.717629 
        2.33166         1.98481        0.713012 
         2.3378         1.97679         0.70843 
        2.34394         1.96822        0.703886 
        2.35007         1.95962        0.699389 
        2.35619         1.95658        0.694937 
        2.36233         1.94438        0.690513 
        2.36848         1.93743        0.686118 
        2.37462         1.93076         0.68177 
        2.38075         1.92148        0.677465 
        2.38689          1.9157        0.673193 
        2.39303          1.9076        0.668959 
        2.39916         1.89905        0.664765 
        2.40529         1.89234        0.660608 
        2.41143         1.88355        0.656484 
        2.41757         1.87616        0.652392 
         2.4237         1.87156        0.648343 
        2.42983         1.85895        0.644329 
        2.43598         1.85894        0.640339 
        2.44211         1.84747        0.636389 
        2.44823         1.84199         0.63248 
        2.45437          1.8342        0.628595 
        2.46052          1.8276        0.624738 
        2.46665         1.82115        0.620921 
        2.47279         1.81293        0.617137 
        2.47892          1.8064        0.613382 
        2.48507         1.80091        0.609654 
         2.4912          1.7908        0.605965 
