# k  (h/Mpc)    Pcb(k)  (Mpc/h)^3    Pcb_linear(k)  (Mpc/h)^3
     0.00783031          166.42         167.848 
       0.013688         213.871         214.716 
       0.019231         222.999         223.237 
      0.0249154         210.954         211.667 
      0.0312784         188.556         188.622 
      0.0375637         165.636         165.375 
      0.0433917         147.745         147.724 
      0.0492413         134.735         134.586 
      0.0555754         124.145          124.31 
      0.0619321           116.2         115.981 
       0.067871         108.114         108.266 
      0.0738098         99.6016         99.7699 
      0.0800417         89.8789          90.108 
      0.0862327         80.4929         80.5448 
      0.0921407         72.3523         72.3346 
      0.0982031         65.4103         65.4489 
       0.104506         60.2458         60.0987 
       0.110769         56.3926         56.2987 
       0.116806         53.4287          53.508 
       0.122832          51.007         50.9899 
       0.129052          48.117         48.2138 
       0.135211          44.996         45.1033 
       0.141259         41.7942         41.7968 
       0.147318         38.5898         38.4987 
       0.153489         35.4868         35.4488 
       0.159709         32.9381          32.895 
       0.165845         31.0956         30.9345 
       0.171974         29.4631         29.4389 
       0.178125         28.2614         28.2249 
       0.184229         27.1838         27.1119 
        0.19034         25.9099         25.9437 
       0.196428         24.6974         24.6639 
       0.202534         23.4161         23.2881 
       0.208729         21.9582         21.8822 
       0.214876         20.6058          20.576 
       0.220989         19.5723         19.4372 
       0.227147          18.513         18.4795 
        0.23329         17.7289         17.6943 
       0.239377         17.0819         17.0332 
       0.245482         16.4373         16.4249 
       0.251667         15.8895         15.8121 
       0.257832         15.2272         15.1754 
       0.263955         14.5854         14.5168 
       0.270079          13.931          13.853 
        0.27624         13.3375         13.2103 
       0.282372         12.7466          12.622 
        0.28843         12.1931         12.1053 
       0.294538         11.7393         11.6481 
       0.300721         11.3667         11.2382 
        0.30691         10.9438         10.8609 
       0.313033         10.5932         10.5021 
       0.319153         10.1756         10.1448 
       0.325316         9.90065         9.78277 
        0.33145         9.52972          9.4231 
       0.337538          9.1789         9.07526 
       0.343633         8.83281         8.74446 
       0.349808         8.54079         8.43343 
       0.355968         8.25825         8.14915 
       0.362074         7.99052         7.89037 
       0.368217         7.75225         7.64819 
       0.374374         7.49512         7.41708 
       0.380519         7.29454         7.19321 
       0.386598         7.08689         6.97559 
       0.392688         6.88406         6.76091 
        0.39888         6.66158         6.54801 
       0.405048         6.46243         6.34358 
       0.411186         6.27478         6.14988 
       0.417313         6.07533         5.96765 
       0.423458         5.91671         5.79561 
       0.429607          5.7386         5.63291 
       0.435692         5.58356         5.47964 
       0.441815         5.43952         5.33108 
       0.447964         5.31469         5.18616 
       0.454126         5.14991         5.04479 
       0.460267         5.01266         4.90775 
       0.466387         4.87188          4.7753 
        0.47254         4.75225         4.64696 
       0.478662         4.63652         4.52466 
       0.484765          4.5101         4.40811 
       0.490885         4.39942         4.29621 
       0.497035         4.31533         4.18838 
       0.503198         4.19843         4.08445 
       0.509342         4.10311         3.98427 
       0.515458         3.99821         3.88744 
       0.521598         3.90645           3.793 
       0.527764         3.80449         3.70104 
       0.533884         3.73113         3.61269 
           0.54         3.64104         3.52735 
       0.546137         3.56291         3.44464 
       0.552299         3.48105         3.36454 
       0.558452         3.39228         3.28744 
       0.564573         3.32667         3.21336 
       0.570708         3.25459         3.14147 
       0.576825         3.17806         3.07194 
       0.582926         3.11908         3.00457 
       0.589034         3.03486         2.93905 
       0.595184         2.97659         2.87503 
       0.601379         2.91335          2.8125 
       0.607522         2.86152         2.75239 
       0.613639         2.81246         2.69434 
       0.619772         2.74061         2.63788 
       0.625918         2.69115           2.583 
       0.632068         2.64398          2.5297 
       0.638161         2.58501         2.47844 
         0.6443         2.53303         2.42825 
       0.650464         2.47767         2.37928 
       0.656582         2.43789         2.33201 
       0.662703          2.3919         2.28599 
       0.668861         2.35306         2.24095 
       0.675024         2.30233          2.1971 
       0.681124         2.25354         2.15488 
       0.687237         2.22042         2.11371 
       0.693381         2.18064         2.07346 
       0.699536         2.12755         2.03422 
       0.705665         2.09267         1.99618 
       0.711789         2.05966         1.95918 
       0.717957         2.01871         1.92287 
        0.72409         1.98541         1.88769 
       0.730186         1.94878          1.8536 
       0.736317         1.92465         1.82017 
       0.742472         1.88921         1.78745 
       0.748622         1.85327         1.75558 
        0.75476         1.81718         1.72455 
       0.760888         1.78655         1.69434 
       0.767043         1.76667         1.66474 
       0.773185         1.73022         1.63592 
       0.779291         1.70322         1.60795 
       0.785407         1.67602         1.58061 
       0.791564         1.64948         1.55375 
       0.797719         1.62565         1.52753 
       0.803834         1.60024         1.50208 
       0.809972         1.57346         1.47714 
       0.816124         1.54616         1.45271 
       0.822261         1.51938         1.42891 
       0.828378         1.49954         1.40572 
       0.834502         1.47969         1.38302 
       0.840667         1.44982          1.3607 
       0.846816         1.42851         1.33893 
       0.852925         1.41286         1.31778 
       0.859047         1.39094         1.29705 
       0.865192         1.36779          1.2767 
       0.871341         1.34746         1.25678 
       0.877463         1.33254         1.23739 
       0.883569         1.30873         1.21845 
       0.889708         1.28894         1.19982 
       0.895864         1.27112         1.18154 
       0.902008         1.25032         1.16368 
       0.908149         1.23331          1.1462 
       0.914301         1.21045         1.12906 
       0.920448         1.19618         1.11229 
       0.926574         1.17855         1.09592 
       0.932687          1.1622         1.07992 
       0.938823         1.15111         1.06419 
       0.944975         1.13326         1.04874 
       0.951105         1.11902         1.03365 
       0.957225         1.10634         1.01889 
       0.963368         1.08995         1.00436 
       0.969511         1.07306        0.990129 
       0.975621          1.0567        0.976249 
       0.981748         1.04741        0.962601 
       0.987916         1.03215        0.949131 
        0.99406         1.01697        0.935971 
        1.00019         1.00702         0.92309 
        1.00632        0.989763        0.910465 
        1.01246        0.977399         0.89806 
        1.01859         0.96682        0.885909 
        1.02471        0.953062        0.873999 
        1.03085        0.944399         0.86227 
        1.03698         0.92968        0.850783 
        1.04314        0.919193        0.839458 
        1.04929        0.905992        0.828368 
        1.05541        0.896846        0.817525 
        1.06154        0.884163        0.806851 
        1.06769         0.87229        0.796353 
        1.07382         0.86314        0.786079 
        1.07993        0.850139        0.776011 
        1.08607         0.84427         0.76608 
        1.09222        0.831416        0.756314 
        1.09836        0.824972        0.746732 
        1.10449        0.814342        0.737328 
        1.11063        0.802343        0.728078 
        1.11677        0.791515        0.718992 
         1.1229          0.7841        0.710078 
        1.12903        0.773609        0.701308 
        1.13518        0.766761        0.692681 
        1.14131        0.756433        0.684206 
        1.14745        0.744013        0.675878 
        1.15359        0.738946        0.667688 
        1.15973        0.727935        0.659633 
        1.16584        0.723759        0.651747 
        1.17197        0.714289         0.64398 
        1.17811        0.707049        0.636317 
        1.18424        0.701153        0.628803 
        1.19038        0.691082        0.621388 
        1.19652        0.681558        0.614097 
        1.20267        0.677135        0.606924 
        1.20881         0.66794        0.599868 
        1.21495        0.662738        0.592936 
        1.22108        0.655048        0.586115 
         1.2272        0.648849        0.579419 
        1.23334         0.64091        0.572812 
        1.23949        0.634047        0.566294 
        1.24562         0.62755        0.559896 
        1.25174        0.621403        0.553607 
        1.25789        0.615486        0.547397 
        1.26402        0.606844        0.541294 
        1.27014         0.60119        0.535299 
        1.27628        0.596647        0.529378 
        1.28244        0.587727        0.523536 
        1.28858        0.582888        0.517791 
        1.29471        0.578537        0.512145 
        1.30084        0.571159         0.50659 
        1.30697        0.565401        0.501109 
        1.31312        0.557578        0.495702 
        1.31925        0.553308        0.490392 
        1.32537        0.548818        0.485166 
        1.33151        0.544116        0.479999 
        1.33765        0.538246         0.47491 
        1.34378        0.531353        0.469905 
        1.34992         0.52757         0.46497 
        1.35606        0.521776        0.460096 
         1.3622        0.516888        0.455301 
        1.36833        0.511692        0.450586 
        1.37445        0.505355        0.445941 
        1.38059        0.500889        0.441347 
        1.38675        0.499246        0.436808 
        1.39288        0.492702        0.432351 
        1.39901        0.488396        0.427959 
        1.40515        0.484132        0.423618 
         1.4113        0.478433         0.41934 
        1.41742        0.474067        0.415138 
        1.42355        0.471406        0.410985 
         1.4297        0.465301        0.406878 
        1.43585         0.46161        0.402828 
        1.44198        0.458796         0.39885 
        1.44809        0.453084        0.394933 
        1.45423        0.449217        0.391054 
        1.46036        0.444986        0.387235 
        1.46649        0.441841        0.383466 
        1.47263        0.437083        0.379745 
        1.47877        0.432346        0.376075 
        1.48491        0.429217        0.372448 
        1.49104        0.424448        0.368877 
        1.49718        0.421275         0.36535 
        1.50333          0.4184        0.361864 
        1.50947        0.414388        0.358431 
         1.5156        0.410171        0.355047 
        1.52172        0.407041        0.351708 
        1.52787        0.403217        0.348405 
          1.534        0.399794        0.345149 
        1.54013        0.395775        0.341939 
        1.54627        0.393287        0.338763 
        1.55241        0.389186        0.335628 
        1.55855        0.385221        0.332537 
        1.56467        0.384065        0.329494 
         1.5708        0.379633         0.32648 
        1.57695        0.376662          0.3235 
        1.58308        0.373225        0.320564 
        1.58922        0.370499        0.317663 
        1.59535        0.367106        0.314799 
         1.6015        0.363898        0.311967 
        1.60764        0.361371        0.309171 
        1.61376        0.357287        0.306417 
        1.61989        0.355125        0.303695 
        1.62604        0.352363           0.301 
        1.63218        0.349814        0.298339 
        1.63831        0.346931        0.295717 
        1.64444        0.343978        0.293126 
        1.65059        0.341285         0.29056 
        1.65673        0.338458        0.288028 
        1.66285        0.336178        0.285533 
        1.66898        0.333521        0.283067 
        1.67512        0.330153        0.280625 
        1.68127         0.32736        0.278211 
         1.6874        0.325776         0.27583 
        1.69353        0.322442        0.273479 
        1.69967        0.320717        0.271149 
        1.70581        0.317356        0.268848 
        1.71193         0.31521        0.266583 
        1.71806        0.312295        0.264339 
        1.72421        0.310815        0.262116 
        1.73035        0.307749        0.259922 
        1.73649         0.30599        0.257754 
        1.74262        0.303412        0.255612 
        1.74876        0.300954        0.253493 
        1.75489        0.299053        0.251402 
        1.76101        0.296168        0.249336 
        1.76715        0.294067        0.247291 
        1.77329        0.291563        0.245266 
        1.77943        0.289619        0.243263 
        1.78557        0.287946        0.241285 
        1.79171        0.285756        0.239329 
        1.79785        0.283454        0.237395 
        1.80399        0.281283        0.235483 
        1.81012        0.279512        0.233594 
        1.81625         0.27727        0.231727 
        1.82239        0.275496        0.229877 
        1.82853        0.272912        0.228049 
        1.83466        0.271365        0.226243 
        1.84078        0.269148        0.224458 
        1.84692        0.267265         0.22269 
        1.85306        0.265714        0.220939 
         1.8592        0.263438        0.219209 
        1.86533        0.262028        0.217499 
        1.87147        0.260006        0.215805 
        1.87761        0.258488        0.214129 
        1.88375        0.256007        0.212472 
        1.88988         0.25446        0.210835 
        1.89601        0.252433        0.209215 
        1.90215        0.251052         0.20761 
        1.90829         0.24889        0.206023 
        1.91442        0.247751        0.204453 
        1.92056        0.245554          0.2029 
         1.9267        0.243684        0.201362 
        1.93284        0.242134        0.199839 
        1.93897        0.240454        0.198335 
        1.94509        0.239272         0.19685 
        1.95123        0.237279        0.195376 
        1.95737        0.236117        0.193916 
        1.96349        0.234226        0.192475 
        1.96964        0.232448        0.191045 
        1.97578        0.230891        0.189628 
        1.98192         0.22977        0.188229 
        1.98805        0.228458        0.186844 
        1.99419        0.226306        0.185473 
        2.00033         0.22482        0.184115 
        2.00647        0.223983        0.182771 
         2.0126        0.221921        0.181443 
        2.01874        0.220839        0.180126 
        2.02488        0.219269        0.178821 
        2.03101        0.217845        0.177531 
        2.03714        0.216298        0.176256 
        2.04328        0.215163        0.174991 
        2.04941        0.213504         0.17374 
        2.05554        0.212382        0.172502 
        2.06167        0.211261        0.171275 
        2.06781        0.209361         0.17006 
        2.07396        0.208047        0.168854 
        2.08009        0.206741        0.167663 
        2.08622        0.205729        0.166484 
        2.09237        0.204622        0.165315 
        2.09851         0.20332        0.164156 
        2.10464        0.201988        0.163011 
        2.11077        0.200421        0.161878 
        2.11691        0.199307        0.160753 
        2.12305        0.198028        0.159639 
        2.12918        0.197006        0.158539 
        2.13531        0.195595        0.157448 
        2.14145         0.19425        0.156366 
         2.1476        0.193248        0.155292 
        2.15372        0.192394        0.154234 
        2.15985        0.190872        0.153185 
        2.16599        0.189586        0.152142 
        2.17213        0.188689         0.15111 
        2.17827        0.187329        0.150089 
         2.1844        0.186492        0.149077 
        2.19054        0.185277        0.148075 
        2.19666        0.183721        0.147083 
         2.2028        0.183056          0.1461 
        2.20893        0.182222        0.145125 
        2.21508        0.180575        0.144158 
        2.22122         0.17961          0.1432 
        2.22736        0.178904        0.142252 
        2.23349        0.177634        0.141313 
        2.23962        0.176784        0.140382 
        2.24577        0.175476        0.139459 
         2.2519        0.174763        0.138545 
        2.25802        0.173475        0.137641 
        2.26417        0.172664        0.136743 
        2.27031          0.1715        0.135852 
        2.27644        0.170587        0.134972 
        2.28257        0.169583        0.134099 
        2.28872        0.168702        0.133232 
        2.29486        0.167842        0.132374 
        2.30099        0.166734        0.131524 
        2.30712        0.165888        0.130682 
        2.31326         0.16455        0.129846 
         2.3194        0.164459        0.129017 
        2.32553        0.163351        0.128198 
        2.33166        0.162511        0.127385 
         2.3378        0.161423        0.126579 
        2.34394        0.160442         0.12578 
        2.35007         0.15956        0.124988 
        2.35619        0.158468        0.124205 
        2.36233        0.157686        0.123426 
        2.36848        0.157072        0.122652 
        2.37462        0.155872        0.121887 
        2.38075        0.155392        0.121129 
        2.38689        0.154424        0.120377 
        2.39303        0.153901        0.119631 
        2.39916        0.152603        0.118892 
        2.40529        0.152033         0.11816 
        2.41143        0.151087        0.117434 
        2.41757        0.150223        0.116713 
         2.4237        0.149665        0.115999 
        2.42983        0.148664        0.115292 
        2.43598        0.148251        0.114589 
        2.44211        0.147169        0.113893 
        2.44823        0.146738        0.113204 
        2.45437        0.145474        0.112519 
        2.46052        0.145024        0.111839 
        2.46665        0.144117        0.111166 
        2.47279        0.143273        0.110499 
        2.47892          0.1424        0.109837 
        2.48507        0.141681        0.109179 
         2.4912        0.141135        0.108529 
