# k  (h/Mpc)    Pcb(k)  (Mpc/h)^3    Pcb_linear(k)  (Mpc/h)^3
     0.00783031         653.546         659.532 
       0.013688         841.697         843.592 
       0.019231         876.622         876.996 
      0.0249154         827.409         831.476 
      0.0312784         740.238          740.89 
      0.0375637         650.821         649.539 
      0.0433917         579.426         580.191 
      0.0492413         528.987         528.577 
      0.0555754         486.347         488.209 
      0.0619321          456.94         455.494 
       0.067871         423.891          425.19 
      0.0738098          390.43         391.821 
      0.0800417         351.885         353.874 
      0.0862327         315.593         316.316 
      0.0921407         283.997         284.071 
      0.0982031         256.462         257.029 
       0.104506         237.003         236.018 
       0.110769         221.767         221.094 
       0.116806         209.657         210.134 
       0.122832         200.504         200.245 
       0.129052         188.725         189.342 
       0.135211           176.5         177.127 
       0.141259         164.329         164.141 
       0.147318         152.021         151.189 
       0.153489         139.643         139.212 
       0.159709         129.789         129.182 
       0.165845         122.963         121.483 
       0.171974         116.181          115.61 
       0.178125         111.516         110.842 
       0.184229         107.383         106.472 
        0.19034         101.934         101.884 
       0.196428         97.5444         96.8576 
       0.202534         92.8304         91.4547 
       0.208729         86.9925         85.9337 
       0.214876         81.5299         80.8039 
       0.220989         77.8351          76.332 
       0.227147         73.3694         72.5707 
        0.23329          70.326         69.4873 
       0.239377          67.915         66.8909 
       0.245482          65.091         64.5021 
       0.251667         63.2213         62.0955 
       0.257832          60.636         59.5954 
       0.263955         58.1102         57.0089 
       0.270079         55.5907         54.4022 
        0.27624         53.4811          51.878 
       0.282372         51.1589          49.568 
        0.28843         48.9142         47.5386 
       0.294538         47.1086         45.7431 
       0.300721         45.7955         44.1335 
        0.30691         43.9869         42.6519 
       0.313033         42.6213         41.2429 
       0.319153         40.7761         39.8397 
       0.325316          39.943         38.4178 
        0.33145         38.4237         37.0054 
       0.337538         37.1318         35.6394 
       0.343633         35.7383         34.3403 
       0.349808         34.6342         33.1188 
       0.355968         33.5322         32.0025 
       0.362074         32.4666         30.9862 
       0.368217         31.5402         30.0351 
       0.374374         30.5028         29.1275 
       0.380519         29.7411         28.2484 
       0.386598         28.9296         27.3938 
       0.392688         28.1901         26.5507 
        0.39888         27.3006         25.7146 
       0.405048         26.5665         24.9118 
       0.411186         25.8607         24.1511 
       0.417313         24.9939         23.4355 
       0.423458          24.371         22.7599 
       0.429607         23.6669         22.1209 
       0.435692         23.0125          21.519 
       0.441815         22.4989         20.9356 
       0.447964          22.071         20.3665 
       0.454126         21.3076         19.8113 
       0.460267         20.8238         19.2732 
       0.466387         20.2007          18.753 
        0.47254         19.8131          18.249 
       0.478662         19.3931         17.7687 
       0.484765         18.8436          17.311 
       0.490885         18.3893         16.8716 
       0.497035         18.1268         16.4481 
       0.503198          17.644           16.04 
       0.509342         17.2306         15.6466 
       0.515458          16.817         15.2663 
       0.521598         16.4852         14.8954 
       0.527764         16.0821         14.5343 
       0.533884         15.7997         14.1873 
           0.54         15.4446         13.8522 
       0.546137         15.1463         13.5274 
       0.552299         14.8505         13.2128 
       0.558452         14.4157         12.9101 
       0.564573         14.2109         12.6191 
       0.570708         13.9297         12.3368 
       0.576825         13.5774         12.0638 
       0.582926         13.3503         11.7992 
       0.589034          12.976         11.5419 
       0.595184         12.7753         11.2905 
       0.601379         12.5067         11.0449 
       0.607522         12.3234         10.8089 
       0.613639         12.1551         10.5809 
       0.619772         11.8312         10.3592 
       0.625918         11.7009         10.1436 
       0.632068         11.5111         9.93436 
       0.638161         11.2398         9.73303 
         0.6443         11.0126         9.53594 
       0.650464         10.7894         9.34364 
       0.656582         10.6836           9.158 
       0.662703         10.4881         8.97729 
       0.668861         10.3106         8.80041 
       0.675024         10.0994         8.62819 
       0.681124         9.91822         8.46238 
       0.687237         9.77651         8.30071 
       0.693381         9.63179         8.14265 
       0.699536         9.37437         7.98854 
       0.705665         9.26119         7.83919 
       0.711789         9.11635         7.69386 
       0.717957         8.95914         7.55126 
        0.72409         8.81096          7.4131 
       0.730186          8.6838         7.27924 
       0.736317         8.59592         7.14798 
       0.742472         8.45642         7.01949 
       0.748622         8.30679          6.8943 
        0.75476         8.13225         6.77247 
       0.760888          8.0359         6.65381 
       0.767043         7.94134         6.53757 
       0.773185         7.77916         6.42439 
       0.779291         7.70334         6.31457 
       0.785407         7.57821          6.2072 
       0.791564         7.46215         6.10169 
       0.797719         7.35101         5.99872 
       0.803834         7.27499         5.89881 
       0.809972         7.18737         5.80084 
       0.816124         7.04451         5.70491 
       0.822261         6.93338         5.61143 
       0.828378         6.85227         5.52036 
       0.834502          6.7874         5.43125 
       0.840667         6.65386         5.34356 
       0.846816         6.55235         5.25808 
       0.852925         6.49577         5.17503 
       0.859047         6.40767         5.09362 
       0.865192         6.33887         5.01372 
       0.871341         6.26203         4.93549 
       0.877463         6.17656         4.85932 
       0.883569         6.06897         4.78496 
       0.889708         5.97553          4.7118 
       0.895864         5.92122            4.64 
       0.902008         5.83777         4.56986 
       0.908149         5.77498         4.50123 
       0.914301         5.67705         4.43392 
       0.920448         5.60591         4.36806 
       0.926574         5.53128         4.30378 
       0.932687         5.48089         4.24095 
       0.938823         5.41604         4.17916 
       0.944975         5.34273         4.11847 
       0.951105         5.28897         4.05922 
       0.957225          5.2568         4.00125 
       0.963368         5.17935         3.94422 
       0.969511         5.11143         3.88832 
       0.975621         5.03793         3.83381 
       0.981748         4.99244         3.78021 
       0.987916         4.93589         3.72732 
        0.99406         4.85579         3.67564 
        1.00019         4.80318         3.62505 
        1.00632         4.76228         3.57547 
        1.01246         4.71018         3.52676 
        1.01859         4.65422         3.47904 
        1.02471          4.5989         3.43227 
        1.03085         4.55201         3.38621 
        1.03698         4.49167         3.34109 
        1.04314         4.45344         3.29662 
        1.04929         4.39561         3.25307 
        1.05541          4.3489         3.21049 
        1.06154         4.30661         3.16857 
        1.06769         4.27374         3.12734 
        1.07382         4.21298           3.087 
        1.07993         4.15867         3.04746 
        1.08607         4.13734         3.00846 
        1.09222         4.08776         2.97011 
        1.09836         4.05542         2.93248 
        1.10449         4.00858         2.89555 
        1.11063         3.96296         2.85922 
        1.11677         3.92496         2.82354 
         1.1229         3.88427         2.78853 
        1.12903         3.84012          2.7541 
        1.13518         3.80971         2.72022 
        1.14131         3.75674         2.68693 
        1.14745         3.70487         2.65423 
        1.15359         3.68964         2.62207 
        1.15973         3.63988         2.59043 
        1.16584         3.61944         2.55946 
        1.17197         3.58109         2.52896 
        1.17811         3.54853         2.49887 
        1.18424         3.52522         2.46936 
        1.19038         3.48662         2.44024 
        1.19652          3.4522         2.41161 
        1.20267         3.42154         2.38344 
        1.20881          3.3834         2.35573 
        1.21495           3.359         2.32851 
        1.22108         3.32686         2.30172 
         1.2272         3.30764         2.27543 
        1.23334         3.26416         2.24948 
        1.23949           3.231         2.22388 
        1.24562         3.21429         2.19876 
        1.25174         3.17438         2.17406 
        1.25789         3.15128         2.14967 
        1.26402         3.11473         2.12571 
        1.27014         3.08648         2.10216 
        1.27628         3.07474         2.07891 
        1.28244         3.03303         2.05597 
        1.28858         3.01483         2.03341 
        1.29471         2.98447         2.01124 
        1.30084         2.95591         1.98942 
        1.30697         2.94331          1.9679 
        1.31312         2.89472         1.94666 
        1.31925         2.88461         1.92581 
        1.32537         2.85994         1.90529 
        1.33151         2.83992         1.88499 
        1.33765         2.80547         1.86501 
        1.34378         2.78122         1.84536 
        1.34992         2.77292         1.82598 
        1.35606         2.73424         1.80683 
         1.3622         2.72243           1.788 
        1.36833         2.69786         1.76949 
        1.37445         2.67276         1.75125 
        1.38059         2.65519         1.73321 
        1.38675         2.64393         1.71538 
        1.39288         2.61053         1.69788 
        1.39901         2.58821         1.68063 
        1.40515         2.57051         1.66358 
         1.4113         2.55096         1.64678 
        1.41742         2.53205         1.63028 
        1.42355         2.52049         1.61397 
         1.4297          2.4886         1.59784 
        1.43585         2.47714         1.58194 
        1.44198         2.46308         1.56632 
        1.44809         2.43095         1.55093 
        1.45423         2.41492          1.5357 
        1.46036         2.39736         1.52071 
        1.46649         2.37693          1.5059 
        1.47263          2.3582         1.49129 
        1.47877         2.33662         1.47688 
        1.48491         2.32084         1.46263 
        1.49104          2.3083         1.44861 
        1.49718         2.29356         1.43476 
        1.50333         2.27329         1.42107 
        1.50947         2.26035         1.40759 
         1.5156         2.24202          1.3943 
        1.52172         2.22563         1.38119 
        1.52787          2.2076         1.36822 
          1.534         2.19619         1.35543 
        1.54013         2.17552         1.34282 
        1.54627         2.15675         1.33035 
        1.55241         2.14141         1.31804 
        1.55855         2.13051          1.3059 
        1.56467         2.11659         1.29395 
         1.5708         2.09357         1.28211 
        1.57695         2.08629         1.27041 
        1.58308         2.07081         1.25888 
        1.58922          2.0579         1.24749 
        1.59535         2.04304         1.23624 
         1.6015         2.02946         1.22512 
        1.60764         2.01776         1.21414 
        1.61376         2.00235         1.20332 
        1.61989         1.98769         1.19263 
        1.62604          1.9728         1.18205 
        1.63218         1.96677          1.1716 
        1.63831         1.94486         1.16131 
        1.64444         1.93232         1.15113 
        1.65059         1.92412         1.14105 
        1.65673         1.90937         1.13111 
        1.66285         1.89443         1.12131 
        1.66898          1.8868         1.11163 
        1.67512         1.86895         1.10204 
        1.68127         1.85813         1.09256 
         1.6874         1.85022         1.08321 
        1.69353         1.83076         1.07397 
        1.69967         1.82035         1.06483 
        1.70581         1.81555         1.05579 
        1.71193         1.79958         1.04689 
        1.71806         1.79225         1.03808 
        1.72421         1.77854         1.02935 
        1.73035         1.76575         1.02074 
        1.73649         1.75592         1.01222 
        1.74262          1.7451         1.00381 
        1.74876         1.73557        0.995487 
        1.75489         1.71989        0.987278 
        1.76101         1.71057        0.979164 
        1.76715         1.70114        0.971131 
        1.77329           1.691        0.963179 
        1.77943         1.67827        0.955313 
        1.78557         1.66822        0.947547 
        1.79171         1.66256        0.939866 
        1.79785         1.64926         0.93227 
        1.80399         1.64095        0.924759 
        1.81012         1.63383        0.917342 
        1.81625          1.6195         0.91001 
        1.82239         1.61059        0.902748 
        1.82853         1.59528        0.895569 
        1.83466         1.59121        0.888475 
        1.84078         1.58053        0.881466 
        1.84692         1.57408        0.874522 
        1.85306         1.56225        0.867644 
         1.8592         1.55546        0.860852 
        1.86533         1.54459        0.854136 
        1.87147         1.53751        0.847485 
        1.87761         1.52834        0.840902 
        1.88375         1.51433        0.834397 
        1.88988         1.51117        0.827968 
        1.89601         1.49974        0.821604 
        1.90215          1.4904        0.815302 
        1.90829         1.48157         0.80907 
        1.91442         1.47317        0.802902 
        1.92056         1.46627        0.796805 
         1.9267         1.45812        0.790765 
        1.93284         1.45228        0.784785 
        1.93897         1.44286        0.778878 
        1.94509         1.43322        0.773045 
        1.95123          1.4239        0.767257 
        1.95737         1.41735        0.761525 
        1.96349         1.40854        0.755866 
        1.96964         1.40246        0.750249 
        1.97578         1.39439        0.744686 
        1.98192         1.38914        0.739192 
        1.98805         1.37756        0.733752 
        1.99419         1.37302        0.728368 
        2.00033         1.36899        0.723035 
        2.00647         1.35637        0.717757 
         2.0126           1.352        0.712541 
        2.01874         1.34315        0.707369 
        2.02488         1.33707        0.702244 
        2.03101         1.32697         0.69718 
        2.03714         1.31816         0.69217 
        2.04328         1.31603        0.687205 
        2.04941         1.30647        0.682292 
        2.05554          1.3012        0.677431 
        2.06167         1.29258        0.672612 
        2.06781         1.28677        0.667838 
        2.07396         1.27854        0.663105 
        2.08009          1.2733        0.658426 
        2.08622          1.2646        0.653797 
        2.09237         1.26336        0.649204 
        2.09851          1.2559        0.644655 
        2.10464         1.25008        0.640157 
        2.11077         1.24134        0.635708 
        2.11691         1.23377        0.631291 
        2.12305         1.22971        0.626916 
        2.12918         1.22257        0.622594 
        2.13531         1.21746        0.618312 
        2.14145         1.20955         0.61406 
         2.1476         1.20331        0.609844 
        2.15372         1.19873        0.605689 
        2.15985         1.19139        0.601568 
        2.16599         1.18492        0.597474 
        2.17213         1.17985        0.593423 
        2.17827         1.17642         0.58941 
         2.1844         1.17032        0.585439 
        2.19054         1.16611        0.581503 
        2.19666         1.15814        0.577608 
         2.2028          1.1529        0.573746 
        2.20893         1.14547        0.569918 
        2.21508         1.14328        0.566121 
        2.22122         1.13372        0.562357 
        2.22736         1.12802        0.558635 
        2.23349         1.12799        0.554948 
        2.23962         1.11901        0.551292 
        2.24577         1.11293        0.547667 
         2.2519          1.1078        0.544079 
        2.25802         1.10464        0.540529 
        2.26417         1.09606        0.537001 
        2.27031         1.09325        0.533502 
        2.27644         1.08802        0.530044 
        2.28257         1.08346        0.526617 
        2.28872          1.0772        0.523214 
        2.29486         1.07348        0.519842 
        2.30099         1.06682        0.516507 
        2.30712         1.06314        0.513199 
        2.31326         1.05923        0.509915 
         2.3194          1.0546        0.506662 
        2.32553         1.04982        0.503443 
        2.33166         1.04377        0.500253 
         2.3378         1.03831        0.497087 
        2.34394         1.03224        0.493947 
        2.35007         1.02857        0.490839 
        2.35619         1.02591        0.487761 
        2.36233         1.01861        0.484703 
        2.36848         1.01576        0.481665 
        2.37462         1.01042        0.478659 
        2.38075         1.00787        0.475682 
        2.38689         1.00203        0.472728 
        2.39303        0.999022          0.4698 
        2.39916        0.991616          0.4669 
        2.40529        0.990435        0.464024 
        2.41143        0.985254        0.461171 
        2.41757        0.980269        0.458341 
         2.4237        0.976862        0.455539 
        2.42983        0.972276        0.452762 
        2.43598        0.968352            0.45 
        2.44211        0.964351        0.447266 
        2.44823        0.959798        0.444561 
        2.45437        0.956166        0.441871 
        2.46052        0.953911        0.439201 
        2.46665        0.948639        0.436558 
        2.47279        0.944149        0.433938 
        2.47892        0.938909        0.431338 
        2.48507        0.935903        0.428756 
         2.4912        0.931603        0.426201 
