# k  (h/Mpc)    Pcb(k)  (Mpc/h)^3    Pcb_linear(k)  (Mpc/h)^3
     0.00783031          3609.2         3648.65 
       0.013688         4675.12          4665.4 
       0.019231         4851.72         4848.56 
      0.0249154          4548.9         4595.63 
      0.0312784         4078.11         4094.12 
      0.0375637         3593.92         3588.92 
      0.0433917          3181.7         3205.55 
      0.0492413         2913.28         2920.25 
      0.0555754         2660.21         2697.11 
      0.0619321         2523.82         2516.29 
       0.067871         2321.38         2348.83 
      0.0738098         2137.53         2164.46 
      0.0800417         1919.55         1954.81 
      0.0862327         1728.57         1747.31 
      0.0921407         1563.27         1569.18 
      0.0982031         1408.49         1419.79 
       0.104506         1314.13         1303.72 
       0.110769         1228.28         1221.27 
       0.116806         1157.19         1160.73 
       0.122832         1109.13          1106.1 
       0.129052         1037.12         1045.87 
       0.135211         972.301         978.393 
       0.141259         912.157         906.663 
       0.147318         847.927         835.116 
       0.153489         777.373         768.955 
       0.159709         728.255         713.556 
       0.165845         695.549         671.027 
       0.171974         655.813         638.585 
       0.178125         629.318         612.248 
       0.184229         606.944         588.106 
        0.19034         570.048         562.763 
       0.196428         552.804         535.001 
       0.202534         530.242         505.157 
       0.208729         498.581         474.662 
       0.214876         468.021         446.326 
       0.220989         451.514         421.625 
       0.227147          425.32         400.849 
        0.23329         408.998         383.817 
       0.239377          398.56         369.476 
       0.245482         376.063         356.281 
       0.251667         369.965         342.988 
       0.257832         356.711         329.178 
       0.263955         342.666         314.891 
       0.270079         329.447         300.493 
        0.27624         321.656          286.55 
       0.282372         308.223         273.791 
        0.28843         296.677         262.581 
       0.294538         284.884         252.664 
       0.300721         280.839         243.773 
        0.30691         268.568         235.589 
       0.313033         261.742         227.806 
       0.319153         250.758         220.056 
       0.325316         245.395         212.202 
        0.33145         236.835           204.4 
       0.337538         232.514         196.855 
       0.343633         224.598         189.679 
       0.349808         217.787         182.933 
       0.355968         213.235         176.766 
       0.362074         207.195         171.153 
       0.368217         201.801           165.9 
       0.374374         195.946         160.886 
       0.380519          191.74          156.03 
       0.386598         186.801          151.31 
       0.392688         183.739         146.653 
        0.39888         178.847         142.035 
       0.405048         174.874         137.601 
       0.411186         171.054         133.399 
       0.417313         166.703         129.446 
       0.423458         163.195         125.714 
       0.429607         159.196         122.185 
       0.435692         154.198         118.861 
       0.441815          153.03         115.638 
       0.447964         150.587         112.494 
       0.454126         144.157         109.428 
       0.460267         142.413         106.455 
       0.466387         139.836         103.582 
        0.47254         137.429         100.799 
       0.478662           135.6         98.1457 
       0.484765         132.048         95.6175 
       0.490885         129.692         93.1904 
       0.497035          128.08         90.8515 
       0.503198         124.656         88.5969 
       0.509342         122.161         86.4239 
       0.515458         120.405         84.3235 
       0.521598         118.904         82.2751 
       0.527764          116.94         80.2803 
       0.533884         114.955         78.3638 
           0.54          112.98         76.5127 
       0.546137         111.866         74.7187 
       0.552299         110.238         72.9812 
       0.558452         107.494         71.3088 
       0.564573         105.602         69.7019 
       0.570708         104.474         68.1426 
       0.576825          102.69         66.6343 
       0.582926         100.873         65.1729 
       0.589034         98.8038         63.7517 
       0.595184         97.7854          62.363 
       0.601379         96.7049         61.0067 
       0.607522         94.3447         59.7027 
       0.613639         94.2248         58.4436 
       0.619772          91.941          57.219 
       0.625918         91.3222         56.0284 
       0.632068         90.1316         54.8725 
       0.638161         88.8887         53.7604 
         0.6443         87.6032         52.6718 
       0.650464         86.4219         51.6096 
       0.656582         85.5898         50.5842 
       0.662703         83.9085         49.5861 
       0.668861         83.0725         48.6091 
       0.675024         81.9992         47.6578 
       0.681124         80.8294          46.742 
       0.687237         79.5132          45.849 
       0.693381           78.84         44.9759 
       0.699536         77.5587         44.1247 
       0.705665          77.925         43.2998 
       0.711789         75.8671          42.497 
       0.717957         75.3307         41.7094 
        0.72409         74.2788         40.9463 
       0.730186         73.1233         40.2069 
       0.736317         72.9037         39.4819 
       0.742472         71.7965         38.7721 
       0.748622         71.2685         38.0807 
        0.75476          70.393         37.4077 
       0.760888         69.4378         36.7523 
       0.767043         68.7542         36.1102 
       0.773185          67.902         35.4851 
       0.779291         67.5449         34.8785 
       0.785407         66.8975         34.2855 
       0.791564         65.8817         33.7027 
       0.797719         64.9252         33.1339 
       0.803834         64.7824         32.5821 
       0.809972         63.7636         32.0409 
       0.816124         62.9287         31.5111 
       0.822261         62.6124         30.9948 
       0.828378         62.0749         30.4917 
       0.834502         61.3608         29.9995 
       0.840667         60.8851         29.5152 
       0.846816         60.0946          29.043 
       0.852925         59.5834         28.5843 
       0.859047         58.8104         28.1346 
       0.865192         58.5593         27.6933 
       0.871341         58.2305         27.2612 
       0.877463         57.0986         26.8404 
       0.883569         56.7645         26.4297 
       0.889708          56.449         26.0256 
       0.895864         55.9152          25.629 
       0.902008         55.4595         25.2416 
       0.908149          54.995         24.8626 
       0.914301         54.6721         24.4907 
       0.920448         53.8787          24.127 
       0.926574         53.5944         23.7719 
       0.932687          53.102         23.4249 
       0.938823         52.3699         23.0836 
       0.944975         52.2397         22.7484 
       0.951105         51.7564         22.4211 
       0.957225         51.1356         22.1009 
       0.963368         50.9837         21.7859 
       0.969511         50.6028         21.4771 
       0.975621         50.1994          21.176 
       0.981748         49.5922           20.88 
       0.987916         49.3775         20.5878 
        0.99406         49.0395         20.3024 
        1.00019         48.3986          20.023 
        1.00632         48.2297         19.7491 
        1.01246         47.8313           19.48 
        1.01859         47.2737         19.2164 
        1.02471         47.3217         18.9581 
        1.03085         46.8216         18.7037 
        1.03698         46.2498         18.4545 
        1.04314         45.8613         18.2089 
        1.04929          45.683         17.9683 
        1.05541         45.1787         17.7331 
        1.06154         45.0737         17.5016 
        1.06769         44.6915         17.2739 
        1.07382          44.375          17.051 
        1.07993         44.2384         16.8326 
        1.08607         43.6864         16.6172 
        1.09222          43.557         16.4054 
        1.09836         43.1072         16.1975 
        1.10449         42.9024         15.9936 
        1.11063         42.3467         15.7929 
        1.11677         42.2134         15.5958 
         1.1229         42.0845         15.4025 
        1.12903         41.5182         15.2122 
        1.13518         41.3588         15.0251 
        1.14131         41.2791         14.8413 
        1.14745          40.842         14.6606 
        1.15359         40.7035          14.483 
        1.15973         40.2416         14.3082 
        1.16584          39.929         14.1372 
        1.17197         39.9624         13.9687 
        1.17811         39.4827         13.8025 
        1.18424         39.1518         13.6395 
        1.19038         39.1216         13.4787 
        1.19652         38.8679         13.3205 
        1.20267         38.5992         13.1649 
        1.20881         38.3349         13.0119 
        1.21495         38.0558         12.8615 
        1.22108         37.8193         12.7136 
         1.2272         37.4295         12.5683 
        1.23334         37.3228          12.425 
        1.23949         37.1068         12.2836 
        1.24562          36.961         12.1448 
        1.25174         36.7585         12.0084 
        1.25789         36.5162         11.8737 
        1.26402         36.3337         11.7413 
        1.27014         35.9817         11.6113 
        1.27628         35.7816         11.4829 
        1.28244         35.6243         11.3561 
        1.28858         35.4843         11.2315 
        1.29471         35.2423         11.1091 
        1.30084         35.0333         10.9885 
        1.30697         34.7807         10.8697 
        1.31312         34.4919         10.7524 
        1.31925         34.3999         10.6372 
        1.32537         34.2581         10.5239 
        1.33151         33.9873         10.4118 
        1.33765         33.9224         10.3014 
        1.34378         33.7655         10.1928 
        1.34992         33.2847         10.0858 
        1.35606         33.2278         9.98004 
         1.3622         33.0409         9.87603 
        1.36833          32.862         9.77376 
        1.37445         32.8309           9.673 
        1.38059         32.6368         9.57336 
        1.38675         32.3192          9.4749 
        1.39288         32.2374         9.37823 
        1.39901         31.9699         9.28296 
        1.40515         31.8484          9.1888 
         1.4113         31.7121           9.096 
        1.41742         31.3981         9.00484 
        1.42355         31.3716         8.91477 
         1.4297         31.1663         8.82567 
        1.43585         31.1186         8.73783 
        1.44198         30.7934         8.65153 
        1.44809         30.7083         8.56657 
        1.45423          30.589         8.48244 
        1.46036         30.4801         8.39961 
        1.46649         30.2617         8.31785 
        1.47263         30.0833         8.23713 
        1.47877         29.9636         8.15752 
        1.48491         29.7865         8.07885 
        1.49104         29.7474         8.00138 
        1.49718         29.4673         7.92488 
        1.50333         29.3859         7.84927 
        1.50947         29.2712          7.7748 
         1.5156         29.0479         7.70141 
        1.52172         28.8352         7.62898 
        1.52787         28.8467         7.55734 
          1.534         28.6278         7.48671 
        1.54013         28.4193         7.41706 
        1.54627         28.3837         7.34818 
        1.55241         28.1818         7.28017 
        1.55855         28.0613         7.21313 
        1.56467         27.9696         7.14711 
         1.5708         27.8436         7.08175 
        1.57695         27.5716         7.01711 
        1.58308         27.6352         6.95343 
        1.58922         27.4296          6.8905 
        1.59535         27.2526         6.82837 
         1.6015         27.1457         6.76694 
        1.60764         27.0899         6.70629 
        1.61376         26.9364         6.64656 
        1.61989         26.6942         6.58751 
        1.62604         26.6828         6.52905 
        1.63218         26.4918         6.47134 
        1.63831         26.4384         6.41447 
        1.64444          26.262         6.35826 
        1.65059         26.1395          6.3026 
        1.65673         26.0552         6.24767 
        1.66285         25.9118         6.19355 
        1.66898         25.8107         6.14006 
        1.67512          25.718          6.0871 
        1.68127         25.5261         6.03473 
         1.6874         25.4362         5.98309 
        1.69353         25.4043         5.93208 
        1.69967         25.1842         5.88156 
        1.70581          25.073         5.83165 
        1.71193         24.9376         5.78251 
        1.71806         24.8875         5.73383 
        1.72421         24.7679         5.68562 
        1.73035         24.6902         5.63803 
        1.73649         24.5199         5.59099 
        1.74262         24.4792         5.54453 
        1.74876         24.3361         5.49857 
        1.75489         24.2246         5.45322 
        1.76101         24.1357         5.40841 
        1.76715         24.0696         5.36404 
        1.77329         23.9606         5.32011 
        1.77943         23.8204         5.27666 
        1.78557         23.7226         5.23377 
        1.79171         23.6602         5.19135 
        1.79785         23.5102         5.14939 
        1.80399           23.42          5.1079 
        1.81012         23.3482         5.06694 
        1.81625         23.2315         5.02644 
        1.82239         23.1764         4.98632 
        1.82853         22.9856         4.94667 
        1.83466         22.9091         4.90749 
        1.84078         22.7534         4.86877 
        1.84692         22.7528         4.83042 
        1.85306         22.6067         4.79243 
         1.8592         22.5501         4.75491 
        1.86533          22.444         4.71782 
        1.87147         22.3449         4.68108 
        1.87761          22.306         4.64472 
        1.88375         22.1347         4.60879 
        1.88988         22.1113         4.57328 
        1.89601         21.9874         4.53813 
        1.90215         21.8809         4.50332 
        1.90829         21.8369         4.46889 
        1.91442         21.7192         4.43483 
        1.92056         21.6427         4.40115 
         1.9267         21.5683         4.36779 
        1.93284         21.4444         4.33475 
        1.93897         21.3727         4.30213 
        1.94509         21.2899         4.26991 
        1.95123          21.183         4.23794 
        1.95737         21.0896         4.20628 
        1.96349         21.0232         4.17502 
        1.96964         20.9199         4.14399 
        1.97578         20.8666         4.11327 
        1.98192         20.7298         4.08292 
        1.98805         20.6892         4.05288 
        1.99419         20.5899         4.02313 
        2.00033         20.5066         3.99368 
        2.00647         20.4566         3.96453 
         2.0126         20.2867         3.93571 
        2.01874         20.2485         3.90715 
        2.02488          20.176         3.87884 
        2.03101         20.1557         3.85087 
        2.03714         20.0355          3.8232 
        2.04328         19.9228         3.79577 
        2.04941         19.8495         3.76864 
        2.05554          19.842         3.74179 
        2.06167         19.7453         3.71517 
        2.06781         19.6543          3.6888 
        2.07396         19.5702         3.66266 
        2.08009         19.4994         3.63681 
        2.08622         19.4184         3.61125 
        2.09237         19.3479         3.58588 
        2.09851         19.2545         3.56075 
        2.10464         19.1897          3.5359 
        2.11077         19.1068         3.51133 
        2.11691         19.0547         3.48693 
        2.12305         18.9443         3.46277 
        2.12918         18.8878         3.43889 
        2.13531         18.8271         3.41524 
        2.14145         18.7324         3.39176 
         2.1476         18.6708         3.36847 
        2.15372         18.6206         3.34552 
        2.15985         18.5015         3.32276 
        2.16599         18.4723         3.30014 
        2.17213         18.4195         3.27777 
        2.17827          18.347          3.2556 
         2.1844         18.2727         3.23367 
        2.19054         18.1805         3.21193 
        2.19666         18.1312         3.19042 
         2.2028         18.0687         3.16908 
        2.20893         17.9712         3.14794 
        2.21508         17.9329         3.12696 
        2.22122         17.8243         3.10617 
        2.22736         17.7655         3.08562 
        2.23349          17.694         3.06525 
        2.23962         17.6492         3.04506 
        2.24577         17.5575         3.02503 
         2.2519         17.5257         3.00522 
        2.25802         17.4634         2.98561 
        2.26417         17.3961         2.96612 
        2.27031         17.3333         2.94679 
        2.27644         17.2634         2.92769 
        2.28257         17.2004         2.90877 
        2.28872         17.1231         2.88997 
        2.29486         17.1007         2.87134 
        2.30099         17.0212         2.85292 
        2.30712         16.9669         2.83465 
        2.31326         16.9036         2.81651 
         2.3194         16.7986         2.79855 
        2.32553         16.7753         2.78076 
        2.33166         16.6655         2.76315 
         2.3378         16.6327         2.74566 
        2.34394         16.5572         2.72831 
        2.35007         16.4813         2.71115 
        2.35619         16.4462         2.69415 
        2.36233         16.3775         2.67725 
        2.36848         16.3591         2.66047 
        2.37462         16.3077         2.64387 
        2.38075         16.2144         2.62743 
        2.38689         16.1714         2.61111 
        2.39303         16.1154         2.59494 
        2.39916          16.044         2.57892 
        2.40529         15.9998         2.56304 
        2.41143         15.9301         2.54728 
        2.41757         15.8933         2.53164 
         2.4237         15.8007         2.51617 
        2.42983         15.7686         2.50083 
        2.43598          15.709         2.48557 
        2.44211         15.6268         2.47047 
        2.44823         15.5807         2.45553 
        2.45437         15.5582         2.44067 
        2.46052         15.5072         2.42593 
        2.46665          15.421         2.41133 
        2.47279         15.3801         2.39685 
        2.47892         15.3218         2.38249 
        2.48507         15.2783         2.36823 
         2.4912         15.2308         2.35412 
