# k  (h/Mpc)    Pcb(k)  (Mpc/h)^3    Pcb_linear(k)  (Mpc/h)^3
     0.00783031         10225.5         10359.4 
       0.013688           13299         13211.3 
       0.019231         13732.3         13723.2 
      0.0249154         12766.7         13006.5 
      0.0312784         11466.6         11587.5 
      0.0375637         10134.5           10158 
      0.0433917         8905.66         9073.04 
      0.0492413          8183.1         8265.65 
      0.0555754         7398.79         7634.21 
      0.0619321         7095.11         7122.49 
       0.067871         6455.17         6648.53 
      0.0738098          5946.7          6126.7 
      0.0800417         5315.92          5533.3 
      0.0862327         4813.62         4945.99 
      0.0921407         4390.15         4441.78 
      0.0982031         3954.16         4018.93 
       0.104506         3729.59         3690.37 
       0.110769         3481.77         3457.01 
       0.116806         3283.57         3285.64 
       0.122832         3139.86            3131 
       0.129052         2915.66         2960.53 
       0.135211         2746.72         2769.53 
       0.141259         2602.79         2566.48 
       0.147318         2436.32         2363.96 
       0.153489          2233.6         2176.68 
       0.159709         2114.82         2019.86 
       0.165845         2040.18         1899.48 
       0.171974          1931.6         1807.64 
       0.178125         1846.67         1733.09 
       0.184229         1777.87         1664.76 
        0.19034         1670.33         1593.02 
       0.196428         1635.09         1514.43 
       0.202534         1572.05         1429.95 
       0.208729          1493.4         1343.63 
       0.214876         1420.82         1263.42 
       0.220989         1376.66          1193.5 
       0.227147         1312.05         1134.69 
        0.23329         1264.11         1086.48 
       0.239377         1244.29         1045.88 
       0.245482         1166.61         1008.53 
       0.251667         1159.16           970.9 
       0.257832         1115.58         931.809 
       0.263955         1078.52         891.367 
       0.270079         1041.33         850.609 
        0.27624         1029.63         811.142 
       0.282372          985.83         775.024 
        0.28843         972.377         743.294 
       0.294538         925.373         715.219 
       0.300721          922.66         690.052 
        0.30691         883.148         666.886 
       0.313033         866.986         644.856 
       0.319153         847.337         622.916 
       0.325316         820.871         600.684 
        0.33145         800.435         578.599 
       0.337538         790.158          557.24 
       0.343633         767.929         536.929 
       0.349808         742.904          517.83 
       0.355968         738.769         500.375 
       0.362074         727.941         484.485 
       0.368217         707.713         469.615 
       0.374374         679.455         455.424 
       0.380519         677.481         441.678 
       0.386598         661.252         428.316 
       0.392688         658.914         415.134 
        0.39888         639.854         402.061 
       0.405048         629.201         389.509 
       0.411186         619.387         377.616 
       0.417313         607.716         366.426 
       0.423458         598.034         355.863 
       0.429607         587.681         345.873 
       0.435692         574.644         336.461 
       0.441815         571.279         327.339 
       0.447964         559.703         318.441 
       0.454126         547.562         309.761 
       0.460267         539.051         301.346 
       0.466387         533.396         293.213 
        0.47254         523.707         285.333 
       0.478662         522.572         277.823 
       0.484765         507.157         270.666 
       0.490885         502.856         263.796 
       0.497035         493.947         257.175 
       0.503198         487.354         250.793 
       0.509342         483.581         244.642 
       0.515458         479.568         238.696 
       0.521598         469.512         232.898 
       0.527764         460.521         227.251 
       0.533884          458.91         221.826 
           0.54         452.907         216.586 
       0.546137         451.363         211.508 
       0.552299         442.741         206.589 
       0.558452         440.516         201.855 
       0.564573         433.788         197.307 
       0.570708         427.543         192.893 
       0.576825         418.876         188.623 
       0.582926         417.756         184.486 
       0.589034          413.96         180.463 
       0.595184         410.271         176.532 
       0.601379         405.688         172.693 
       0.607522         399.541         169.002 
       0.613639         398.423         165.437 
       0.619772         388.477         161.971 
       0.625918         387.863         158.601 
       0.632068         382.395         155.328 
       0.638161         381.046          152.18 
         0.6443          374.27         149.099 
       0.650464         371.835         146.092 
       0.656582         370.594         143.189 
       0.662703         368.033         140.364 
       0.668861         361.655         137.598 
       0.675024         358.568         134.906 
       0.681124         356.806         132.313 
       0.687237         353.019         129.785 
       0.693381         348.342         127.314 
       0.699536         345.285         124.904 
       0.705665         343.046         122.569 
       0.711789         340.087         120.297 
       0.717957         337.654         118.067 
        0.72409         334.601         115.907 
       0.730186         331.363         113.814 
       0.736317          328.26         111.762 
       0.742472          327.12         109.753 
       0.748622         323.924         107.796 
        0.75476         321.077         105.891 
       0.760888         317.311         104.035 
       0.767043         317.637         102.218 
       0.773185         313.495         100.448 
       0.779291         308.704         98.7314 
       0.785407         307.987         97.0526 
       0.791564         304.836         95.4029 
       0.797719         302.438         93.7929 
       0.803834         300.576         92.2308 
       0.809972         298.754          90.699 
       0.816124         298.976         89.1991 
       0.822261         294.094         87.7375 
       0.828378          292.41         86.3135 
       0.834502         291.549         84.9203 
       0.840667         287.429         83.5492 
       0.846816         286.195         82.2126 
       0.852925         284.435         80.9141 
       0.859047         282.688         79.6412 
       0.865192         280.209         78.3918 
       0.871341         277.815         77.1688 
       0.877463         276.126         75.9777 
       0.883569         274.806         74.8151 
       0.889708         272.388         73.6712 
       0.895864         269.207         72.5486 
       0.902008         268.719         71.4519 
       0.908149         267.427         70.3789 
       0.914301         264.219         69.3264 
       0.920448         262.339         68.2966 
       0.926574         260.768         67.2916 
       0.932687         260.844         66.3092 
       0.938823         257.766         65.3431 
       0.944975         256.332         64.3942 
       0.951105         255.015         63.4678 
       0.957225          252.74         62.5614 
       0.963368         249.909         61.6698 
       0.969511         248.954         60.7957 
       0.975621         246.855         59.9434 
       0.981748          247.32         59.1054 
       0.987916         244.554         58.2783 
        0.99406         242.154         57.4703 
        1.00019         242.305         56.6794 
        1.00632         240.223         55.9042 
        1.01246         238.481         55.1425 
        1.01859         238.034         54.3964 
        1.02471         235.634         53.6651 
        1.03085         233.143         52.9449 
        1.03698         232.362         52.2396 
        1.04314         230.707         51.5442 
        1.04929         229.092         50.8633 
        1.05541         228.918         50.1975 
        1.06154         226.665         49.5421 
        1.06769         226.345         48.8975 
        1.07382         224.711         48.2666 
        1.07993         222.868         47.6484 
        1.08607         222.091         47.0386 
        1.09222         220.839          46.439 
        1.09836          218.89         45.8506 
        1.10449         216.985         45.2733 
        1.11063         215.383         44.7053 
        1.11677         215.233         44.1474 
         1.1229         213.446            43.6 
        1.12903         212.343         43.0616 
        1.13518         211.417         42.5318 
        1.14131         209.695         42.0114 
        1.14745         209.336         41.5001 
        1.15359         207.647         40.9972 
        1.15973         207.037         40.5026 
        1.16584         204.812         40.0184 
        1.17197         204.339         39.5415 
        1.17811         203.067          39.071 
        1.18424          201.92         38.6096 
        1.19038         201.339         38.1543 
        1.19652         199.917         37.7066 
        1.20267         199.186         37.2662 
        1.20881          197.39         36.8329 
        1.21495         196.562         36.4073 
        1.22108         195.769         35.9885 
         1.2272         194.051         35.5773 
        1.23334         193.281         35.1717 
        1.23949         191.866         34.7714 
        1.24562         191.223         34.3786 
        1.25174         188.927         33.9924 
        1.25789         188.275         33.6111 
        1.26402         187.497         33.2364 
        1.27014         186.279         32.8683 
        1.27628         185.491         32.5047 
        1.28244         185.032          32.146 
        1.28858         183.664         31.7932 
        1.29471          181.82         31.4466 
        1.30084         181.284         31.1055 
        1.30697         180.217         30.7689 
        1.31312         179.487         30.4369 
        1.31925         178.502         30.1109 
        1.32537         177.569           29.79 
        1.33151         175.987         29.4727 
        1.33765         175.589         29.1603 
        1.34378         174.479          28.853 
        1.34992          173.81           28.55 
        1.35606         173.111         28.2507 
         1.3622         171.937         27.9562 
        1.36833         170.658         27.6667 
        1.37445         169.621         27.3815 
        1.38059         169.129         27.0995 
        1.38675         168.023         26.8208 
        1.39288         167.409         26.5471 
        1.39901          167.09         26.2774 
        1.40515          165.68         26.0109 
         1.4113         164.175         25.7482 
        1.41742         163.785         25.4901 
        1.42355         162.618         25.2352 
         1.4297         161.891          24.983 
        1.43585         160.486         24.7343 
        1.44198         160.405           24.49 
        1.44809         159.329         24.2495 
        1.45423         158.174         24.0114 
        1.46036         157.673         23.7769 
        1.46649         156.765         23.5455 
        1.47263         156.152          23.317 
        1.47877         155.353         23.0916 
        1.48491         153.873         22.8689 
        1.49104         153.613         22.6496 
        1.49718          152.09         22.4331 
        1.50333         151.689          22.219 
        1.50947         151.088         22.0082 
         1.5156         150.132         21.8005 
        1.52172         149.222         21.5955 
        1.52787         148.546         21.3927 
          1.534         147.796         21.1927 
        1.54013         146.707         20.9956 
        1.54627         146.277         20.8006 
        1.55241         145.251         20.6081 
        1.55855         144.684         20.4183 
        1.56467         144.027         20.2315 
         1.5708         143.084         20.0464 
        1.57695         142.508         19.8634 
        1.58308         141.701         19.6832 
        1.58922         141.243          19.505 
        1.59535         140.193         19.3292 
         1.6015         139.699         19.1553 
        1.60764         138.884         18.9836 
        1.61376         138.461         18.8145 
        1.61989         137.392         18.6474 
        1.62604         136.897         18.4819 
        1.63218          136.15         18.3185 
        1.63831         135.215         18.1575 
        1.64444         134.847         17.9984 
        1.65059         134.185         17.8409 
        1.65673         132.956         17.6854 
        1.66285          132.92         17.5322 
        1.66898         132.012         17.3808 
        1.67512         131.433         17.2308 
        1.68127         130.561         17.0826 
         1.6874          129.51         16.9364 
        1.69353         129.135          16.792 
        1.69967         128.694          16.649 
        1.70581         127.932         16.5077 
        1.71193          127.46         16.3686 
        1.71806          126.61         16.2308 
        1.72421         125.998         16.0944 
        1.73035         125.436         15.9596 
        1.73649         124.643         15.8265 
        1.74262         124.096          15.695 
        1.74876         123.664         15.5648 
        1.75489         122.513         15.4365 
        1.76101         122.243         15.3096 
        1.76715         121.266          15.184 
        1.77329          121.08         15.0597 
        1.77943          120.17         14.9367 
        1.78557          119.71         14.8153 
        1.79171         118.992         14.6952 
        1.79785         118.421         14.5764 
        1.80399         117.859          14.459 
        1.81012         117.357          14.343 
        1.81625         116.596         14.2284 
        1.82239         116.344         14.1148 
        1.82853         115.822         14.0026 
        1.83466         114.927         13.8917 
        1.84078         114.736         13.7821 
        1.84692         113.758         13.6735 
        1.85306         113.138          13.566 
         1.8592         112.599         13.4598 
        1.86533         112.127         13.3548 
        1.87147         111.236         13.2508 
        1.87761         111.031         13.1478 
        1.88375         110.247         13.0461 
        1.88988         109.702         12.9456 
        1.89601         109.193         12.8461 
        1.90215         108.848         12.7476 
        1.90829         108.118         12.6501 
        1.91442         107.816         12.5537 
        1.92056          107.03         12.4584 
         1.9267         106.675         12.3639 
        1.93284         106.008         12.2704 
        1.93897         105.456         12.1781 
        1.94509         105.157         12.0869 
        1.95123         104.512         11.9964 
        1.95737         104.156         11.9067 
        1.96349         103.395         11.8183 
        1.96964         102.704         11.7304 
        1.97578         102.541         11.6435 
        1.98192         101.945         11.5575 
        1.98805         101.158         11.4725 
        1.99419         100.765         11.3883 
        2.00033         100.407         11.3049 
        2.00647          99.912         11.2224 
         2.0126         99.3447         11.1409 
        2.01874         98.7502           11.06 
        2.02488         98.2897         10.9799 
        2.03101         97.9145         10.9007 
        2.03714         97.2363         10.8224 
        2.04328         96.8437         10.7447 
        2.04941          96.263         10.6679 
        2.05554         95.9917         10.5919 
        2.06167         95.4046         10.5165 
        2.06781         94.9006         10.4419 
        2.07396          94.414         10.3679 
        2.08009         93.9709         10.2947 
        2.08622         93.6569         10.2224 
        2.09237          93.031         10.1506 
        2.09851         92.7647         10.0794 
        2.10464         92.1545         10.0091 
        2.11077         91.7435         9.93955 
        2.11691         91.3754         9.87049 
        2.12305         90.8098         9.80209 
        2.12918         90.3721         9.73451 
        2.13531         90.0152         9.66756 
        2.14145         89.2521         9.60108 
         2.1476         89.0486         9.53516 
        2.15372         88.6012         9.47019 
        2.15985         88.1417         9.40576 
        2.16599           87.84         9.34175 
        2.17213         87.3073         9.27841 
        2.17827         86.9119         9.21567 
         2.1844         86.4094         9.15358 
        2.19054         86.1577         9.09203 
        2.19666         85.6196         9.03114 
         2.2028         85.4453         8.97076 
        2.20893         84.7919          8.9109 
        2.21508         84.2788         8.85153 
        2.22122         84.1532         8.79267 
        2.22736         83.5757         8.73448 
        2.23349         83.2492         8.67684 
        2.23962         82.7031         8.61968 
        2.24577         82.2615         8.56299 
         2.2519         82.0787         8.50689 
        2.25802         81.5661         8.45139 
        2.26417         81.0898         8.39623 
        2.27031         80.8179         8.34152 
        2.27644         80.4335         8.28745 
        2.28257         79.9075         8.23387 
        2.28872         79.6324         8.18066 
        2.29486         79.2432         8.12794 
        2.30099          78.773         8.07579 
        2.30712         78.5601         8.02407 
        2.31326         78.0695         7.97272 
         2.3194         77.8297         7.92186 
        2.32553         77.2655         7.87152 
        2.33166         76.8619         7.82165 
         2.3378         76.5579         7.77214 
        2.34394         76.1681         7.72305 
        2.35007         75.6785         7.67445 
        2.35619         75.3247         7.62633 
        2.36233         75.0534         7.57852 
        2.36848         74.7664         7.53101 
        2.37462         74.3671         7.48402 
        2.38075          74.103         7.43747 
        2.38689         73.6427         7.39128 
        2.39303         73.3728          7.3455 
        2.39916         73.0742         7.30015 
        2.40529         72.6382         7.25519 
        2.41143         72.2651         7.21057 
        2.41757         71.9812         7.16632 
         2.4237         71.6799         7.12252 
        2.42983         71.1989         7.07909 
        2.43598          70.901         7.03591 
        2.44211          70.564         6.99316 
        2.44823         70.2507         6.95087 
        2.45437         69.8479         6.90881 
        2.46052         69.4751         6.86706 
        2.46665         69.1811         6.82574 
        2.47279         68.8595         6.78477 
        2.47892         68.5668         6.74411 
        2.48507         68.1915         6.70375 
         2.4912          68.027         6.66379 
