# k  (h/Mpc)    P(k)  (Mpc/h)^3    P_linear(k)  (Mpc/h)^3
     0.00783031         6265.18         6313.33 
       0.013688         7768.68         7922.95 
       0.019231         8063.83         8150.05 
      0.0249154         7679.53         7673.42 
      0.0312784         6744.87         6787.52 
      0.0375637         5823.97         5890.83 
      0.0433917         5181.72         5195.66 
      0.0492413         4625.99         4667.81 
      0.0555754          4247.9         4257.74 
      0.0619321         3850.63         3948.32 
       0.067871          3641.6         3689.95 
      0.0738098         3391.47         3421.27 
      0.0800417         3098.25         3114.63 
      0.0862327         2772.65         2797.52 
      0.0921407         2493.72          2507.9 
      0.0982031          2259.9         2247.81 
       0.104506         2021.17         2031.87 
       0.110769         1871.26         1872.78 
       0.116806         1786.48          1761.1 
       0.122832         1678.91         1674.16 
       0.129052         1601.58         1592.82 
       0.135211         1536.26         1507.68 
       0.141259         1428.27          1414.4 
       0.147318         1315.37         1313.49 
       0.153489         1228.09         1210.07 
       0.159709         1156.26         1113.66 
       0.165845         1053.93         1032.41 
       0.171974         1020.74         967.325 
       0.178125         975.275         916.657 
       0.184229         912.153         876.782 
        0.19034         891.324         842.107 
       0.196428         860.718         808.206 
       0.202534         805.563         771.984 
       0.208729         785.701         732.282 
       0.214876         751.026         691.228 
       0.220989         699.559         651.071 
       0.227147         680.392         613.657 
        0.23329         652.263         580.957 
       0.239377         636.587         553.568 
       0.245482         604.394           530.5 
       0.251667         580.539         510.321 
       0.257832         573.755         491.868 
       0.263955         542.953         473.879 
       0.270079           524.1         455.484 
        0.27624         501.612         436.466 
       0.282372         488.815         417.401 
        0.28843         484.004         399.093 
       0.294538         459.473         381.776 
       0.300721         443.185         365.862 
        0.30691         435.799         351.642 
       0.313033         417.055         339.085 
       0.319153         409.829         327.649 
       0.325316         399.735         316.825 
        0.33145         389.818         306.364 
       0.337538         376.333         296.092 
       0.343633         364.788         285.858 
       0.349808          354.86         275.658 
       0.355968         347.211         265.801 
       0.362074          337.83         256.529 
       0.368217         333.298         247.803 
       0.374374         325.769         239.689 
       0.380519         312.578         232.175 
       0.386598         307.804         225.198 
       0.392688         300.349         218.551 
        0.39888         293.312          212.03 
       0.405048         287.794         205.699 
       0.411186         284.982         199.549 
       0.417313         279.328         193.566 
       0.423458         271.825         187.763 
       0.429607         265.635           182.2 
       0.435692         260.916         176.956 
       0.441815         255.747         171.946 
       0.447964         248.878         167.176 
       0.454126         245.047          162.62 
       0.460267         242.151         158.266 
       0.466387         237.343         154.082 
        0.47254         234.439         150.008 
       0.478662         227.452          146.07 
       0.484765          224.72         142.262 
       0.490885         221.339         138.568 
       0.497035         218.735         134.988 
       0.503198         215.768         131.535 
       0.509342         210.053          128.23 
       0.515458         207.675         125.073 
       0.521598         202.935         122.023 
       0.527764         200.755         119.068 
       0.533884         200.091         116.233 
           0.54         195.268          113.49 
       0.546137          190.97         110.821 
       0.552299         189.319         108.221 
       0.558452         186.011         105.705 
       0.564573         184.964          103.28 
       0.570708         180.581          100.93 
       0.576825         178.265         98.6649 
       0.582926          176.38         96.4796 
       0.589034         173.878         94.3614 
       0.595184         172.408         92.2955 
       0.601379         168.662         90.2792 
       0.607522          165.86         88.3398 
       0.613639         164.603         86.4649 
       0.619772         162.643         84.6385 
       0.625918         161.371         82.8603 
       0.632068         157.848          81.132 
       0.638161         156.075         79.4692 
         0.6443         155.339         77.8426 
       0.650464         152.402         76.2575 
       0.656582         151.662         74.7293 
       0.662703         150.015         73.2435 
       0.668861         146.992         71.7902 
       0.675024         147.047         70.3755 
       0.681124         144.679         69.0133 
       0.687237         142.501         67.6847 
       0.693381         141.604         66.3851 
       0.699536         139.834         65.1178 
       0.705665         138.061         63.8895 
       0.711789          136.42         62.6945 
       0.717957         134.951         61.5223 
        0.72409         133.961          60.387 
       0.730186         133.454         59.2877 
       0.736317         131.146         58.2101 
       0.742472         129.505         57.1557 
       0.748622         127.583         56.1288 
        0.75476         127.705         55.1297 
       0.760888          126.58         54.1567 
       0.767043         124.361         53.2036 
       0.773185         123.013         52.2758 
       0.779291         121.642         51.3757 
       0.785407         120.495         50.4957 
       0.791564         120.004         49.6311 
       0.797719         118.498         48.7874 
       0.803834         117.939         47.9689 
       0.809972         117.157         47.1665 
       0.816124         115.605         46.3809 
       0.822261          114.34         45.6155 
       0.828378         114.138         44.8699 
       0.834502         112.339         44.1406 
       0.840667          111.84         43.4229 
       0.846816         110.852         42.7234 
       0.852925         109.615         42.0438 
       0.859047         109.027         41.3778 
       0.865192          107.84         40.7242 
       0.871341         106.692         40.0844 
       0.877463             106         39.4614 
       0.883569         105.806         38.8534 
       0.889708         104.867         38.2551 
       0.895864         103.902         37.6681 
       0.902008         102.962         37.0948 
       0.908149         101.658         36.5338 
       0.914301         101.609         35.9837 
       0.920448         101.117         35.4455 
       0.926574         99.2161         34.9202 
       0.932687         99.0739         34.4069 
       0.938823         98.2839         33.9021 
       0.944975         97.1621         33.4064 
       0.951105         96.4181         32.9225 
       0.957225         96.3432         32.4491 
       0.963368         95.2361         31.9835 
       0.969511         94.5068         31.5272 
       0.975621         93.7574         31.0822 
       0.981748         92.9514         30.6448 
       0.987916         92.3599         30.2132 
        0.99406         91.9923         29.7916 
        1.00019         90.8932          29.379 
        1.00632         90.3541         28.9746 
        1.01246         89.7837         28.5773 
        1.01859         89.4145         28.1882 
        1.02471         88.5418         27.8069 
        1.03085         87.8134         27.4315 
        1.03698         87.3171         27.0638 
        1.04314          86.675         26.7013 
        1.04929         86.2697         26.3464 
        1.05541         85.6728         25.9995 
        1.06154         85.1702          25.658 
        1.06769         84.3428         25.3222 
        1.07382         83.6642         24.9935 
        1.07993         83.4363         24.6715 
        1.08607         82.7387         24.3539 
        1.09222         82.4958         24.0416 
        1.09836         81.6505         23.7352 
        1.10449         81.2396         23.4345 
        1.11063         80.6326         23.1388 
        1.11677         80.2339         22.8483 
         1.1229         79.5413         22.5633 
        1.12903          79.331          22.283 
        1.13518           79.01         22.0072 
        1.14131         78.2796         21.7363 
        1.14745         77.7122         21.4701 
        1.15359         76.8817         21.2084 
        1.15973         76.8409          20.951 
        1.16584         76.2984          20.699 
        1.17197         75.6645         20.4508 
        1.17811         75.2697          20.206 
        1.18424         74.5181          19.966 
        1.19038         74.4919         19.7291 
        1.19652         74.0445         19.4963 
        1.20267         73.4734         19.2672 
        1.20881         73.0369         19.0419 
        1.21495         72.6836         18.8206 
        1.22108         72.3888         18.6028 
         1.2272         71.6774         18.3891 
        1.23334         71.4304         18.1782 
        1.23949         70.9744         17.9702 
        1.24562          70.452         17.7661 
        1.25174          70.045         17.5654 
        1.25789         70.0517         17.3673 
        1.26402         69.4135         17.1726 
        1.27014         69.1172         16.9813 
        1.27628         68.4753         16.7925 
        1.28244         68.3242         16.6062 
        1.28858         67.8949         16.4229 
        1.29471         67.5204         16.2429 
        1.30084         66.9055         16.0658 
        1.30697         66.9658          15.891 
        1.31312         66.3553         15.7186 
        1.31925          65.907         15.5494 
        1.32537         65.6003         15.3828 
        1.33151           65.32         15.2181 
        1.33765         64.9188         15.0559 
        1.34378         64.6611         14.8964 
        1.34992         64.2722         14.7391 
        1.35606         63.8337         14.5838 
         1.3622         63.5605          14.431 
        1.36833         63.1481         14.2808 
        1.37445          62.619         14.1328 
        1.38059         62.5607         13.9864 
        1.38675         61.8886         13.8418 
        1.39288         61.9208         13.6998 
        1.39901         61.3609         13.5599 
        1.40515         61.1508         13.4217 
         1.4113         60.9969         13.2854 
        1.41742         60.5874         13.1515 
        1.42355         60.2031         13.0193 
         1.4297         59.8886         12.8885 
        1.43585          59.498         12.7595 
        1.44198         59.1643         12.6329 
        1.44809         58.8421         12.5081 
        1.45423         58.6115         12.3847 
        1.46036         58.2742         12.2631 
        1.46649         58.1211         12.1431 
        1.47263         57.7464         12.0247 
        1.47877         57.5381         11.9079 
        1.48491         57.2438         11.7924 
        1.49104         56.7562         11.6788 
        1.49718         56.5644         11.5666 
        1.50333         56.3214         11.4557 
        1.50947         56.0143         11.3464 
         1.5156         55.7869         11.2388 
        1.52172          55.381         11.1326 
        1.52787         55.0937         11.0275 
          1.534         54.8806          10.924 
        1.54013         54.7407         10.8219 
        1.54627         54.2127         10.7209 
        1.55241         53.9613         10.6212 
        1.55855         53.8764         10.5229 
        1.56467         53.4312         10.4261 
         1.5708         53.3426         10.3303 
        1.57695         53.0086         10.2356 
        1.58308         52.6558         10.1422 
        1.58922         52.4512           10.05 
        1.59535         52.2896         9.95897 
         1.6015         52.2053         9.86893 
        1.60764         51.8108         9.78006 
        1.61376         51.4963         9.69253 
        1.61989         51.1768         9.60601 
        1.62604         50.9888         9.52035 
        1.63218          50.711          9.4358 
        1.63831         50.5933         9.35247 
        1.64444         50.2908         9.27013 
        1.65059         50.0748         9.18858 
        1.65673           49.73         9.10811 
        1.66285         49.6513         9.02884 
        1.66898         49.1678         8.95049 
        1.67512         49.1008         8.87292 
        1.68127         48.8449         8.79621 
         1.6874         48.5716         8.72057 
        1.69353         48.4607         8.64588 
        1.69967         48.2594          8.5719 
        1.70581         47.8856         8.49881 
        1.71193         47.6815         8.42686 
        1.71806          47.487         8.35559 
        1.72421         47.2852         8.28501 
        1.73035         47.0466         8.21533 
        1.73649         46.7277         8.14648 
        1.74262         46.4318         8.07847 
        1.74876         46.3793         8.01119 
        1.75489         46.0742         7.94483 
        1.76101         45.8929         7.87924 
        1.76715         45.8384         7.81431 
        1.77329         45.3689         7.75003 
        1.77943         45.3838         7.68646 
        1.78557         45.1544         7.62369 
        1.79171         44.9199         7.56162 
        1.79785         44.6825         7.50023 
        1.80399         44.4751         7.43954 
        1.81012         44.3223         7.37961 
        1.81625         43.9689         7.32036 
        1.82239          43.811         7.26168 
        1.82853         43.6922         7.20368 
        1.83466         43.4222         7.14637 
        1.84078           43.25         7.08974 
        1.84692          43.013         7.03364 
        1.85306         42.7895         6.97808 
         1.8592         42.6958         6.92321 
        1.86533         42.4703         6.86897 
        1.87147         42.2606         6.81524 
        1.87761         41.9941         6.76207 
        1.88375         41.9114         6.70953 
        1.88988         41.7314         6.65761 
        1.89601         41.4568         6.60621 
        1.90215          41.318         6.55532 
        1.90829          41.114         6.50499 
        1.91442         40.9057         6.45518 
        1.92056         40.7368         6.40595 
         1.9267         40.6487         6.35718 
        1.93284         40.3639         6.30889 
        1.93897         40.2831          6.2612 
        1.94509         39.9868          6.2141 
        1.95123          39.863         6.16738 
        1.95737          39.597          6.1211 
        1.96349         39.5237         6.07542 
        1.96964         39.3466         6.03008 
        1.97578         39.1291         5.98518 
        1.98192         38.9486         5.94083 
        1.98805         38.7466         5.89693 
        1.99419         38.6333         5.85347 
        2.00033         38.4501         5.81043 
        2.00647          38.346         5.76783 
         2.0126         38.1032         5.72574 
        2.01874         37.9058         5.68401 
        2.02488         37.7401         5.64265 
        2.03101         37.5676         5.60179 
        2.03714         37.4246         5.56137 
        2.04328         37.2953         5.52131 
        2.04941         37.0847         5.48168 
        2.05554         36.9632         5.44246 
        2.06167         36.7732         5.40358 
        2.06781         36.6238         5.36508 
        2.07396         36.4746          5.3269 
        2.08009          36.318         5.28915 
        2.08622         36.1269         5.25182 
        2.09237         36.0039         5.21477 
        2.09851         35.8031         5.17808 
        2.10464         35.6159         5.14181 
        2.11077         35.5431         5.10592 
        2.11691         35.3056         5.07031 
        2.12305         35.1509         5.03503 
        2.12918         35.0306         5.00017 
        2.13531         34.8937         4.96564 
        2.14145         34.7507         4.93136 
         2.1476         34.5407         4.89736 
        2.15372         34.4743         4.86385 
        2.15985         34.2469         4.83063 
        2.16599         34.0659         4.79762 
        2.17213         33.9688         4.76496 
        2.17827         33.8063         4.73261 
         2.1844         33.6831          4.7006 
        2.19054         33.5356         4.66886 
        2.19666         33.3398         4.63747 
         2.2028         33.2556         4.60634 
        2.20893         33.1103         4.57548 
        2.21508          32.987         4.54487 
        2.22122         32.8026         4.51453 
        2.22736         32.6199         4.48454 
        2.23349         32.4978         4.45482 
        2.23962         32.4045         4.42536 
        2.24577         32.2651         4.39614 
         2.2519         32.0923         4.36723 
        2.25802         31.9574         4.33862 
        2.26417          31.786         4.31019 
        2.27031         31.7298         4.28199 
        2.27644         31.6357         4.25413 
        2.28257         31.4219         4.22652 
        2.28872         31.3468          4.1991 
        2.29486         31.1537         4.17193 
        2.30099         30.9838         4.14506 
        2.30712         30.9096         4.11841 
        2.31326         30.7608         4.09195 
         2.3194         30.6385         4.06574 
        2.32553         30.5082         4.03981 
        2.33166         30.3801         4.01412 
         2.3378         30.2855         3.98861 
        2.34394          30.116         3.96332 
        2.35007         30.0469         3.93828 
        2.35619         29.9104          3.9135 
        2.36233         29.7297         3.88886 
        2.36848         29.6128         3.86439 
        2.37462         29.5381         3.84019 
        2.38075          29.365         3.81621 
        2.38689         29.2171         3.79242 
        2.39303         29.2099         3.76884 
        2.39916         28.9705         3.74548 
        2.40529         28.8398         3.72233 
        2.41143         28.7715         3.69935 
        2.41757         28.6223         3.67656 
         2.4237         28.5225         3.65401 
        2.42983         28.4016         3.63164 
        2.43598         28.2786         3.60941 
        2.44211         28.1728          3.5874 
        2.44823         28.0052         3.56562 
        2.45437         27.9964         3.54396 
        2.46052         27.8114         3.52247 
        2.46665         27.6879         3.50119 
        2.47279         27.5164          3.4801 
        2.47892         27.4611         3.45916 
        2.48507          27.346         3.43838 
         2.4912         27.2755         3.41781 
