# k  (h/Mpc)    Pcb(k)  (Mpc/h)^3    Pcb_linear(k)  (Mpc/h)^3
     0.00783031         7414.52         7503.32 
       0.013688         9480.83         9433.71 
       0.019231         9728.39         9717.77 
      0.0249154         9008.13         9141.92 
      0.0312784         7986.92         8044.61 
      0.0375637         6913.53          6911.7 
      0.0433917         5948.42         6020.36 
      0.0492413         5320.43         5341.11 
      0.0555754         4727.08         4825.79 
      0.0619321          4482.2         4465.46 
       0.067871         4117.05         4193.79 
      0.0738098         3849.52         3925.24 
      0.0800417         3510.21         3612.46 
      0.0862327         3207.49          3268.8 
      0.0921407         2910.25         2932.27 
      0.0982031         2579.29          2609.1 
       0.104506         2359.52         2324.34 
       0.110769         2143.47         2106.37 
       0.116806         1980.48         1955.16 
       0.122832          1883.4         1848.65 
       0.129052         1766.85         1765.66 
       0.135211         1693.09          1690.6 
       0.141259          1629.5         1609.43 
       0.147318         1544.09         1514.47 
       0.153489         1423.03         1405.77 
       0.159709         1332.12          1292.3 
       0.165845         1255.85         1186.56 
       0.171974          1162.9         1095.16 
       0.178125         1096.41          1021.7 
       0.184229          1045.7         966.474 
        0.19034         979.994         925.043 
       0.196428          964.83         891.905 
       0.202534         938.404         861.005 
       0.208729         896.585         827.437 
       0.214876          852.67           789.7 
       0.220989         825.099          748.13 
       0.227147         778.656         704.431 
        0.23329         742.622         662.049 
       0.239377         720.953         623.948 
       0.245482         671.066         591.251 
       0.251667         662.444         564.068 
       0.257832         639.039         542.055 
       0.263955         618.323         523.601 
       0.270079         597.478         506.674 
        0.27624         590.663          489.64 
       0.282372         566.946          471.73 
        0.28843         551.567         452.922 
       0.294538         525.715         433.313 
       0.300721         520.639          413.63 
        0.30691             496         395.012 
       0.313033         485.103         378.298 
       0.319153           468.2         363.599 
       0.325316         455.165          350.68 
        0.33145         441.867         339.324 
       0.337538         436.309         328.968 
       0.343633         422.454         319.011 
       0.349808         409.264         308.934 
       0.355968         404.401         298.723 
       0.362074          395.29         288.483 
       0.368217         384.626         278.246 
       0.374374         370.554          268.32 
       0.380519         365.779         258.963 
       0.386598         356.869         250.405 
       0.392688         353.536         242.549 
        0.39888         343.818         235.217 
       0.405048         336.708         228.436 
       0.411186         329.768         222.019 
       0.417313         323.662           215.8 
       0.423458         317.806         209.665 
       0.429607         310.821         203.577 
       0.435692         302.682         197.643 
       0.441815          300.57          191.82 
       0.447964           294.9         186.182 
       0.454126         284.073         180.806 
       0.460267         280.746         175.754 
       0.466387          277.46         171.007 
        0.47254         271.673         166.492 
       0.478662         270.232         162.216 
       0.484765         262.254         158.113 
       0.490885         258.906         154.112 
       0.497035         255.067         150.187 
       0.503198         249.227         146.347 
       0.509342         246.743          142.61 
       0.515458         243.446         138.998 
       0.521598         239.595           135.5 
       0.527764         235.883         132.129 
       0.533884         232.907         128.924 
           0.54          229.53         125.852 
       0.546137         228.332         122.893 
       0.552299         223.968         120.031 
       0.558452         221.036         117.267 
       0.564573         217.446         114.595 
       0.570708         213.779         111.985 
       0.576825         211.138         109.452 
       0.582926         208.245         106.998 
       0.589034         205.691         104.613 
       0.595184         203.658         102.286 
       0.601379         201.604         100.018 
       0.607522         197.402         97.8447 
       0.613639         196.653          95.754 
       0.619772         192.353         93.7266 
       0.625918         190.769          91.757 
       0.632068         188.517         89.8425 
       0.638161         187.346         87.9966 
         0.6443         184.549         86.1858 
       0.650464         182.717         84.4173 
       0.656582         180.951         82.7102 
       0.662703         178.637         81.0499 
       0.668861         176.069         79.4265 
       0.675024         174.175         77.8473 
       0.681124         173.268         76.3284 
       0.687237         170.346         74.8486 
       0.693381         168.118         73.4028 
       0.699536         166.927         71.9941 
       0.705665         166.951         70.6294 
       0.711789         163.282         69.3018 
       0.717957           162.8          67.999 
        0.72409         160.627         66.7364 
       0.730186         158.199         65.5129 
       0.736317         157.366          64.313 
       0.742472         156.369         63.1388 
       0.748622          155.07         61.9954 
        0.75476         153.729         60.8833 
       0.760888         151.565         59.8011 
       0.767043          150.72         58.7417 
       0.773185         149.147         57.7108 
       0.779291         147.091          56.711 
       0.785407         146.363         55.7338 
       0.791564         145.021         54.7737 
       0.797719          143.03         53.8367 
       0.803834         142.414         52.9275 
       0.809972         140.742         52.0361 
       0.816124         140.545         51.1635 
       0.822261         138.883         50.3133 
       0.828378         137.632         49.4851 
       0.834502          137.15         48.6752 
       0.840667         135.275         47.8783 
       0.846816         134.123         47.1018 
       0.852925         133.144         46.3477 
       0.859047         131.631         45.6087 
       0.865192         131.055         44.8836 
       0.871341         129.762         44.1739 
       0.877463         128.639          43.483 
       0.883569         127.684         42.8087 
       0.889708         126.889         42.1453 
       0.895864         125.711         41.4944 
       0.902008         124.836         40.8587 
       0.908149         124.243         40.2368 
       0.914301          122.91         39.6269 
       0.920448          122.16         39.0303 
       0.926574         121.373         38.4482 
       0.932687         120.889         37.8792 
       0.938823         119.144         37.3199 
       0.944975         118.238         36.7706 
       0.951105         117.605         36.2344 
       0.957225         116.228           35.71 
       0.963368         115.621         35.1942 
       0.969511         115.257         34.6887 
       0.975621         114.745         34.1959 
       0.981748         113.812         33.7115 
       0.987916         112.674         33.2335 
        0.99406         112.059         32.7667 
        1.00019          111.22         32.3098 
        1.00632         110.574         31.8621 
        1.01246         109.718         31.4224 
        1.01859         108.409         30.9917 
        1.02471         108.573         30.5697 
        1.03085         107.468         30.1541 
        1.03698         106.736         29.7473 
        1.04314         105.792         29.3463 
        1.04929         105.221         28.9537 
        1.05541         104.488         28.5699 
        1.06154         103.995         28.1922 
        1.06769         103.597         27.8208 
        1.07382         103.077         27.4573 
        1.07993          102.32         27.1012 
        1.08607         101.491           26.75 
        1.09222         101.009         26.4048 
        1.09836         100.233          26.066 
        1.10449         99.6791         25.7337 
        1.11063          99.098         25.4068 
        1.11677         98.5551         25.0858 
         1.1229         97.5905         24.7709 
        1.12903         96.7952         24.4611 
        1.13518         97.0205         24.1565 
        1.14131          96.185         23.8572 
        1.14745         95.3066         23.5632 
        1.15359         94.8883         23.2741 
        1.15973         94.4923         22.9897 
        1.16584         93.7657         22.7115 
        1.17197         93.2349         22.4374 
        1.17811         92.6786         22.1671 
        1.18424         92.0117          21.902 
        1.19038         91.5508         21.6405 
        1.19652         91.1367         21.3834 
        1.20267         90.4049         21.1305 
        1.20881         89.9541         20.8818 
        1.21495         89.3134         20.6375 
        1.22108         88.8495         20.3972 
         1.2272         88.1777         20.1613 
        1.23334         87.8617         19.9286 
        1.23949         87.2533         19.6991 
        1.24562         87.0093         19.4738 
        1.25174         86.4119         19.2524 
        1.25789          85.998         19.0338 
        1.26402         85.5665          18.819 
        1.27014         84.7864         18.6081 
        1.27628         84.5941         18.3998 
        1.28244         83.8653         18.1943 
        1.28858         83.5168         17.9923 
        1.29471         83.1172         17.7937 
        1.30084         82.6266         17.5984 
        1.30697         82.1299         17.4058 
        1.31312         81.7289         17.2157 
        1.31925          81.419         17.0291 
        1.32537         81.0152         16.8455 
        1.33151         80.2548         16.6639 
        1.33765         79.8706         16.4852 
        1.34378          79.408         16.3094 
        1.34992         79.1513         16.1361 
        1.35606         78.7271          15.965 
         1.3622         78.0558         15.7966 
        1.36833         77.9353         15.6311 
        1.37445         77.4397         15.4681 
        1.38059         76.8418         15.3069 
        1.38675         76.4625         15.1476 
        1.39288         76.0364         14.9912 
        1.39901         75.9385         14.8371 
        1.40515         75.4959         14.6849 
         1.4113         74.9823         14.5348 
        1.41742          74.787         14.3875 
        1.42355         74.1621         14.2419 
         1.4297         73.8629         14.0978 
        1.43585         73.3621         13.9559 
        1.44198         73.1643         13.8164 
        1.44809         72.7229         13.6792 
        1.45423         72.3873         13.5432 
        1.46036         72.0992         13.4094 
        1.46649         71.6527         13.2774 
        1.47263         71.2545          13.147 
        1.47877         71.0583         13.0185 
        1.48491         70.6872         12.8915 
        1.49104         70.1967         12.7664 
        1.49718         69.7533          12.643 
        1.50333         69.4815         12.5209 
        1.50947         69.0888         12.4008 
         1.5156         68.8383         12.2824 
        1.52172         68.5367         12.1655 
        1.52787         68.3205           12.05 
          1.534         67.9198         11.9361 
        1.54013         67.4639         11.8238 
        1.54627         67.2304         11.7127 
        1.55241         66.7934         11.6031 
        1.55855         66.4314          11.495 
        1.56467         65.9956         11.3886 
         1.5708         65.9109         11.2833 
        1.57695         65.6212         11.1791 
        1.58308         65.1695         11.0765 
        1.58922         65.0811         10.9752 
        1.59535         64.8026         10.8751 
         1.6015         64.1968         10.7762 
        1.60764         64.0692         10.6785 
        1.61376         63.6661         10.5823 
        1.61989         63.2879         10.4873 
        1.62604         63.1577         10.3932 
        1.63218         62.9424         10.3003 
        1.63831          62.543         10.2087 
        1.64444         62.2324         10.1183 
        1.65059         61.7632         10.0287 
        1.65673         61.6143         9.94031 
        1.66285         61.3062         9.85323 
        1.66898         60.9945         9.76718 
        1.67512         60.6431         9.68199 
        1.68127         60.3202         9.59774 
         1.6874         60.1694         9.51468 
        1.69353         59.8184         9.43266 
        1.69967         59.5382         9.35142 
        1.70581         59.4393         9.27117 
        1.71193         59.1089         9.19218 
        1.71806         58.5866         9.11393 
        1.72421         58.5184         9.03645 
        1.73035         58.1458         8.95996 
        1.73649         57.7507         8.88438 
        1.74262         57.6638         8.80973 
        1.74876         57.4181         8.73589 
        1.75489         57.0521         8.66306 
        1.76101         56.8851         8.59108 
        1.76715         56.5141         8.51982 
        1.77329         56.2955         8.44929 
        1.77943         56.0445         8.37952 
        1.78557         55.8653         8.31066 
        1.79171         55.5096         8.24255 
        1.79785         55.2952          8.1752 
        1.80399          55.042         8.10862 
        1.81012         54.8828         8.04288 
        1.81625         54.3749         7.97789 
        1.82239         54.2166         7.91353 
        1.82853         53.8311         7.84991 
        1.83466         53.7567         7.78706 
        1.84078          53.312         7.72496 
        1.84692         53.1445         7.66344 
        1.85306          52.949         7.60252 
         1.8592          52.648         7.54236 
        1.86533         52.4446         7.48289 
        1.87147         52.2275         7.42399 
        1.87761         52.0394          7.3657 
        1.88375         51.7905          7.3081 
        1.88988         51.7222         7.25119 
        1.89601         51.2726         7.19485 
        1.90215         51.0804         7.13907 
        1.90829         50.9423         7.08391 
        1.91442         50.6538         7.02932 
        1.92056         50.3888         6.97537 
         1.9267         50.0707         6.92192 
        1.93284         49.8884           6.869 
        1.93897         49.6956         6.81674 
        1.94509         49.3772         6.76514 
        1.95123         49.2968         6.71394 
        1.95737         49.0103         6.66324 
        1.96349         48.7657          6.6132 
        1.96964         48.6365         6.56352 
        1.97578         48.3398         6.51433 
        1.98192         48.1606         6.46575 
        1.98805         47.9737         6.41767 
        1.99419          47.632         6.37007 
        2.00033         47.4441         6.32293 
        2.00647         47.2772         6.27628 
         2.0126         47.0319         6.23018 
        2.01874         46.8472         6.18448 
        2.02488         46.7151          6.1392 
        2.03101         46.4064         6.09445 
        2.03714         46.2128          6.0502 
        2.04328         45.9515         6.00633 
        2.04941         45.7368         5.96294 
        2.05554         45.4871         5.92001 
        2.06167         45.4343         5.87744 
        2.06781         45.1822         5.83529 
        2.07396         44.9317         5.79349 
        2.08009         44.7817         5.75218 
        2.08622          44.511         5.71132 
        2.09237         44.3398         5.67077 
        2.09851         44.0974         5.63062 
        2.10464         43.9515         5.59092 
        2.11077         43.7965         5.55165 
        2.11691         43.5631         5.51267 
        2.12305         43.2808         5.47407 
        2.12918         43.1882         5.43593 
        2.13531         42.9306         5.39815 
        2.14145         42.8275         5.36065 
         2.1476         42.5831         5.32345 
        2.15372         42.3322          5.2868 
        2.15985         42.2218         5.25046 
        2.16599         42.1418         5.21436 
        2.17213         42.0129         5.17863 
        2.17827         41.6569         5.14325 
         2.1844         41.4534         5.10824 
        2.19054         41.2602         5.07353 
        2.19666         41.1096          5.0392 
         2.2028         40.9442         5.00516 
        2.20893         40.8068         4.97141 
        2.21508         40.6094         4.93794 
        2.22122         40.3731         4.90477 
        2.22736         40.2071         4.87197 
        2.23349         40.0772         4.83948 
        2.23962         39.8115         4.80727 
        2.24577          39.654         4.77532 
         2.2519         39.4561         4.74372 
        2.25802         39.4042         4.71244 
        2.26417         39.1664         4.68137 
        2.27031           39.06         4.65054 
        2.27644         38.7569         4.62009 
        2.28257         38.6585         4.58991 
        2.28872         38.4303         4.55994 
        2.29486         38.3421         4.53025 
        2.30099         38.1848         4.50088 
        2.30712         37.9922         4.47176 
        2.31326         37.8772         4.44285 
         2.3194         37.6817         4.41422 
        2.32553          37.486         4.38588 
        2.33166         37.3256         4.35781 
         2.3378         37.1717         4.32994 
        2.34394         36.9196         4.30231 
        2.35007         36.8057         4.27496 
        2.35619         36.7546         4.24788 
        2.36233         36.6047         4.22097 
        2.36848         36.3204         4.19424 
        2.37462         36.2692          4.1678 
        2.38075         36.0473         4.14161 
        2.38689         35.9806         4.11563 
        2.39303         35.7826         4.08987 
        2.39916         35.5795         4.06436 
        2.40529         35.3265         4.03908 
        2.41143         35.3022         4.01399 
        2.41757           35.17          3.9891 
         2.4237         34.9836         3.96447 
        2.42983         34.8639         3.94005 
        2.43598         34.6499         3.91577 
        2.44211          34.534         3.89174 
        2.44823         34.3689         3.86796 
        2.45437         34.2832         3.84432 
        2.46052         34.0784         3.82085 
        2.46665          33.979         3.79763 
        2.47279         33.8359          3.7746 
        2.47892         33.6094         3.75175 
        2.48507         33.5063         3.72907 
         2.4912         33.3541         3.70662 
