# k  (h/Mpc)    P(k)  (Mpc/h)^3    P_linear(k)  (Mpc/h)^3
     0.00783031         1723.98          1744.4 
       0.013688         2188.66         2191.77 
       0.019231            2256         2257.15 
      0.0249154         2107.15         2123.08 
      0.0312784         1863.72         1868.06 
      0.0375637         1607.91         1604.88 
      0.0433917         1393.31         1397.86 
      0.0492413         1241.12         1240.11 
      0.0555754         1112.97         1120.44 
      0.0619321         1042.36         1036.76 
       0.067871         968.457         973.673 
      0.0738098         905.786         911.314 
      0.0800417         830.247         838.689 
      0.0862327         755.103           758.9 
      0.0921407         679.909         680.765 
      0.0982031         603.285         605.735 
       0.104506             544         539.622 
       0.110769         493.192         489.016 
       0.116806         454.923          453.91 
       0.122832         432.411          429.18 
       0.129052         409.548         409.914 
       0.135211         391.914         392.487 
       0.141259         375.213         373.641 
       0.147318         354.785         351.595 
       0.153489         328.015          326.36 
       0.159709         303.161         300.017 
       0.165845         281.997         275.467 
       0.171974          258.68         254.249 
       0.178125         242.709         237.193 
       0.184229         230.674         224.373 
        0.19034         217.862         214.754 
       0.196428          212.34         207.061 
       0.202534         206.712         199.887 
       0.208729         197.477         192.094 
       0.214876          187.44         183.333 
       0.220989         180.049         173.682 
       0.227147         168.238         163.537 
        0.23329         158.965         153.698 
       0.239377         151.484         144.853 
       0.245482         142.202         137.262 
       0.251667         138.031         130.951 
       0.257832         132.865         125.841 
       0.263955          128.35         121.557 
       0.270079         124.242         117.627 
        0.27624         121.457         113.673 
       0.282372          117.01         109.515 
        0.28843          112.08         105.148 
       0.294538         107.503         100.596 
       0.300721          104.25         96.0261 
        0.30691         99.0644          91.704 
       0.313033          95.581         87.8236 
       0.319153         90.9774         84.4113 
       0.325316         89.3593         81.4117 
        0.33145         86.2179         78.7756 
       0.337538         84.1706         76.3714 
       0.343633          81.445         74.0596 
       0.349808         79.2337         71.7202 
       0.355968          76.977         69.3501 
       0.362074         74.4572         66.9725 
       0.368217          72.217         64.5959 
       0.374374          69.842         62.2915 
       0.380519         67.9299         60.1192 
       0.386598         66.0293         58.1326 
       0.392688         64.5495         56.3088 
        0.39888         62.6943         54.6066 
       0.405048         61.2437         53.0323 
       0.411186         59.8464         51.5426 
       0.417313         57.9458          50.099 
       0.423458         56.5558         48.6748 
       0.429607          55.031         47.2613 
       0.435692         53.3186         45.8837 
       0.441815         52.4177         44.5317 
       0.447964         51.4918          43.223 
       0.454126         49.4423         41.9747 
       0.460267         48.5801         40.8021 
       0.466387         47.1983         39.6999 
        0.47254         46.4962         38.6519 
       0.478662         45.6817         37.6592 
       0.484765         44.3643         36.7067 
       0.490885         43.3794         35.7778 
       0.497035         42.8361         34.8665 
       0.503198         41.7172         33.9749 
       0.509342         40.6407         33.1076 
       0.515458         39.8401         32.2691 
       0.521598         39.1612         31.4568 
       0.527764         38.3486         30.6743 
       0.533884         37.6911         29.9302 
           0.54         36.9027         29.2171 
       0.546137         36.3197           28.53 
       0.552299          35.747         27.8657 
       0.558452         34.6564         27.2241 
       0.564573         34.1784         26.6036 
       0.570708         33.6387         25.9977 
       0.576825         32.8179         25.4098 
       0.582926         32.2301           24.84 
       0.589034          31.406         24.2864 
       0.595184         31.0096         23.7461 
       0.601379          30.451         23.2196 
       0.607522         29.9081          22.715 
       0.613639         29.6232         22.2297 
       0.619772         28.8556          21.759 
       0.625918         28.7159         21.3017 
       0.632068         28.2373         20.8573 
       0.638161         27.6556         20.4287 
         0.6443         27.1179         20.0084 
       0.650464         26.6521         19.5978 
       0.656582         26.4811         19.2015 
       0.662703          25.984          18.816 
       0.668861         25.5178         18.4392 
       0.675024         25.0753         18.0726 
       0.681124         24.6523         17.7199 
       0.687237          24.263         17.3764 
       0.693381         24.0534         17.0407 
       0.699536         23.4315         16.7137 
       0.705665         23.3436         16.3969 
       0.711789         22.8674         16.0887 
       0.717957         22.5594         15.7862 
        0.72409         22.2219         15.4931 
       0.730186         21.9222         15.2091 
       0.736317         21.6998         14.9305 
       0.742472         21.3344         14.6579 
       0.748622         21.1018         14.3925 
        0.75476          20.723         14.1343 
       0.760888         20.4573          13.883 
       0.767043         20.2239         13.6371 
       0.773185         19.8497         13.3978 
       0.779291         19.7513         13.1657 
       0.785407          19.488         12.9388 
       0.791564         19.1552         12.7159 
       0.797719         18.7754         12.4984 
       0.803834         18.7333         12.2873 
       0.809972         18.5656         12.0804 
       0.816124         18.1464         11.8778 
       0.822261         17.9778         11.6804 
       0.828378          17.774         11.4882 
       0.834502         17.6171         11.3001 
       0.840667         17.3685         11.1151 
       0.846816         17.0735         10.9349 
       0.852925         16.9179         10.7598 
       0.859047          16.733         10.5882 
       0.865192         16.5883         10.4199 
       0.871341          16.451         10.2551 
       0.877463         16.1591         10.0947 
       0.883569         15.9565          9.9382 
       0.889708         15.7248         9.78419 
       0.895864         15.6189         9.63308 
       0.902008         15.4894          9.4855 
       0.908149         15.3244         9.34112 
       0.914301         15.1916         9.19953 
       0.920448         14.9192         9.06103 
       0.926574         14.7897         8.92589 
       0.932687         14.6472         8.79381 
       0.938823         14.4535         8.66395 
       0.944975         14.2905         8.53643 
       0.951105         14.1709         8.41196 
       0.957225         14.0605          8.2902 
       0.963368         13.9161         8.17046 
       0.969511         13.7877          8.0531 
       0.975621         13.6494          7.9387 
       0.981748         13.4871         7.82624 
       0.987916          13.399         7.71528 
        0.99406         13.2057          7.6069 
        1.00019         13.0173         7.50084 
        1.00632         13.0069         7.39691 
        1.01246          12.862         7.29482 
        1.01859         12.6721         7.19483 
        1.02471         12.6106         7.09687 
        1.03085         12.4885          7.0004 
        1.03698          12.308         6.90595 
        1.04314         12.2452         6.81285 
        1.04929         12.0845          6.7217 
        1.05541         11.9612          6.6326 
        1.06154         11.8775         6.54492 
        1.06769         11.8227         6.45869 
        1.07382         11.6518         6.37432 
        1.07993         11.5716         6.29165 
        1.08607         11.4734         6.21012 
        1.09222         11.3771         6.12997 
        1.09836         11.2521         6.05133 
        1.10449         11.1634         5.97417 
        1.11063         11.0602         5.89829 
        1.11677         11.0067         5.82376 
         1.1229         10.9285         5.75065 
        1.12903         10.7963         5.67874 
        1.13518         10.6734         5.60801 
        1.14131         10.6006         5.53854 
        1.14745         10.5088         5.47028 
        1.15359         10.4436         5.40317 
        1.15973         10.3566         5.33716 
        1.16584         10.2075         5.27255 
        1.17197         10.1509         5.20893 
        1.17811         10.1034         5.14617 
        1.18424         10.0186         5.08463 
        1.19038           9.973         5.02393 
        1.19652         9.86199         4.96424 
        1.20267         9.75949         4.90554 
        1.20881         9.74217          4.8478 
        1.21495          9.6563         4.79108 
        1.22108         9.54438         4.73529 
         1.2272         9.48991         4.68053 
        1.23334         9.38755          4.6265 
        1.23949          9.3141         4.57321 
        1.24562         9.27765         4.52092 
        1.25174         9.20106         4.46952 
        1.25789         9.13995         4.41877 
        1.26402         9.08824         4.36891 
        1.27014          9.0133         4.31994 
        1.27628         8.90966         4.27158 
        1.28244         8.83546         4.22388 
        1.28858         8.82882         4.17697 
        1.29471         8.72909         4.13088 
        1.30084         8.64773         4.08554 
        1.30697         8.64807         4.04081 
        1.31312         8.51024         3.99669 
        1.31925         8.46442         3.95338 
        1.32537         8.41475         3.91075 
        1.33151         8.37677          3.8686 
        1.33765         8.29325          3.8271 
        1.34378         8.23193         3.78629 
        1.34992         8.18249         3.74606 
        1.35606         8.12302         3.70633 
         1.3622         8.07978         3.66724 
        1.36833         8.01529         3.62882 
        1.37445         7.97098         3.59097 
        1.38059         7.94152         3.55354 
        1.38675         7.86985         3.51657 
        1.39288         7.82762         3.48027 
        1.39901         7.74351          3.4445 
        1.40515         7.71094         3.40915 
         1.4113         7.66499         3.37432 
        1.41742         7.61354          3.3401 
        1.42355         7.54637          3.3063 
         1.4297         7.50225         3.27287 
        1.43585         7.47528         3.23991 
        1.44198         7.44444         3.20754 
        1.44809         7.37395         3.17567 
        1.45423         7.32067         3.14412 
        1.46036         7.27367         3.11305 
        1.46649         7.22878          3.0824 
        1.47263         7.17169         3.05213 
        1.47877         7.13048         3.02229 
        1.48491         7.09172         2.99281 
        1.49104         7.05028         2.96378 
        1.49718         7.01415         2.93511 
        1.50333         6.97376         2.90678 
        1.50947         6.92226         2.87889 
         1.5156         6.88433          2.8514 
        1.52172         6.84729         2.82428 
        1.52787         6.80595         2.79745 
          1.534         6.75547         2.77101 
        1.54013         6.73086         2.74494 
        1.54627         6.66951         2.71916 
        1.55241         6.64014          2.6937 
        1.55855         6.61438         2.66861 
        1.56467         6.56335         2.64392 
         1.5708         6.53783         2.61946 
        1.57695         6.47932         2.59528 
        1.58308         6.43996         2.57146 
        1.58922         6.42486         2.54793 
        1.59535         6.39151          2.5247 
         1.6015         6.34081         2.50173 
        1.60764         6.29879         2.47906 
        1.61376         6.27504         2.45673 
        1.61989         6.24366         2.43466 
        1.62604         6.19772         2.41281 
        1.63218         6.18526         2.39125 
        1.63831         6.14784            2.37 
        1.64444          6.1159           2.349 
        1.65059         6.05064          2.3282 
        1.65673         6.04874         2.30768 
        1.66285         5.99025         2.28747 
        1.66898         5.96703         2.26749 
        1.67512         5.93646         2.24771 
        1.68127         5.90373         2.22815 
         1.6874         5.88482         2.20887 
        1.69353         5.83504         2.18983 
        1.69967         5.81222         2.17097 
        1.70581         5.78256         2.15234 
        1.71193         5.75225           2.134 
        1.71806         5.73326         2.11584 
        1.72421         5.69016         2.09785 
        1.73035         5.67557         2.08009 
        1.73649         5.64157         2.06254 
        1.74262         5.60328         2.04521 
        1.74876         5.58757         2.02807 
        1.75489          5.5632         2.01116 
        1.76101         5.51615         1.99445 
        1.76715          5.5018         1.97791 
        1.77329         5.47406         1.96154 
        1.77943          5.4269         1.94534 
        1.78557         5.42062         1.92935 
        1.79171         5.38561         1.91354 
        1.79785         5.35884         1.89791 
        1.80399         5.32841         1.88245 
        1.81012         5.31043         1.86719 
        1.81625         5.28019          1.8521 
        1.82239         5.25846         1.83716 
        1.82853         5.23052         1.82239 
        1.83466         5.21247          1.8078 
        1.84078          5.1839         1.79338 
        1.84692         5.17306          1.7791 
        1.85306         5.12855         1.76496 
         1.8592         5.10115         1.75099 
        1.86533         5.08404         1.73718 
        1.87147         5.06419         1.72351 
        1.87761         5.03477         1.70998 
        1.88375         5.01192         1.69661 
        1.88988         4.98412         1.68339 
        1.89601         4.96813         1.67031 
        1.90215         4.94876         1.65736 
        1.90829          4.9168         1.64456 
        1.91442         4.89957         1.63189 
        1.92056         4.87285         1.61936 
         1.9267         4.84983         1.60695 
        1.93284         4.83199         1.59467 
        1.93897         4.80811         1.58253 
        1.94509         4.78215         1.57055 
        1.95123         4.76023         1.55867 
        1.95737         4.73341          1.5469 
        1.96349         4.72203         1.53528 
        1.96964         4.70544         1.52375 
        1.97578         4.67139         1.51233 
        1.98192         4.66084         1.50105 
        1.98805         4.64191         1.48989 
        1.99419         4.62014         1.47884 
        2.00033         4.60687         1.46789 
        2.00647         4.57828         1.45706 
         2.0126         4.56576         1.44636 
        2.01874         4.53286         1.43575 
        2.02488         4.52553         1.42524 
        2.03101         4.49054         1.41485 
        2.03714         4.47638         1.40458 
        2.04328         4.45717         1.39439 
        2.04941          4.4301         1.38432 
        2.05554         4.41865         1.37435 
        2.06167         4.40599         1.36447 
        2.06781         4.38281         1.35469 
        2.07396         4.37248         1.34498 
        2.08009          4.3497         1.33539 
        2.08622         4.32456         1.32591 
        2.09237         4.31569         1.31649 
        2.09851         4.29508         1.30717 
        2.10464          4.2768         1.29795 
        2.11077         4.25461         1.28884 
        2.11691         4.23992         1.27979 
        2.12305         4.22722         1.27083 
        2.12918         4.21583         1.26197 
        2.13531         4.19497          1.2532 
        2.14145         4.17764          1.2445 
         2.1476         4.15282         1.23586 
        2.15372         4.13903         1.22735 
        2.15985           4.131         1.21892 
        2.16599         4.10624         1.21053 
        2.17213         4.08869         1.20224 
        2.17827         4.07844         1.19403 
         2.1844         4.05627          1.1859 
        2.19054         4.04743         1.17784 
        2.19666          4.0254         1.16987 
         2.2028          4.0083         1.16197 
        2.20893         3.99698         1.15413 
        2.21508         3.97517         1.14636 
        2.22122         3.96081         1.13866 
        2.22736         3.94748         1.13105 
        2.23349         3.94008         1.12351 
        2.23962          3.9181         1.11603 
        2.24577         3.90159         1.10861 
         2.2519         3.89379         1.10127 
        2.25802         3.87376         1.09401 
        2.26417         3.86088          1.0868 
        2.27031         3.84229         1.07964 
        2.27644         3.82981         1.07257 
        2.28257         3.81236         1.06557 
        2.28872         3.80522         1.05861 
        2.29486         3.78478         1.05172 
        2.30099         3.77022          1.0449 
        2.30712         3.75562         1.03814 
        2.31326         3.73891         1.03143 
         2.3194         3.73061         1.02478 
        2.32553         3.71295          1.0182 
        2.33166         3.70629         1.01168 
         2.3378         3.68888         1.00521 
        2.34394         3.67646        0.998799 
        2.35007         3.65957        0.992449 
        2.35619         3.65284        0.986163 
        2.36233         3.64035        0.979916 
        2.36848         3.61827        0.973711 
        2.37462         3.61313        0.967572 
        2.38075          3.5969        0.961493 
        2.38689         3.58662        0.955461 
        2.39303         3.57268        0.949481 
        2.39916         3.55813        0.943559 
        2.40529         3.54694        0.937689 
        2.41143         3.53485        0.931864 
        2.41757         3.52231        0.926086 
         2.4237          3.5118        0.920368 
        2.42983         3.48308        0.914699 
        2.43598         3.48767        0.909062 
        2.44211         3.46628        0.903483 
        2.44823         3.46057        0.897963 
        2.45437         3.44164        0.892475 
        2.46052         3.43713        0.887027 
        2.46665         3.42573        0.881635 
        2.47279         3.41179         0.87629 
        2.47892         3.40161        0.870985 
        2.48507         3.38933         0.86572 
         2.4912         3.37011        0.860508 
