# k  (h/Mpc)    Pcb(k)  (Mpc/h)^3    Pcb_linear(k)  (Mpc/h)^3
     0.00783031           24338           24725 
       0.013688           27635         27277.7 
       0.019231         25360.8         25234.1 
      0.0249154         21015.9         21471.4 
      0.0312784           17029         17167.6 
      0.0375637         13894.4         13789.6 
      0.0433917         11505.1           11626 
      0.0492413         10232.4         10223.9 
      0.0555754         9010.89         9244.58 
      0.0619321         8577.55         8479.73 
       0.067871          7595.4         7744.88 
      0.0738098         6816.27          6916.7 
      0.0800417         5885.06         5993.87 
      0.0862327          5151.3         5131.67 
      0.0921407         4607.25         4449.48 
      0.0982031         4056.58         3932.01 
       0.104506         3818.07         3575.39 
       0.110769         3547.72         3349.34 
       0.116806         3364.91         3186.69 
       0.122832         3186.32         3022.41 
       0.129052         2912.73         2817.58 
       0.135211         2703.45          2577.6 
       0.141259         2540.18         2327.81 
       0.147318         2351.31         2093.01 
       0.153489         2132.16         1893.21 
       0.159709         2008.54         1741.64 
       0.165845         1928.56         1636.25 
       0.171974         1836.93         1560.53 
       0.178125         1748.01         1496.76 
       0.184229         1661.12         1431.07 
        0.19034         1565.68         1355.25 
       0.196428         1514.96         1269.94 
       0.202534         1444.17         1180.61 
       0.208729         1364.64         1094.36 
       0.214876         1305.65         1019.72 
       0.220989         1253.16         959.205 
       0.227147         1204.94         911.121 
        0.23329         1154.08         872.351 
       0.239377         1131.26           838.4 
       0.245482         1057.79         804.845 
       0.251667         1049.17         769.009 
       0.257832         1001.94         731.199 
       0.263955         965.228         693.004 
       0.270079          927.25         656.163 
        0.27624         913.486         622.332 
       0.282372         876.277         592.808 
        0.28843         865.503         567.627 
       0.294538         819.555         545.446 
       0.300721         812.782         525.012 
        0.30691         781.035         505.445 
       0.313033         763.419         486.181 
       0.319153         745.904         466.848 
       0.325316          722.83         447.495 
        0.33145         703.965         428.866 
       0.337538          688.31         411.445 
       0.343633          672.29          395.38 
       0.349808         646.641         380.547 
       0.355968         641.372         367.011 
       0.362074         634.113         354.541 
       0.368217         613.177         342.599 
       0.374374         588.868         331.017 
       0.380519         587.971         319.709 
       0.386598         569.482         308.784 
       0.392688         566.098         298.203 
        0.39888         548.939         287.909 
       0.405048         541.031         278.219 
       0.411186         532.718         269.163 
       0.417313         521.607         260.656 
       0.423458         509.239         252.594 
       0.429607         504.372         244.906 
       0.435692         491.087         237.584 
       0.441815         485.218         230.457 
       0.447964         475.683         223.534 
       0.454126         469.974         216.826 
       0.460267         458.166         210.394 
       0.466387         451.726         204.258 
        0.47254         448.508         198.367 
       0.478662         442.995          192.77 
       0.484765         427.718         187.434 
       0.490885         424.069         182.306 
       0.497035          415.55         177.348 
       0.503198         411.791         172.552 
       0.509342         409.079         167.931 
       0.515458         404.654         163.488 
       0.521598         392.736         159.183 
       0.527764         388.476         155.014 
       0.533884          384.43         151.028 
           0.54         379.544         147.194 
       0.546137         376.673         143.491 
       0.552299         370.857         139.908 
       0.558452         367.648         136.455 
       0.564573         363.474         133.134 
       0.570708         357.145         129.913 
       0.576825         349.862         126.805 
       0.582926         348.502         123.806 
       0.589034         344.462         120.901 
       0.595184         342.297         118.069 
       0.601379          335.01         115.311 
       0.607522         331.685         112.664 
       0.613639         329.046         110.113 
       0.619772         324.518         107.637 
       0.625918         322.065         105.233 
       0.632068         316.609         102.902 
       0.638161         314.769         100.662 
         0.6443         310.536          98.471 
       0.650464          308.05         96.3372 
       0.656582         303.496         94.2817 
       0.662703         303.506         92.2859 
       0.668861          299.22         90.3372 
       0.675024         295.975         88.4439 
       0.681124         292.877         86.6247 
       0.687237         290.403         84.8534 
       0.693381           285.9         83.1237 
       0.699536         282.491         81.4393 
       0.705665         280.678         79.8089 
       0.711789         279.633         78.2245 
       0.717957         277.056         76.6723 
        0.72409         275.208          75.171 
       0.730186          271.46         73.7191 
       0.736317         269.071         72.2979 
       0.742472           266.5         70.9092 
       0.748622         264.681         69.5585 
        0.75476         261.215          68.246 
       0.760888         258.612         66.9696 
       0.767043         257.907          65.721 
       0.773185         255.776         64.5068 
       0.779291         252.055         63.3304 
       0.785407         251.279         62.1816 
       0.791564         248.726         61.0542 
       0.797719         246.371         59.9554 
       0.803834         243.348         58.8906 
       0.809972         242.756          57.848 
       0.816124         241.565         56.8284 
       0.822261         239.775         55.8361 
       0.828378         237.185         54.8706 
       0.834502         234.637         53.9272 
       0.840667         233.291         52.9999 
       0.846816         232.118         52.0971 
       0.852925         230.513          51.221 
       0.859047         228.403         50.3633 
       0.865192         225.632         49.5224 
       0.871341         223.698         48.7003 
       0.877463         223.948         47.9005 
       0.883569         221.718         47.1207 
       0.889708         219.216         46.3543 
       0.895864         218.985          45.603 
       0.902008         216.554         44.8699 
       0.908149         214.645         44.1534 
       0.914301         212.774         43.4514 
       0.920448          211.41         42.7654 
       0.926574         209.224         42.0966 
       0.932687         209.147         41.4435 
       0.938823         206.478          40.802 
       0.944975         206.222         40.1726 
       0.951105         204.419         39.5587 
       0.957225         203.489         38.9588 
       0.963368         200.475         38.3693 
       0.969511         199.747          37.792 
       0.975621         198.392         37.2297 
       0.981748         197.203         36.6774 
       0.987916         196.065         36.1329 
        0.99406         194.595         35.6015 
        1.00019         193.024         35.0818 
        1.00632         192.309          34.573 
        1.01246         190.554         34.0736 
        1.01859         190.316         33.5849 
        1.02471         187.721         33.1063 
        1.03085         186.812         32.6355 
        1.03698          185.42         32.1748 
        1.04314         184.217          31.721 
        1.04929         183.355         31.2771 
        1.05541         182.431         30.8435 
        1.06154         180.518          30.417 
        1.06769         180.164         29.9979 
        1.07382         178.659         29.5881 
        1.07993         177.492         29.1869 
        1.08607         177.215         28.7915 
        1.09222         175.407          28.403 
        1.09836         173.983         28.0221 
        1.10449         172.739         27.6486 
        1.11063         171.591         27.2815 
        1.11677         170.864         26.9212 
         1.1229         169.109          26.568 
        1.12903         168.617         26.2209 
        1.13518         167.679         25.8797 
        1.14131          166.37         25.5447 
        1.14745          166.37         25.2158 
        1.15359         164.399         24.8927 
        1.15973         163.159         24.5751 
        1.16584         162.626         24.2644 
        1.17197         162.382         23.9587 
        1.17811          160.19         23.6573 
        1.18424         159.759          23.362 
        1.19038         159.019         23.0708 
        1.19652         157.449         22.7848 
        1.20267         157.403         22.5035 
        1.20881         155.955         22.2271 
        1.21495         154.987         21.9558 
        1.22108         154.093          21.689 
         1.2272         152.975         21.4273 
        1.23334         152.986         21.1693 
        1.23949         151.108          20.915 
        1.24562         150.476         20.6655 
        1.25174         149.803         20.4205 
        1.25789         149.096         20.1787 
        1.26402          147.38         19.9413 
        1.27014         146.829         19.7082 
        1.27628         145.813         19.4782 
        1.28244          145.68         19.2514 
        1.28858         144.258         19.0285 
        1.29471         143.719         18.8097 
        1.30084         142.616         18.5945 
        1.30697          141.51         18.3823 
        1.31312         140.689         18.1731 
        1.31925         139.849         17.9679 
        1.32537         139.725          17.766 
        1.33151         138.504         17.5664 
        1.33765         137.631         17.3701 
        1.34378         136.975         17.1771 
        1.34992         136.419         16.9869 
        1.35606         135.928         16.7992 
         1.3622         134.382         16.6146 
        1.36833         133.878         16.4332 
        1.37445         133.249         16.2547 
        1.38059         132.321         16.0782 
        1.38675         131.928          15.904 
        1.39288         130.826          15.733 
        1.39901         130.393         15.5646 
        1.40515          129.45         15.3982 
         1.4113         128.948         15.2344 
        1.41742         127.702         15.0736 
        1.42355         127.512         14.9148 
         1.4297         126.429         14.7578 
        1.43585           125.8         14.6031 
        1.44198         125.653         14.4512 
        1.44809         124.732         14.3018 
        1.45423         124.301         14.1539 
        1.46036         123.198         14.0084 
        1.46649         122.505         13.8649 
        1.47263         121.769         13.7232 
        1.47877         120.925         13.5837 
        1.48491          120.17         13.4458 
        1.49104         119.957         13.3101 
        1.49718         118.813         13.1762 
        1.50333         118.111         13.0439 
        1.50947          117.62         12.9137 
         1.5156         117.084         12.7855 
        1.52172         116.524          12.659 
        1.52787         115.591          12.534 
          1.534         115.238         12.4108 
        1.54013         114.724         12.2894 
        1.54627         114.092         12.1693 
        1.55241         113.275         12.0509 
        1.55855         112.644         11.9342 
        1.56467         111.742         11.8194 
         1.5708         111.192         11.7057 
        1.57695         111.127         11.5934 
        1.58308         110.509         11.4828 
        1.58922         109.831         11.3735 
        1.59535         109.166         11.2657 
         1.6015         108.841         11.1592 
        1.60764         108.309         11.0541 
        1.61376         107.529         10.9506 
        1.61989          106.77         10.8483 
        1.62604          106.21         10.7472 
        1.63218         105.971         10.6474 
        1.63831         105.374          10.549 
        1.64444          104.68         10.4519 
        1.65059         103.855         10.3558 
        1.65673         103.644          10.261 
        1.66285         103.219         10.1676 
        1.66898         102.518         10.0754 
        1.67512         101.623         9.98407 
        1.68127         101.445         9.89384 
         1.6874          100.98         9.80491 
        1.69353         100.524         9.71713 
        1.69967         99.8306         9.63022 
        1.70581         99.0309          9.5444 
        1.71193         98.4989         9.45995 
        1.71806         98.4509         9.37634 
        1.72421         97.8451         9.29358 
        1.73035         97.5126          9.2119 
        1.73649         96.8257         9.13122 
        1.74262         96.3829         9.05157 
        1.74876         95.9018         8.97281 
        1.75489         95.2217         8.89515 
        1.76101         94.6717         8.81843 
        1.76715         94.4121         8.74251 
        1.77329         93.7008         8.66738 
        1.77943         93.5379          8.5931 
        1.78557         93.1371          8.5198 
        1.79171         92.1979         8.44734 
        1.79785         91.8549          8.3757 
        1.80399         91.3869         8.30491 
        1.81012         90.9326         8.23503 
        1.81625         90.5928         8.16598 
        1.82239         90.0026         8.09762 
        1.82853         89.4647         8.03007 
        1.83466         89.1208         7.96335 
        1.84078         88.7822         7.89746 
        1.84692         87.9972         7.83221 
        1.85306         87.8189         7.76761 
         1.8592         87.2125         7.70384 
        1.86533         86.8337         7.64083 
        1.87147         86.2468         7.57844 
        1.87761         85.6855         7.51672 
        1.88375         85.5296         7.45575 
        1.88988         84.8284         7.39553 
        1.89601         84.3968         7.33593 
        1.90215         84.0747         7.27695 
        1.90829         83.6347         7.21864 
        1.91442         83.2765         7.16095 
        1.92056         82.6983         7.10396 
         1.9267         82.3763         7.04751 
        1.93284          81.953         6.99165 
        1.93897         81.4118          6.9365 
        1.94509         81.2031         6.88206 
        1.95123         80.7351         6.82806 
        1.95737         80.2546          6.7746 
        1.96349         79.8899         6.72185 
        1.96964         79.3434         6.66951 
        1.97578         78.8966          6.6177 
        1.98192         78.7482         6.56654 
        1.98805         78.3514         6.51592 
        1.99419         77.7948         6.46582 
        2.00033         77.5576         6.41623 
        2.00647         77.1123         6.36717 
         2.0126         76.6937          6.3187 
        2.01874         76.3771         6.27067 
        2.02488         75.9566         6.22308 
        2.03101         75.5511         6.17608 
        2.03714         75.0593         6.12961 
        2.04328         74.7565         6.08356 
        2.04941         74.3802         6.03801 
        2.05554         74.0191         5.99297 
        2.06167         73.6562         5.94832 
        2.06781         73.1364         5.90412 
        2.07396         72.9614          5.8603 
        2.08009         72.6365           5.817 
        2.08622         72.1454         5.77419 
        2.09237         71.9454         5.73172 
        2.09851         71.5242         5.68967 
        2.10464         71.1503         5.64811 
        2.11077         70.6383         5.60702 
        2.11691         70.5189         5.56624 
        2.12305         70.1159         5.52586 
        2.12918         69.7497         5.48598 
        2.13531         69.3177         5.44649 
        2.14145         69.1052         5.40729 
         2.1476         68.7406         5.36844 
        2.15372          68.328         5.33016 
        2.15985         67.9541         5.29221 
        2.16599         67.6986         5.25452 
        2.17213         67.2859         5.21724 
        2.17827         66.8097         5.18033 
         2.1844         66.6613         5.14381 
        2.19054          66.207         5.10762 
        2.19666         65.9306         5.07184 
         2.2028         65.7265         5.03636 
        2.20893         65.2773          5.0012 
        2.21508         65.1097         4.96634 
        2.22122         64.6921          4.9318 
        2.22736         64.3047         4.89766 
        2.23349         64.1355         4.86385 
        2.23962         63.7725         4.83033 
        2.24577         63.5461         4.79711 
         2.2519         63.2282         4.76424 
        2.25802         62.8714         4.73173 
        2.26417         62.5636         4.69943 
        2.27031         62.2677          4.6674 
        2.27644         61.8689         4.63577 
        2.28257         61.6192         4.60442 
        2.28872          61.442         4.57331 
        2.29486         60.9411         4.54249 
        2.30099         60.5668         4.51202 
        2.30712         60.4211         4.48181 
        2.31326         60.0843         4.45182 
         2.3194         59.8211         4.42213 
        2.32553         59.6514         4.39276 
        2.33166         59.2049         4.36366 
         2.3378         58.9388         4.33479 
        2.34394         58.6764         4.30617 
        2.35007         58.4009         4.27784 
        2.35619         58.0807         4.24981 
        2.36233         57.8259         4.22196 
        2.36848         57.4264          4.1943 
        2.37462          57.331         4.16694 
        2.38075         56.9821         4.13985 
        2.38689         56.7365         4.11299 
        2.39303         56.4207         4.08636 
        2.39916         56.0846         4.05999 
        2.40529         55.9158         4.03386 
        2.41143         55.4219         4.00794 
        2.41757         55.3428         3.98224 
         2.4237         55.0999          3.9568 
        2.42983         54.7967         3.93159 
        2.43598         54.5084         3.90653 
        2.44211          54.198         3.88173 
        2.44823         54.0127         3.85721 
        2.45437         53.7873         3.83282 
        2.46052         53.5467         3.80863 
        2.46665         53.3159         3.78468 
        2.47279         52.9292         3.76095 
        2.47892          52.695         3.73741 
        2.48507         52.4488         3.71404 
         2.4912         52.1546         3.69092 
