# k  (h/Mpc)    Pcb(k)  (Mpc/h)^3    Pcb_linear(k)  (Mpc/h)^3
     0.00783031         6579.67         6614.21 
       0.013688         8169.66         8325.23 
       0.019231          8498.8         8585.63 
      0.0249154         8094.53         8084.21 
      0.0312784         7091.15         7134.53 
      0.0375637         6103.47         6173.27 
      0.0433917            5421         5434.62 
      0.0492413         4839.28         4882.42 
      0.0555754         4451.91         4462.41 
      0.0619321          4045.9         4150.27 
       0.067871         3834.26         3887.18 
      0.0738098         3573.88         3606.48 
      0.0800417         3260.74         3278.82 
      0.0862327          2910.4         2936.19 
      0.0921407         2609.47          2623.2 
      0.0982031         2359.76         2344.52 
       0.104506         2108.67         2117.19 
       0.110769          1954.9         1954.18 
       0.116806         1871.47         1843.26 
       0.122832         1763.85         1758.31 
       0.129052         1685.58         1677.15 
       0.135211         1618.18         1588.39 
       0.141259         1502.26         1487.72 
       0.147318         1380.15         1377.05 
       0.153489         1284.98         1263.59 
       0.159709          1207.8         1159.11 
       0.165845         1099.98         1073.08 
       0.171974         1066.42         1006.44 
       0.178125         1021.37         956.535 
       0.184229         956.993         918.333 
        0.19034         937.132         884.793 
       0.196428         905.932         850.418 
       0.202534         847.267         811.728 
       0.208729          825.36         767.876 
       0.214876         787.346         721.999 
       0.220989          732.09         677.426 
       0.227147          711.24         636.782 
        0.23329         681.692          602.41 
       0.239377           666.2          574.74 
       0.245482         633.233         552.295 
       0.251667          608.99          532.98 
       0.257832         602.401          514.95 
       0.263955         570.234         496.576 
       0.270079         550.303         476.891 
        0.27624         526.204         455.886 
       0.282372         512.511         434.628 
        0.28843         506.984         414.336 
       0.294538         480.893         395.574 
       0.300721         464.059         378.848 
        0.30691         456.407         364.439 
       0.313033          436.83         352.048 
       0.319153         429.462         340.865 
       0.325316         419.235           330.1 
        0.33145         408.995         319.378 
       0.337538         394.647         308.463 
       0.343633         382.402         297.348 
       0.349808         371.978         286.136 
       0.355968         363.886          275.37 
       0.362074         353.718         265.396 
       0.368217         349.168         256.235 
       0.374374         341.346          247.93 
       0.380519         327.535         240.364 
       0.386598         322.678         233.392 
       0.392688         314.867         226.681 
        0.39888         307.348          219.97 
       0.405048         301.528         213.326 
       0.411186         298.736         206.746 
       0.417313         292.848         200.303 
       0.423458         284.892          194.07 
       0.429607          278.25         188.143 
       0.435692         273.243         182.642 
       0.441815         267.975         177.475 
       0.447964         260.799         172.598 
       0.454126         256.834         167.961 
       0.460267         253.636          163.52 
       0.466387         248.618         159.209 
        0.47254         245.503         154.951 
       0.478662         238.267         150.805 
       0.484765         235.401         146.775 
       0.490885         231.983         142.859 
       0.497035         229.013         139.078 
       0.503198         226.136         135.469 
       0.509342          220.11         132.044 
       0.515458         217.537         128.787 
       0.521598         212.595         125.648 
       0.527764         210.276         122.609 
       0.533884         209.549         119.684 
           0.54           204.6         116.836 
       0.546137         200.056         114.045 
       0.552299         198.418         111.318 
       0.558452         194.943         108.681 
       0.564573          193.74         106.147 
       0.570708          189.26         103.698 
       0.576825         186.726         101.344 
       0.582926         184.739          99.079 
       0.589034         182.111         96.8903 
       0.595184         180.599         94.7588 
       0.601379         176.742         92.6764 
       0.607522         173.738         90.6674 
       0.613639         172.399         88.7184 
       0.619772         170.436          86.816 
       0.625918         169.038         84.9637 
       0.632068         165.314         83.1661 
       0.638161          163.52         81.4405 
         0.6443         162.702         79.7557 
       0.650464         159.618         78.1153 
       0.656582         158.775         76.5345 
       0.662703          157.08         74.9974 
       0.668861         153.933         73.4936 
       0.675024         153.953         72.0295 
       0.681124         151.483         70.6198 
       0.687237         149.293         69.2449 
       0.693381         148.245         67.9001 
       0.699536         146.417         66.5886 
       0.705665         144.572         65.3174 
       0.711789         142.844         64.0808 
       0.717957         141.291         62.8681 
        0.72409         140.201         61.6939 
       0.730186          139.76         60.5574 
       0.736317         137.347         59.4439 
       0.742472         135.584         58.3547 
       0.748622         133.547         57.2942 
        0.75476         133.764         56.2626 
       0.760888          132.49         55.2582 
       0.767043         130.167         54.2744 
       0.773185         128.768         53.3166 
       0.779291          127.31         52.3875 
       0.785407         126.158         51.4792 
       0.791564         125.542         50.5869 
       0.797719         123.937         49.7162 
       0.803834         123.451         48.8717 
       0.809972         122.606          48.044 
       0.816124         120.921         47.2337 
       0.822261         119.638         46.4445 
       0.828378         119.418         45.6758 
       0.834502         117.529          44.924 
       0.840667             117         44.1845 
       0.846816          115.94         43.4637 
       0.852925         114.648         42.7638 
       0.859047         113.943         42.0779 
       0.865192         112.807         41.4049 
       0.871341         111.592         40.7463 
       0.877463         110.844         40.1051 
       0.883569          110.64         39.4794 
       0.889708         109.641          38.864 
       0.895864         108.615         38.2602 
       0.902008           107.6         37.6706 
       0.908149         106.229         37.0938 
       0.914301         106.213         36.5283 
       0.920448         105.681         35.9751 
       0.926574         103.696         35.4354 
       0.932687         103.566          34.908 
       0.938823         102.725         34.3895 
       0.944975         101.567         33.8804 
       0.951105         100.761         33.3835 
       0.957225         100.669         32.8974 
       0.963368         99.4972         32.4194 
       0.969511         98.7335          31.951 
       0.975621         97.9146         31.4944 
       0.981748         97.0937         31.0456 
       0.987916         96.4771         30.6027 
        0.99406         96.0961         30.1702 
        1.00019         94.9473         29.7469 
        1.00632         94.3718         29.3322 
        1.01246         93.7601         28.9248 
        1.01859         93.3458         28.5259 
        1.02471         92.4805          28.135 
        1.03085         91.6769         27.7501 
        1.03698         91.1368         27.3733 
        1.04314         90.4683         27.0019 
        1.04929         90.0719         26.6382 
        1.05541          89.424         26.2828 
        1.06154         88.8828          25.933 
        1.06769         88.0477         25.5891 
        1.07382           87.32         25.2525 
        1.07993         87.0613         24.9228 
        1.08607         86.3229         24.5977 
        1.09222         86.0595         24.2781 
        1.09836         85.1527         23.9645 
        1.10449         84.7236         23.6569 
        1.11063          84.106         23.3544 
        1.11677         83.6346         23.0573 
         1.1229         82.9435         22.7659 
        1.12903           82.69         22.4793 
        1.13518         82.3119         22.1974 
        1.14131         81.5895         21.9206 
        1.14745         81.0247         21.6486 
        1.15359         80.1197         21.3812 
        1.15973         80.0623         21.1183 
        1.16584         79.4986         20.8609 
        1.17197         78.8717         20.6076 
        1.17811         78.4069         20.3576 
        1.18424         77.6666         20.1126 
        1.19038         77.6375         19.8708 
        1.19652          77.124         19.6332 
        1.20267         76.5243         19.3994 
        1.20881         76.0651         19.1696 
        1.21495         75.6802         18.9438 
        1.22108         75.3592         18.7217 
         1.2272          74.613         18.5037 
        1.23334         74.3739         18.2887 
        1.23949         73.8859         18.0766 
        1.24562         73.3271         17.8684 
        1.25174         72.8961         17.6639 
        1.25789         72.8859         17.4619 
        1.26402         72.2181         17.2635 
        1.27014         71.9074         17.0687 
        1.27628          71.233         16.8763 
        1.28244         71.0694         16.6864 
        1.28858         70.6065         16.4998 
        1.29471         70.2031         16.3165 
        1.30084         69.5678         16.1361 
        1.30697         69.6237         15.9581 
        1.31312         68.9943         15.7826 
        1.31925         68.5343         15.6103 
        1.32537         68.1917         15.4408 
        1.33151         67.9248         15.2732 
        1.33765         67.4654         15.1081 
        1.34378         67.1945         14.9459 
        1.34992         66.8127         14.7859 
        1.35606         66.3383         14.6279 
         1.3622         66.0678         14.4725 
        1.36833         65.5973         14.3198 
        1.37445         65.0617         14.1693 
        1.38059         64.9821         14.0206 
        1.38675         64.2832         13.8736 
        1.39288         64.3106         13.7294 
        1.39901         63.7054         13.5872 
        1.40515         63.4922         13.4468 
         1.4113          63.298         13.3084 
        1.41742         62.8686         13.1725 
        1.42355         62.5019         13.0382 
         1.4297         62.1574         12.9054 
        1.43585         61.7426         12.7745 
        1.44198         61.4067         12.6459 
        1.44809         61.0513         12.5194 
        1.45423         60.7952         12.3941 
        1.46036         60.4213         12.2707 
        1.46649         60.2617          12.149 
        1.47263         59.8887         12.0289 
        1.47877         59.6627         11.9104 
        1.48491         59.3278         11.7934 
        1.49104         58.8223         11.6781 
        1.49718         58.6241         11.5643 
        1.50333         58.3491         11.4519 
        1.50947         58.0595         11.3412 
         1.5156         57.8187         11.2321 
        1.52172         57.3876         11.1244 
        1.52787         57.0604          11.018 
          1.534         56.8505          10.913 
        1.54013         56.6856         10.8096 
        1.54627         56.1384         10.7073 
        1.55241         55.8768         10.6063 
        1.55855         55.7568         10.5067 
        1.56467         55.2836         10.4088 
         1.5708          55.191         10.3118 
        1.57695         54.8479         10.2158 
        1.58308         54.4992         10.1214 
        1.58922         54.2641          10.028 
        1.59535         54.1021         9.93588 
         1.6015         54.0074         9.84479 
        1.60764         53.5971         9.75487 
        1.61376          53.266         9.66633 
        1.61989         52.9105         9.57883 
        1.62604         52.7223         9.49221 
        1.63218         52.4384         9.40671 
        1.63831         52.3016         9.32247 
        1.64444         51.9975         9.23923 
        1.65059         51.7578         9.15682 
        1.65673         51.3896          9.0755 
        1.66285          51.284         8.99539 
        1.66898         50.7994         8.91623 
        1.67512         50.7144         8.83786 
        1.68127         50.4553         8.76037 
         1.6874         50.1613         8.68398 
        1.69353          50.026         8.60855 
        1.69967         49.8142         8.53384 
        1.70581         49.4432         8.46005 
        1.71193         49.2316          8.3874 
        1.71806         49.0014         8.31546 
        1.72421         48.8048         8.24422 
        1.73035         48.5576         8.17389 
        1.73649         48.2249          8.1044 
        1.74262         47.9043         8.03577 
        1.74876         47.8601         7.96789 
        1.75489         47.5229         7.90094 
        1.76101         47.3192         7.83477 
        1.76715         47.2874         7.76928 
        1.77329         46.7795         7.70445 
        1.77943         46.7879         7.64034 
        1.78557         46.5555         7.57705 
        1.79171         46.2961         7.51446 
        1.79785         46.0547         7.45258 
        1.80399         45.8237          7.3914 
        1.81012         45.6586         7.33099 
        1.81625          45.325         7.27129 
        1.82239         45.1384         7.21216 
        1.82853         45.0036         7.15371 
        1.83466         44.7337         7.09598 
        1.84078         44.5448         7.03894 
        1.84692         44.2931         6.98243 
        1.85306         44.0676         6.92648 
         1.8592         43.9566         6.87123 
        1.86533         43.7167         6.81661 
        1.87147         43.4964         6.76253 
        1.87761         43.2304           6.709 
        1.88375         43.1191         6.65612 
        1.88988         42.9461         6.60387 
        1.89601         42.6668         6.55215 
        1.90215         42.4946         6.50095 
        1.90829         42.2951         6.45031 
        1.91442         42.0648         6.40021 
        1.92056          41.895         6.35069 
         1.9267         41.7944         6.30165 
        1.93284         41.5114         6.25309 
        1.93897         41.4106         6.20513 
        1.94509         41.0794         6.15779 
        1.95123         40.9491         6.11081 
        1.95737          40.683          6.0643 
        1.96349         40.6106         6.01838 
        1.96964         40.3947         5.97281 
        1.97578         40.1985         5.92769 
        1.98192         39.9977         5.88313 
        1.98805         39.8001         5.83902 
        1.99419         39.6656         5.79536 
        2.00033         39.4896         5.75213 
        2.00647         39.3657         5.70935 
         2.0126         39.1149         5.66707 
        2.01874         38.9144         5.62516 
        2.02488          38.728         5.58364 
        2.03101         38.5699         5.54261 
        2.03714         38.3982         5.50204 
        2.04328          38.264         5.46182 
        2.04941         38.0475         5.42204 
        2.05554         37.9173         5.38268 
        2.06167         37.7376         5.34366 
        2.06781         37.5423         5.30503 
        2.07396          37.392         5.26672 
        2.08009         37.2393         5.22885 
        2.08622         37.0476          5.1914 
        2.09237         36.9008         5.15424 
        2.09851          36.707         5.11744 
        2.10464         36.5194         5.08106 
        2.11077         36.4184         5.04508 
        2.11691         36.1635         5.00937 
        2.12305         36.0035           4.974 
        2.12918         35.8914         4.93906 
        2.13531         35.7452         4.90445 
        2.14145         35.5881         4.87009 
         2.1476         35.3837         4.83602 
        2.15372         35.3098         4.80245 
        2.15985         35.0556         4.76916 
        2.16599          34.887         4.73609 
        2.17213         34.7689         4.70337 
        2.17827         34.6018         4.67097 
         2.1844         34.4599          4.6389 
        2.19054         34.3037         4.60713 
        2.19666         34.1101         4.57569 
         2.2028         34.0019         4.54452 
        2.20893          33.862         4.51363 
        2.21508         33.7354         4.48299 
        2.22122         33.5423         4.45262 
        2.22736         33.3413          4.4226 
        2.23349          33.234         4.39286 
        2.23962         33.1173         4.36338 
        2.24577         32.9768         4.33415 
         2.2519         32.7863         4.30522 
        2.25802         32.6661          4.2766 
        2.26417          32.483         4.24816 
        2.27031         32.4099         4.21996 
        2.27644         32.3187         4.19209 
        2.28257         32.0679         4.16448 
        2.28872         32.0192         4.13706 
        2.29486         31.8153          4.1099 
        2.30099         31.6362         4.08303 
        2.30712         31.5554         4.05639 
        2.31326          31.399         4.02995 
         2.3194         31.2584         4.00376 
        2.32553         31.1381         3.97784 
        2.33166         31.0008         3.95216 
         2.3378         30.8894         3.92668 
        2.34394         30.7217         3.90141 
        2.35007         30.6403          3.8764 
        2.35619          30.508         3.85163 
        2.36233         30.3184         3.82703 
        2.36848         30.2011         3.80259 
        2.37462         30.1129         3.77842 
        2.38075         29.9409         3.75448 
        2.38689         29.7959         3.73072 
        2.39303         29.7702         3.70718 
        2.39916         29.5164         3.68386 
        2.40529         29.3901         3.66075 
        2.41143         29.3137         3.63782 
        2.41757         29.1827         3.61507 
         2.4237         29.0612         3.59256 
        2.42983         28.9344         3.57024 
        2.43598          28.811         3.54806 
        2.44211         28.6974          3.5261 
        2.44823         28.5204         3.50437 
        2.45437         28.5033         3.48277 
        2.46052         28.3113         3.46133 
        2.46665         28.1795         3.44011 
        2.47279         28.0036         3.41907 
        2.47892         27.9527          3.3982 
        2.48507         27.8309         3.37748 
         2.4912         27.7542         3.35697 
