# k  (h/Mpc)    P(k)  (Mpc/h)^3    P_linear(k)  (Mpc/h)^3
     0.00783031         4980.19         5016.25 
       0.013688         6196.13         6308.27 
       0.019231         6442.09         6503.01 
      0.0249154         6127.31         6121.84 
      0.0312784          5375.1         5401.87 
      0.0375637         4630.16         4673.61 
      0.0433917         4108.97         4114.15 
      0.0492413         3670.61         3695.96 
      0.0555754         3375.72         3377.89 
      0.0619321         3075.79         3141.53 
       0.067871         2912.04         2942.33 
      0.0738098         2711.89         2729.81 
      0.0800417         2474.22         2481.77 
      0.0862327         2208.47         2222.41 
      0.0921407         1978.04         1985.48 
      0.0982031         1785.91         1774.54 
       0.104506         1596.68         1602.46 
       0.110769         1479.19         1479.08 
       0.116806          1414.2         1395.12 
       0.122832         1333.82         1330.82 
       0.129052         1275.91         1269.39 
       0.135211         1221.96          1202.2 
       0.141259         1135.57         1126.01 
       0.147318         1043.18         1042.24 
       0.153489         969.261         956.364 
       0.159709         907.105         877.282 
       0.165845         826.655         812.173 
       0.171974         799.085          761.73 
       0.178125         763.459         723.961 
       0.184229         718.308         695.047 
        0.19034         702.041         669.661 
       0.196428         677.545         643.643 
       0.202534         634.296         614.361 
       0.208729         615.889          581.17 
       0.214876         587.214         546.447 
       0.220989         544.489         512.711 
       0.227147         527.992         481.949 
        0.23329         505.372         455.934 
       0.239377         491.476         434.992 
       0.245482         467.539         418.004 
       0.251667         449.235         403.386 
       0.257832         444.013         389.739 
       0.263955         420.303         375.833 
       0.270079         405.114         360.934 
        0.27624          387.04         345.037 
       0.282372         375.483         328.947 
        0.28843         370.753         313.589 
       0.294538         352.016         299.389 
       0.300721         338.188         286.729 
        0.30691         332.473         275.824 
       0.313033         318.446         266.447 
       0.319153          312.99         257.983 
       0.325316         303.797         249.835 
        0.33145         295.637         241.721 
       0.337538         285.664          233.46 
       0.343633         276.646         225.048 
       0.349808         268.499         216.561 
       0.355968         261.928         208.413 
       0.362074         255.481         200.864 
       0.368217         250.835          193.93 
       0.374374         244.931         187.645 
       0.380519         234.806         181.919 
       0.386598         230.576         176.642 
       0.392688          224.59         171.563 
        0.39888         219.847         166.483 
       0.405048         215.312         161.455 
       0.411186         212.303         156.475 
       0.417313         207.371         151.598 
       0.423458         201.948         146.881 
       0.429607         197.655         142.395 
       0.435692         194.088         138.232 
       0.441815         189.374         134.321 
       0.447964         183.964          130.63 
       0.454126         180.776          127.12 
       0.460267         179.004         123.759 
       0.466387         175.117         120.496 
        0.47254         173.038         117.274 
       0.478662         167.365         114.136 
       0.484765         165.135         111.086 
       0.490885         162.024         108.122 
       0.497035         160.539         105.261 
       0.503198         157.415         102.529 
       0.509342         153.322         99.9371 
       0.515458         151.566         97.4719 
       0.521598         147.905         95.0963 
       0.527764          146.35         92.7956 
       0.533884         145.531         90.5819 
           0.54         141.691         88.4263 
       0.546137         138.446         86.3139 
       0.552299         136.787         84.2502 
       0.558452         134.303         82.2541 
       0.564573         133.686         80.3367 
       0.570708         130.047         78.4833 
       0.576825         128.568         76.7012 
       0.582926         127.168         74.9872 
       0.589034          125.14         73.3309 
       0.595184         123.791         71.7175 
       0.601379         120.828         70.1415 
       0.607522         118.977         68.6212 
       0.613639         117.955         67.1458 
       0.619772         116.133         65.7061 
       0.625918         115.089         64.3042 
       0.632068         112.898         62.9436 
       0.638161         111.207         61.6377 
         0.6443         110.625         60.3625 
       0.650464          108.42          59.121 
       0.656582          107.97         57.9246 
       0.662703         106.598         56.7613 
       0.668861         104.312         55.6231 
       0.675024         104.272          54.515 
       0.681124         102.556         53.4481 
       0.687237         100.665         52.4075 
       0.693381         100.124         51.3897 
       0.699536         98.8845         50.3971 
       0.705665         97.4219          49.435 
       0.711789         96.1687         48.4991 
       0.717957         95.0497         47.5812 
        0.72409         94.3196         46.6926 
       0.730186          93.711         45.8324 
       0.736317         92.0207         44.9896 
       0.742472         90.9682         44.1653 
       0.748622         89.6129         43.3627 
        0.75476         89.1022          42.582 
       0.760888         88.6489         41.8217 
       0.767043         86.9523         41.0772 
       0.773185         85.9656         40.3523 
       0.779291         85.0145         39.6491 
       0.785407         83.9523         38.9617 
       0.791564         83.8884         38.2863 
       0.797719          82.778         37.6273 
       0.803834          82.038         36.9882 
       0.809972          81.403         36.3617 
       0.816124         80.4428         35.7485 
       0.822261         79.4022         35.1512 
       0.828378         79.1809         34.5694 
       0.834502         78.0068         34.0004 
       0.840667         77.5468         33.4407 
       0.846816         76.7271         32.8952 
       0.852925          75.964         32.3654 
       0.859047         75.7101         31.8463 
       0.865192         74.5209          31.337 
       0.871341         73.7148         30.8385 
       0.877463         73.2605         30.3532 
       0.883569         73.0395         29.8797 
       0.889708         72.3155         29.4139 
       0.895864         71.6658         28.9569 
       0.902008          70.966         28.5107 
       0.908149         70.2036         28.0742 
       0.914301         69.8777         27.6461 
       0.920448         69.5413         27.2275 
       0.926574         68.2085          26.819 
       0.932687         67.9498         26.4198 
       0.938823          67.369         26.0274 
       0.944975          66.606         25.6421 
       0.951105         66.1104          25.266 
       0.957225         65.9303         24.8981 
       0.963368         65.2536         24.5364 
       0.969511         64.6774         24.1819 
       0.975621         64.2264         23.8363 
       0.981748         63.5703         23.4966 
       0.987916         63.1318         23.1614 
        0.99406         62.7357         22.8341 
        1.00019          62.084         22.5137 
        1.00632         61.6693         22.1999 
        1.01246         61.2229         21.8915 
        1.01859         60.9182         21.5896 
        1.02471         60.2108         21.2937 
        1.03085         59.8912         21.0024 
        1.03698         59.5054         20.7172 
        1.04314         59.0799         20.4361 
        1.04929         58.5302         20.1609 
        1.05541           58.24         19.8919 
        1.06154         57.9158         19.6272 
        1.06769         57.1542         19.3669 
        1.07382         56.8837         19.1122 
        1.07993         56.5782         18.8627 
        1.08607         56.1277         18.6166 
        1.09222         55.8994         18.3747 
        1.09836         55.3925         18.1374 
        1.10449         55.0999         17.9046 
        1.11063         54.6063         17.6756 
        1.11677         54.5075         17.4507 
         1.1229         53.9144         17.2302 
        1.12903         53.7224         17.0133 
        1.13518         53.5725         16.7999 
        1.14131         52.9663         16.5904 
        1.14745         52.5015         16.3846 
        1.15359         52.0235         16.1822 
        1.15973         51.9572         15.9832 
        1.16584         51.5785         15.7884 
        1.17197         50.9757         15.5967 
        1.17811         50.8155         15.4075 
        1.18424         50.1691          15.222 
        1.19038         50.0987         15.0391 
        1.19652         49.8761         14.8592 
        1.20267         49.5431         14.6823 
        1.20881         49.1811         14.5083 
        1.21495         48.9954         14.3375 
        1.22108            48.8         14.1694 
         1.2272         48.3667         14.0044 
        1.23334         48.0786         13.8416 
        1.23949         47.7891         13.6811 
        1.24562         47.4203         13.5236 
        1.25174         47.1335         13.3688 
        1.25789         47.1234         13.2159 
        1.26402          46.707         13.0658 
        1.27014          46.476         12.9183 
        1.27628         46.0174         12.7727 
        1.28244         45.9457          12.629 
        1.28858         45.5874         12.4878 
        1.29471         45.3614          12.349 
        1.30084         44.9842         12.2125 
        1.30697         44.9141         12.0778 
        1.31312         44.5004          11.945 
        1.31925         44.1615         11.8146 
        1.32537         43.9858         11.6862 
        1.33151         43.7037         11.5594 
        1.33765         43.5446         11.4345 
        1.34378         43.3702         11.3117 
        1.34992         43.0307         11.1906 
        1.35606         42.7728          11.071 
         1.3622         42.5216         10.9534 
        1.36833         42.3237         10.8378 
        1.37445         41.9764          10.724 
        1.38059         41.8745         10.6114 
        1.38675         41.4528         10.5002 
        1.39288         41.4231          10.391 
        1.39901         41.1124         10.2834 
        1.40515         40.9307         10.1771 
         1.4113         40.9077         10.0723 
        1.41742         40.6119         9.96947 
        1.42355         40.2407         9.86785 
         1.4297         40.0533         9.76735 
        1.43585         39.7924         9.66828 
        1.44198         39.6053         9.57097 
        1.44809         39.3844         9.47519 
        1.45423           39.26         9.38037 
        1.46036         39.0653         9.28702 
        1.46649         38.8632          9.1949 
        1.47263         38.5895         9.10397 
        1.47877         38.4475         9.01431 
        1.48491         38.3071         8.92571 
        1.49104         37.9864         8.83849 
        1.49718         37.8789         8.75237 
        1.50333         37.7506         8.66727 
        1.50947         37.4611         8.58347 
         1.5156         37.2988         8.50091 
        1.52172         37.0221         8.41943 
        1.52787         36.8976         8.33886 
          1.534         36.6904         8.25944 
        1.54013         36.6231         8.18114 
        1.54627         36.2765         8.10372 
        1.55241         36.1323         8.02728 
        1.55855         36.0417         7.95195 
        1.56467         35.8633         7.87779 
         1.5708         35.6811         7.80436 
        1.57695         35.5043         7.73177 
        1.58308         35.2014         7.66027 
        1.58922         35.0436         7.58962 
        1.59535         34.9432         7.51989 
         1.6015         34.8412         7.45095 
        1.60764         34.6388          7.3829 
        1.61376         34.4278         7.31589 
        1.61989         34.2008         7.24966 
        1.62604         34.0789          7.1841 
        1.63218          33.923          7.1194 
        1.63831         33.8108         7.05564 
        1.64444         33.6144         6.99264 
        1.65059         33.4511         6.93026 
        1.65673         33.2995         6.86872 
        1.66285         33.2185         6.80809 
        1.66898         32.9431         6.74817 
        1.67512         32.8903         6.68887 
        1.68127          32.702         6.63022 
         1.6874           32.53          6.5724 
        1.69353         32.4457         6.51531 
        1.69967         32.2884         6.45877 
        1.70581         32.0134         6.40292 
        1.71193         31.8696         6.34794 
        1.71806          31.807         6.29349 
        1.72421           31.68         6.23957 
        1.73035          31.487         6.18634 
        1.73649         31.2823         6.13375 
        1.74262         31.1065         6.08181 
        1.74876         31.0255         6.03043 
        1.75489         30.8781         5.97976 
        1.76101         30.7727         5.92969 
        1.76715         30.6599         5.88012 
        1.77329         30.4254         5.83105 
        1.77943           30.38         5.78253 
        1.78557         30.2255         5.73463 
        1.79171         30.0946         5.68726 
        1.79785         29.9512         5.64042 
        1.80399          29.817         5.59412 
        1.81012         29.7261          5.5484 
        1.81625         29.4861         5.50321 
        1.82239          29.398         5.45846 
        1.82853         29.2681         5.41423 
        1.83466         29.1233         5.37053 
        1.84078         28.9787         5.32736 
        1.84692         28.9041          5.2846 
        1.85306         28.7015         5.24225 
         1.8592         28.6575         5.20043 
        1.86533         28.4689          5.1591 
        1.87147         28.3397         5.11816 
        1.87761         28.2173         5.07765 
        1.88375         28.1835         5.03763 
        1.88988         27.9678         4.99809 
        1.89601         27.8359         4.95894 
        1.90215         27.7382         4.92019 
        1.90829         27.6608         4.88187 
        1.91442         27.4477         4.84395 
        1.92056         27.3868         4.80647 
         1.9267         27.2834         4.76935 
        1.93284         27.1865          4.7326 
        1.93897         27.0612         4.69631 
        1.94509         26.9459         4.66047 
        1.95123         26.8169         4.62492 
        1.95737         26.6994         4.58971 
        1.96349         26.5714         4.55496 
        1.96964         26.5778         4.52047 
        1.97578          26.315         4.48633 
        1.98192         26.2409          4.4526 
        1.98805         26.0379         4.41922 
        1.99419         26.0425         4.38617 
        2.00033         25.8849         4.35345 
        2.00647         25.8206         4.32107 
         2.0126         25.6617         4.28908 
        2.01874         25.5509         4.25736 
        2.02488         25.4262         4.22593 
        2.03101         25.2977         4.19488 
        2.03714         25.2233         4.16417 
        2.04328         25.1291         4.13373 
        2.04941         25.0093         4.10363 
        2.05554         24.9541         4.07384 
        2.06167         24.8026         4.04431 
        2.06781         24.7331         4.01507 
        2.07396         24.6569         3.98607 
        2.08009         24.5065         3.95741 
        2.08622         24.4061         3.92907 
        2.09237         24.3574         3.90095 
        2.09851         24.1536          3.8731 
        2.10464         24.0567         3.84556 
        2.11077         24.0507         3.81833 
        2.11691         23.8985          3.7913 
        2.12305         23.8184         3.76453 
        2.12918         23.7249         3.73809 
        2.13531         23.6299         3.71189 
        2.14145         23.4978         3.68589 
         2.1476         23.3642          3.6601 
        2.15372         23.3063         3.63469 
        2.15985         23.2316          3.6095 
        2.16599         23.1104         3.58447 
        2.17213         23.0594         3.55971 
        2.17827         22.8962         3.53519 
         2.1844         22.8389         3.51092 
        2.19054         22.7949         3.48687 
        2.19666         22.6514         3.46308 
         2.2028         22.6147         3.43949 
        2.20893         22.4371          3.4161 
        2.21508         22.3724         3.39291 
        2.22122         22.2572         3.36993 
        2.22736         22.2371         3.34721 
        2.23349         22.0816          3.3247 
        2.23962         22.0482         3.30239 
        2.24577         21.9294         3.28026 
         2.2519         21.8644         3.25837 
        2.25802         21.6976         3.23671 
        2.26417         21.6485         3.21519 
        2.27031         21.5922         3.19384 
        2.27644         21.5458         3.17275 
        2.28257         21.4109         3.15185 
        2.28872         21.3756          3.1311 
        2.29486         21.2578         3.11054 
        2.30099         21.1374         3.09021 
        2.30712         21.0785         3.07005 
        2.31326         20.9737         3.05003 
         2.3194         20.9008         3.03021 
        2.32553         20.8451         3.01059 
        2.33166         20.7056         2.99116 
         2.3378         20.6912         2.97187 
        2.34394         20.5583         2.95275 
        2.35007         20.5032         2.93382 
        2.35619         20.4371         2.91508 
        2.36233         20.3217         2.89646 
        2.36848         20.2359         2.87796 
        2.37462         20.1712         2.85967 
        2.38075         20.0924         2.84155 
        2.38689         19.9962         2.82357 
        2.39303         19.9433         2.80575 
        2.39916         19.8296          2.7881 
        2.40529          19.768         2.77061 
        2.41143         19.6896         2.75325 
        2.41757         19.5836         2.73604 
         2.4237         19.5219           2.719 
        2.42983           19.47         2.70211 
        2.43598         19.3727         2.68532 
        2.44211         19.3064          2.6687 
        2.44823         19.2477         2.65225 
        2.45437         19.1894          2.6359 
        2.46052         19.0654         2.61968 
        2.46665         19.0547         2.60362 
        2.47279         18.9087          2.5877 
        2.47892         18.8578          2.5719 
        2.48507          18.793         2.55622 
         2.4912         18.7192          2.5407 
