# k  (h/Mpc)    Pcb(k)  (Mpc/h)^3    Pcb_linear(k)  (Mpc/h)^3
     0.00783031         10741.3         10883.5 
       0.013688         14143.3         14043.6 
       0.019231         14866.2         14867.5 
      0.0249154         14126.8         14420.3 
      0.0312784         13003.1         13176.5 
      0.0375637         11708.6         11774.9 
      0.0433917         10371.3         10619.5 
      0.0492413          9555.3         9696.29 
      0.0555754         8609.67         8938.76 
      0.0619321         8260.27         8335.29 
       0.067871          7533.4         7816.84 
      0.0738098         7005.59         7278.75 
      0.0800417         6339.28            6673 
      0.0862327         5818.16         6053.23 
      0.0921407         5352.98         5488.56 
      0.0982031         4834.19         4978.31 
       0.104506         4544.91          4547.7 
       0.110769         4213.53         4220.88 
       0.116806         3952.02         3981.17 
       0.122832         3772.15          3785.6 
       0.129052         3513.61         3598.03 
       0.135211          3338.6         3403.82 
       0.141259          3194.6         3196.83 
       0.147318         3015.67         2978.59 
       0.153489         2775.37         2759.03 
       0.159709         2629.96         2556.33 
       0.165845         2533.19         2385.56 
       0.171974          2387.1         2247.28 
       0.178125         2273.71         2136.93 
       0.184229         2186.27         2046.74 
        0.19034         2061.83         1965.33 
       0.196428         2027.37         1884.31 
       0.202534         1955.74         1798.24 
       0.208729         1868.92         1705.61 
       0.214876         1786.06         1611.81 
       0.220989         1731.73         1521.75 
       0.227147         1650.84         1438.99 
        0.23329          1588.5         1367.18 
       0.239377         1565.44         1306.95 
       0.245482         1468.83         1255.57 
       0.251667          1461.5         1209.55 
       0.257832         1407.44         1166.32 
       0.263955         1362.89         1123.39 
       0.270079         1319.16         1079.21 
        0.27624         1306.14         1033.77 
       0.282372         1250.03         988.767 
        0.28843         1239.76         946.149 
       0.294538          1180.1         906.389 
       0.300721         1176.25         870.212 
        0.30691         1127.49         838.035 
       0.313033         1107.07         809.479 
       0.319153         1087.02         783.143 
       0.325316          1051.7         757.771 
        0.33145         1027.86          732.87 
       0.337538         1014.52         708.174 
       0.343633         988.544         683.536 
       0.349808          957.18         659.086 
       0.355968         951.976         635.672 
       0.362074         940.091         613.879 
       0.368217         913.049         593.547 
       0.374374         878.135         574.754 
       0.380519         877.261         557.335 
       0.386598         856.581          541.06 
       0.392688         853.785         525.406 
        0.39888         829.053         509.873 
       0.405048         817.589         494.674 
       0.411186          805.48         479.852 
       0.417313         789.592         465.441 
       0.423458         777.749         451.527 
       0.429607         765.028         438.277 
       0.435692         749.325          425.86 
       0.441815         745.318         414.049 
       0.447964          729.31         402.817 
       0.454126         717.994         392.062 
       0.460267         704.896         381.727 
       0.466387         697.134          371.74 
        0.47254         687.104         361.961 
       0.478662         684.157         352.473 
       0.484765         665.606         343.291 
       0.490885          660.62         334.402 
       0.497035         647.674          325.81 
       0.503198         641.629         317.552 
       0.509342         635.341         309.667 
       0.515458          631.32         302.144 
       0.521598         617.732         294.873 
       0.527764         604.654         287.811 
       0.533884         604.379         281.011 
           0.54         596.561         274.414 
       0.546137         593.922         267.983 
       0.552299         583.845         261.712 
       0.558452         580.961         255.641 
       0.564573         571.883         249.798 
       0.570708         565.377         244.143 
       0.576825          551.31         238.702 
       0.582926         552.421         233.457 
       0.589034         547.454         228.372 
       0.595184         542.017         223.405 
       0.601379         535.675          218.55 
       0.607522         528.116         213.875 
       0.613639         527.933         209.352 
       0.619772             514         204.943 
       0.625918         512.981          200.65 
       0.632068         506.139         196.476 
       0.638161         504.341         192.462 
         0.6443         494.546         188.536 
       0.650464         492.515         184.712 
       0.656582         491.065         181.028 
       0.662703         487.341         177.445 
       0.668861         478.626         173.939 
       0.675024         475.186         170.524 
       0.681124         472.433         167.233 
       0.687237         467.957          164.02 
       0.693381          462.23         160.876 
       0.699536         456.303          157.81 
       0.705665         454.692         154.839 
       0.711789         450.911         151.949 
       0.717957         446.938         149.114 
        0.72409         443.622          146.37 
       0.730186         438.854         143.712 
       0.736317         435.249         141.106 
       0.742472          433.83         138.555 
       0.748622         428.603         136.069 
        0.75476          423.83          133.65 
       0.760888         419.245         131.293 
       0.767043         419.905         128.983 
       0.773185         414.205         126.735 
       0.779291         409.272         124.553 
       0.785407         407.123         122.421 
       0.791564         402.626         120.325 
       0.797719         400.344          118.28 
       0.803834          397.27         116.297 
       0.809972         395.055         114.352 
       0.816124         394.955         112.447 
       0.822261         388.377         110.592 
       0.828378         386.494         108.784 
       0.834502         383.785         107.015 
       0.840667         379.188         105.274 
       0.846816         377.792         103.577 
       0.852925         374.268         101.929 
       0.859047          373.51         100.313 
       0.865192         369.587         98.7271 
       0.871341         366.601         97.1747 
       0.877463         364.436          95.663 
       0.883569         362.009         94.1875 
       0.889708         359.134         92.7358 
       0.895864         355.328         91.3112 
       0.902008         354.108         89.9197 
       0.908149         351.844         88.5583 
       0.914301         347.779          87.223 
       0.920448          345.28         85.9167 
       0.926574         341.876         84.6419 
       0.932687         342.377         83.3959 
       0.938823         338.041         82.1705 
       0.944975          337.52         80.9671 
       0.951105         334.084         79.7923 
       0.957225          331.56         78.6429 
       0.963368         327.871         77.5124 
       0.969511         326.342         76.4042 
       0.975621          323.67         75.3237 
       0.981748         323.787         74.2615 
       0.987916         320.681         73.2132 
        0.99406         315.962         72.1891 
        1.00019         316.094         71.1867 
        1.00632          313.88         70.2044 
        1.01246         311.119         69.2392 
        1.01859         311.376         68.2938 
        1.02471         307.128         67.3674 
        1.03085         304.485          66.455 
        1.03698         303.727         65.5615 
        1.04314         300.903         64.6807 
        1.04929         298.582         63.8183 
        1.05541         298.221         62.9751 
        1.06154         294.289         62.1452 
        1.06769         293.253          61.329 
        1.07382         291.638         60.5303 
        1.07993         289.378         59.7476 
        1.08607         288.513         58.9757 
        1.09222         286.169         58.2166 
        1.09836         283.794         57.4719 
        1.10449         281.045         56.7411 
        1.11063         278.859         56.0223 
        1.11677         278.495         55.3163 
         1.1229         276.642         54.6238 
        1.12903         274.355         53.9425 
        1.13518         272.554         53.2723 
        1.14131         270.811          52.614 
        1.14745          270.11         51.9672 
        1.15359         267.518         51.3312 
        1.15973         266.507         50.7056 
        1.16584         263.843         50.0933 
        1.17197         263.443         49.4903 
        1.17811         260.956         48.8954 
        1.18424         259.226         48.3121 
        1.19038         258.128         47.7366 
        1.19652         256.189         47.1707 
        1.20267         255.513         46.6141 
        1.20881         253.274         46.0665 
        1.21495         251.354         45.5287 
        1.22108          250.31         44.9995 
         1.2272         248.443         44.4801 
        1.23334         246.877         43.9676 
        1.23949         245.662          43.462 
        1.24562         244.307         42.9658 
        1.25174         241.533         42.4781 
        1.25789         240.135         41.9965 
        1.26402         239.188         41.5233 
        1.27014         237.518         41.0585 
        1.27628         236.208         40.5995 
        1.28244         235.638         40.1467 
        1.28858         233.252         39.7013 
        1.29471         231.171         39.2638 
        1.30084         230.299         38.8333 
        1.30697         228.697         38.4086 
        1.31312         227.051         37.9896 
        1.31925          226.82         37.5783 
        1.32537         225.282         37.1734 
        1.33151         223.188         36.7731 
        1.33765         221.779          36.379 
        1.34378         220.877         35.9914 
        1.34992         219.589         35.6092 
        1.35606         219.152         35.2318 
         1.3622         217.364         34.8605 
        1.36833         215.197         34.4955 
        1.37445         213.962         34.1359 
        1.38059         212.495         33.7803 
        1.38675         211.618          33.429 
        1.39288         209.983         33.0841 
        1.39901         209.817         32.7442 
        1.40515           207.9         32.4083 
         1.4113         206.311         32.0773 
        1.41742         205.528         31.7522 
        1.42355         203.531          31.431 
         1.4297         202.634         31.1132 
        1.43585         201.124            30.8 
        1.44198         200.156         30.4923 
        1.44809         199.366         30.1894 
        1.45423         197.577         29.8895 
        1.46036             197         29.5943 
        1.46649         195.406         29.3029 
        1.47263         194.044         29.0152 
        1.47877         193.203         28.7315 
        1.48491         191.648         28.4512 
        1.49104         191.057         28.1752 
        1.49718         188.981         27.9027 
        1.50333         188.343         27.6333 
        1.50947         187.475         27.3681 
         1.5156         185.882         27.1067 
        1.52172         184.878         26.8488 
        1.52787         183.584         26.5937 
          1.534         183.098         26.3422 
        1.54013         181.371         26.0943 
        1.54627         180.812         25.8491 
        1.55241         179.301          25.607 
        1.55855         178.314         25.3683 
        1.56467         177.194         25.1334 
         1.5708         176.567         24.9008 
        1.57695         174.924         24.6708 
        1.58308         174.496         24.4442 
        1.58922         173.063         24.2203 
        1.59535         171.832         23.9993 
         1.6015         171.464         23.7808 
        1.60764         170.033         23.5651 
        1.61376          168.78         23.3526 
        1.61989         167.929         23.1427 
        1.62604         167.161         22.9348 
        1.63218          166.14         22.7296 
        1.63831         165.066         22.5274 
        1.64444         164.333         22.3276 
        1.65059          163.12         22.1297 
        1.65673         162.099         21.9345 
        1.66285         161.512         21.7422 
        1.66898         160.463         21.5521 
        1.67512         159.819         21.3639 
        1.68127         158.235         21.1778 
         1.6874         157.011         20.9943 
        1.69353          156.75         20.8131 
        1.69967         155.559         20.6336 
        1.70581         154.694         20.4564 
        1.71193         153.597         20.2818 
        1.71806          153.14          20.109 
        1.72421          152.06         19.9378 
        1.73035         151.324         19.7688 
        1.73649         150.627         19.6018 
        1.74262         149.344         19.4369 
        1.74876         148.879         19.2737 
        1.75489         147.433         19.1128 
        1.76101         146.843         18.9538 
        1.76715         146.109         18.7963 
        1.77329         145.575         18.6405 
        1.77943         144.286         18.4863 
        1.78557          143.51         18.3341 
        1.79171         142.704         18.1836 
        1.79785         141.782         18.0348 
        1.80399         141.091         17.8877 
        1.81012         140.223         17.7424 
        1.81625          139.44         17.5987 
        1.82239         138.806         17.4565 
        1.82853          138.12         17.3159 
        1.83466          137.21          17.177 
        1.84078         136.535         17.0398 
        1.84692         135.413         16.9038 
        1.85306         134.962         16.7691 
         1.8592         133.828         16.6362 
        1.86533         132.991         16.5047 
        1.87147         132.287         16.3746 
        1.87761         131.916         16.2457 
        1.88375         130.497         16.1184 
        1.88988         129.966         15.9926 
        1.89601         129.064         15.8681 
        1.90215         128.505         15.7448 
        1.90829          127.92         15.6229 
        1.91442          127.29         15.5023 
        1.92056         126.453          15.383 
         1.9267         125.827         15.2649 
        1.93284         125.216         15.1479 
        1.93897          124.27         15.0324 
        1.94509         123.899         14.9184 
        1.95123         123.078         14.8052 
        1.95737           122.4         14.6931 
        1.96349         121.659         14.5825 
        1.96964         120.686         14.4727 
        1.97578           120.1          14.364 
        1.98192         119.548         14.2566 
        1.98805          118.52         14.1503 
        1.99419         118.182         14.0451 
        2.00033         117.527         13.9409 
        2.00647         116.918         13.8378 
         2.0126         116.111         13.7359 
        2.01874         115.473         13.6349 
        2.02488         115.083         13.5348 
        2.03101         114.029         13.4359 
        2.03714         113.415         13.3381 
        2.04328         112.988         13.2411 
        2.04941         112.191         13.1452 
        2.05554         111.434         13.0503 
        2.06167         111.123         12.9562 
        2.06781         110.659         12.8631 
        2.07396         109.642         12.7707 
        2.08009         109.035         12.6793 
        2.08622          108.74          12.589 
        2.09237         107.745         12.4994 
        2.09851         107.409         12.4106 
        2.10464         106.661         12.3229 
        2.11077         106.257         12.2361 
        2.11691         105.691         12.1499 
        2.12305         104.819         12.0646 
        2.12918          104.29         11.9803 
        2.13531         103.807         11.8968 
        2.14145         103.053         11.8139 
         2.1476         102.548         11.7317 
        2.15372         102.088         11.6506 
        2.15985         101.599         11.5703 
        2.16599         101.113         11.4905 
        2.17213         100.202         11.4115 
        2.17827         100.038         11.3333 
         2.1844         99.2139         11.2559 
        2.19054          98.874         11.1792 
        2.19666         98.3518         11.1033 
         2.2028         97.8214         11.0281 
        2.20893         97.0789         10.9535 
        2.21508         96.4512         10.8795 
        2.22122          96.076         10.8062 
        2.22736         95.5257         10.7337 
        2.23349         95.2395         10.6619 
        2.23962         94.5071         10.5907 
        2.24577         94.0855         10.5201 
         2.2519         93.6836         10.4502 
        2.25802         92.8131         10.3811 
        2.26417         92.5354         10.3124 
        2.27031         91.9767         10.2443 
        2.27644         91.4901         10.1769 
        2.28257         90.9579         10.1102 
        2.28872         90.4154          10.044 
        2.29486         90.0499         9.97838 
        2.30099         89.5366         9.91347 
        2.30712         88.9332         9.84911 
        2.31326         88.6372         9.78521 
         2.3194         88.0245         9.72192 
        2.32553         87.5798         9.65929 
        2.33166         87.0646         9.59724 
         2.3378         86.6192         9.53565 
        2.34394         86.2677         9.47459 
        2.35007         85.6399         9.41414 
        2.35619         85.1469         9.35429 
        2.36233         84.7878         9.29482 
        2.36848         84.2535         9.23574 
        2.37462         83.8257          9.1773 
        2.38075         83.5154         9.11943 
        2.38689         82.8578           9.062 
        2.39303         82.4223         9.00508 
        2.39916          82.008          8.9487 
        2.40529         81.7728         8.89282 
        2.41143         81.2559         8.83737 
        2.41757         80.7486         8.78236 
         2.4237           80.45         8.72793 
        2.42983           79.95         8.67396 
        2.43598         79.5293         8.62031 
        2.44211         79.1529          8.5672 
        2.44823         78.6931         8.51465 
        2.45437         78.2618         8.46241 
        2.46052          77.729         8.41055 
        2.46665         77.3865         8.35922 
        2.47279         76.9948         8.30834 
        2.47892         76.6162         8.25785 
        2.48507         76.1564         8.20773 
         2.4912         75.7875         8.15812 
