# k  (h/Mpc)    P(k)  (Mpc/h)^3    P_linear(k)  (Mpc/h)^3
     0.00783031         165.422         166.952 
       0.013688          209.92         210.682 
       0.019231          219.03         219.192 
      0.0249154         208.725         209.367 
      0.0312784         188.127         188.183 
      0.0375637          165.55          165.27 
      0.0433917         146.573          146.51 
      0.0492413         131.762         131.538 
      0.0555754         119.408         119.452 
      0.0619321         110.685         110.356 
       0.067871         103.147         103.196 
      0.0738098         96.1491         96.2408 
      0.0800417         88.3576         88.5491 
      0.0862327         80.4558          80.498 
      0.0921407         72.8609         72.8382 
      0.0982031         65.5231         65.5553 
       0.104506         59.2599         59.0849 
       0.110769         54.1334         53.9852 
       0.116806         50.2464          50.252 
       0.122832         47.4982         47.4107 
       0.129052         44.9913         45.0223 
       0.135211         42.7669         42.8273 
       0.141259         40.5931         40.5789 
       0.147318         38.2234         38.1337 
       0.153489         35.5268         35.4936 
       0.159709         32.8791         32.8348 
       0.165845         30.5625         30.3916 
       0.171974         28.3157         28.2662 
       0.178125         26.5853         26.5081 
       0.184229         25.2271         25.1141 
        0.19034          23.999         23.9883 
       0.196428         23.0917         23.0259 
       0.202534         22.2569          22.114 
       0.208729         21.2462         21.1646 
       0.214876         20.1964         20.1649 
       0.220989         19.2555         19.1246 
       0.227147         18.1098         18.0727 
        0.23329         17.1167         17.0718 
       0.239377         16.2372         16.1712 
       0.245482          15.419         15.3818 
       0.251667         14.8011         14.6992 
       0.257832         14.1904         14.1158 
       0.263955          13.688         13.6014 
       0.270079         13.2068         13.1192 
        0.27624         12.7702         12.6409 
       0.282372         12.2815         12.1577 
        0.28843         11.7603         11.6726 
       0.294538         11.2783         11.1841 
       0.300721         10.8375          10.705 
        0.30691         10.3465         10.2541 
       0.313033         9.94842         9.84582 
       0.319153         9.52489         9.47726 
       0.325316         9.27002          9.1429 
        0.33145         8.95325         8.83843 
       0.337538         8.66332         8.55516 
       0.343633         8.37362         8.28177 
       0.349808         8.11834         8.00993 
       0.355968         7.85116         7.74126 
       0.362074         7.58059         7.47885 
       0.368217         7.32897         7.22176 
       0.374374         7.05847         6.97463 
       0.380519         6.84803         6.74181 
       0.386598         6.64216         6.52613 
       0.392688         6.45139         6.32472 
        0.39888         6.24966           6.133 
       0.405048         6.07287         5.95245 
       0.411186         5.90523          5.7806 
       0.417313         5.72285         5.61451 
       0.423458         5.57273         5.45211 
       0.429607         5.39973          5.2937 
       0.435692         5.24634         5.14117 
       0.441815         5.10198         4.99274 
       0.447964         4.97774         4.84976 
       0.454126         4.81952           4.713 
       0.460267         4.68964         4.58323 
       0.466387         4.55818         4.46023 
        0.47254         4.44785         4.34213 
       0.478662         4.34051         4.22931 
       0.484765         4.22251         4.12082 
       0.490885         4.11809          4.0155 
       0.497035         4.03747         3.91271 
       0.503198         3.92531         3.81271 
       0.509342         3.83317         3.71613 
       0.515458         3.73292         3.62323 
       0.521598         3.64517         3.53326 
       0.527764          3.5487         3.44625 
       0.533884         3.47934          3.3632 
           0.54         3.39482         3.28334 
       0.546137         3.32156         3.20603 
       0.552299         3.24481         3.13098 
       0.558452         3.16137         3.05843 
       0.564573         3.09904         2.98845 
       0.570708         3.03059         2.92039 
       0.576825         2.95804          2.8545 
       0.582926         2.90223         2.79074 
       0.589034         2.82298         2.72884 
       0.595184         2.76771          2.6685 
       0.601379         2.70815         2.60968 
       0.607522         2.65916         2.55321 
       0.613639          2.6129         2.49871 
       0.619772         2.54551         2.44573 
       0.625918          2.4989          2.3942 
       0.632068         2.45436         2.34415 
       0.638161         2.39901         2.29596 
         0.6443         2.35008         2.24876 
       0.650464         2.29803         2.20268 
       0.656582          2.2603         2.15821 
       0.662703         2.21702         2.11496 
       0.668861         2.18025         2.07266 
       0.675024         2.13265         2.03153 
       0.681124         2.08699         1.99197 
       0.687237          2.0557          1.9534 
       0.693381         2.01835         1.91569 
       0.699536         1.96874         1.87892 
       0.705665         1.93607         1.84328 
       0.711789         1.90483         1.80859 
       0.717957         1.86651         1.77456 
        0.72409         1.83519         1.74159 
       0.730186         1.80087         1.70967 
       0.736317         1.77797         1.67839 
       0.742472         1.74485         1.64778 
       0.748622         1.71117         1.61798 
        0.75476         1.67764         1.58898 
       0.760888         1.64876         1.56075 
       0.767043         1.63001         1.53309 
       0.773185         1.59598         1.50617 
       0.779291         1.57066         1.48006 
       0.785407         1.54517         1.45453 
       0.791564         1.52044         1.42945 
       0.797719         1.49803         1.40499 
       0.803834         1.47429         1.38125 
       0.809972         1.44922         1.35798 
       0.816124         1.42376         1.33521 
       0.822261         1.39874         1.31302 
       0.828378         1.38016         1.29141 
       0.834502         1.36158         1.27027 
       0.840667         1.33376         1.24947 
       0.846816         1.31386          1.2292 
       0.852925         1.29919         1.20951 
       0.859047         1.27874         1.19021 
       0.865192          1.2571         1.17127 
       0.871341          1.2382         1.15274 
       0.877463         1.22409         1.13469 
       0.883569         1.20204         1.11708 
       0.889708         1.18365         1.09976 
       0.895864         1.16696         1.08276 
       0.902008         1.14766         1.06615 
       0.908149          1.1318         1.04991 
       0.914301          1.1105         1.03398 
       0.920448         1.09719          1.0184 
       0.926574         1.08081          1.0032 
       0.932687         1.06551        0.988336 
       0.938823         1.05515        0.973727 
       0.944975         1.03858        0.959381 
       0.951105         1.02529        0.945377 
       0.957225         1.01343        0.931678 
       0.963368        0.998214        0.918206 
       0.969511        0.982574        0.905002 
       0.975621        0.967442         0.89213 
       0.981748        0.958682        0.879477 
       0.987916        0.944455        0.866991 
        0.99406        0.930397        0.854796 
        1.00019        0.921107        0.842862 
        1.00632        0.905187        0.831168 
        1.01246        0.893675         0.81968 
        1.01859        0.883782         0.80843 
        1.02471         0.87105        0.797406 
        1.03085         0.86297        0.786551 
        1.03698        0.849359        0.775922 
        1.04314        0.839615        0.765447 
        1.04929        0.827322         0.75519 
        1.05541        0.818852        0.745164 
        1.06154        0.807119        0.735297 
        1.06769         0.79612        0.725595 
        1.07382        0.787611        0.716101 
        1.07993        0.775601        0.706799 
        1.08607        0.770112        0.697625 
        1.09222        0.758159        0.688606 
        1.09836        0.752237        0.679757 
        1.10449        0.742341        0.671075 
        1.11063        0.731305        0.662536 
        1.11677        0.721276         0.65415 
         1.1229        0.714424        0.645924 
        1.12903        0.704739        0.637832 
        1.13518        0.698337        0.629874 
        1.14131        0.688862        0.622056 
        1.14745        0.677381        0.614375 
        1.15359        0.672614        0.606824 
        1.15973        0.662521        0.599397 
        1.16584        0.658528        0.592128 
        1.17197         0.64982        0.584969 
        1.17811        0.643133        0.577908 
        1.18424        0.637618        0.570983 
        1.19038        0.628386        0.564153 
        1.19652        0.619603        0.557437 
        1.20267        0.615486        0.550831 
        1.20881        0.606995        0.544334 
        1.21495        0.602134        0.537952 
        1.22108         0.59508        0.531675 
         1.2272        0.589339        0.525512 
        1.23334        0.582009        0.519434 
        1.23949        0.575695        0.513438 
        1.24562        0.569697        0.507553 
        1.25174        0.564028         0.50177 
        1.25789        0.558567         0.49606 
        1.26402         0.55062         0.49045 
        1.27014        0.545434        0.484941 
        1.27628        0.541179          0.4795 
        1.28244        0.532989        0.474132 
        1.28858          0.5285        0.468854 
        1.29471        0.524485        0.463669 
        1.30084        0.517712        0.458568 
        1.30697        0.512408        0.453535 
        1.31312        0.505226        0.448572 
        1.31925        0.501267        0.443699 
        1.32537        0.497142        0.438903 
        1.33151        0.492786        0.434161 
        1.33765        0.487411        0.429493 
        1.34378        0.481082        0.424903 
        1.34992        0.477566        0.420376 
        1.35606        0.472257        0.415906 
         1.3622        0.467741         0.41151 
        1.36833        0.462966        0.407187 
        1.37445        0.457146        0.402929 
        1.38059        0.453068        0.398719 
        1.38675        0.451454         0.39456 
        1.39288        0.445514        0.390476 
        1.39901        0.441529        0.386453 
        1.40515        0.437629        0.382477 
         1.4113        0.432438        0.378559 
        1.41742        0.428409         0.37471 
        1.42355        0.425893        0.370909 
         1.4297        0.420324        0.367148 
        1.43585        0.416931        0.363442 
        1.44198        0.414281          0.3598 
        1.44809        0.409116        0.356216 
        1.45423        0.405534        0.352668 
        1.46036        0.401671        0.349174 
        1.46649        0.398771        0.345726 
        1.47263        0.394445        0.342323 
        1.47877        0.390075        0.338966 
        1.48491        0.387224         0.33565 
        1.49104        0.382841        0.332385 
        1.49718        0.379907        0.329161 
        1.50333        0.377291        0.325975 
        1.50947        0.373571        0.322838 
         1.5156        0.369731        0.319747 
        1.52172        0.366867        0.316696 
        1.52787        0.363374         0.31368 
          1.534        0.360202        0.310706 
        1.54013        0.356561        0.307774 
        1.54627         0.35427        0.304875 
        1.55241        0.350517        0.302013 
        1.55855        0.346933        0.299192 
        1.56467        0.345806        0.296415 
         1.5708         0.34176        0.293665 
        1.57695        0.339012        0.290946 
        1.58308        0.335912        0.288268 
        1.58922        0.333391        0.285622 
        1.59535         0.33029         0.28301 
         1.6015        0.327352        0.280427 
        1.60764        0.325047        0.277878 
        1.61376        0.321327        0.275368 
        1.61989        0.319328        0.272886 
        1.62604        0.316802         0.27043 
        1.63218        0.314465        0.268006 
        1.63831         0.31185        0.265617 
        1.64444         0.30915        0.263256 
        1.65059        0.306678        0.260919 
        1.65673        0.304113        0.258612 
        1.66285        0.302024         0.25634 
        1.66898        0.299594        0.254094 
        1.67512        0.296512        0.251871 
        1.68127        0.293959        0.249673 
         1.6874        0.292508        0.247506 
        1.69353        0.289461        0.245365 
        1.69967        0.287886        0.243245 
        1.70581        0.284827        0.241151 
        1.71193        0.282852         0.23909 
        1.71806        0.280214        0.237048 
        1.72421        0.278844        0.235027 
        1.73035        0.276056        0.233031 
        1.73649        0.274439        0.231059 
        1.74262        0.272083        0.229111 
        1.74876        0.269835        0.227184 
        1.75489        0.268097        0.225284 
        1.76101         0.26549        0.223406 
        1.76715        0.263572        0.221547 
        1.77329        0.261267        0.219707 
        1.77943        0.259502        0.217887 
        1.78557        0.257983         0.21609 
        1.79171        0.255986        0.214313 
        1.79785        0.253883        0.212556 
        1.80399        0.251922        0.210819 
        1.81012        0.250292        0.209104 
        1.81625        0.248248        0.207409 
        1.82239        0.246628         0.20573 
        1.82853        0.244279         0.20407 
        1.83466        0.242862        0.202431 
        1.84078        0.240859        0.200811 
        1.84692        0.239133        0.199206 
        1.85306        0.237727        0.197617 
         1.8592        0.235651        0.196048 
        1.86533        0.234359        0.194497 
        1.87147         0.23253        0.192961 
        1.87761        0.231125        0.191441 
        1.88375        0.228892        0.189939 
        1.88988        0.227473        0.188454 
        1.89601        0.225626        0.186985 
        1.90215        0.224392        0.185531 
        1.90829        0.222405        0.184092 
        1.91442        0.221386        0.182669 
        1.92056          0.2194        0.181262 
         1.9267        0.217682        0.179868 
        1.93284        0.216281        0.178488 
        1.93897        0.214729        0.177126 
        1.94509        0.213671         0.17578 
        1.95123        0.211872        0.174445 
        1.95737        0.210786        0.173123 
        1.96349         0.20908        0.171818 
        1.96964        0.207477        0.170523 
        1.97578        0.206054        0.169241 
        1.98192        0.205012        0.167974 
        1.98805        0.203831         0.16672 
        1.99419         0.20189        0.165479 
        2.00033        0.200538         0.16425 
        2.00647        0.199776        0.163034 
         2.0126        0.197897        0.161832 
        2.01874        0.196923        0.160641 
        2.02488        0.195484         0.15946 
        2.03101        0.194203        0.158294 
        2.03714        0.192794         0.15714 
        2.04328        0.191772        0.155997 
        2.04941        0.190261        0.154866 
        2.05554        0.189237        0.153747 
        2.06167        0.188228        0.152637 
        2.06781        0.186524        0.151538 
        2.07396        0.185319        0.150449 
        2.08009        0.184143        0.149372 
        2.08622          0.1832        0.148307 
        2.09237         0.18218         0.14725 
        2.09851        0.181007        0.146204 
        2.10464        0.179817        0.145169 
        2.11077        0.178398        0.144145 
        2.11691        0.177379         0.14313 
        2.12305        0.176232        0.142123 
        2.12918        0.175298        0.141129 
        2.13531        0.174011        0.140145 
        2.14145         0.17279        0.139168 
         2.1476        0.171892        0.138198 
        2.15372        0.171117        0.137243 
        2.15985         0.16973        0.136296 
        2.16599        0.168583        0.135356 
        2.17213        0.167758        0.134425 
        2.17827        0.166532        0.133503 
         2.1844         0.16577         0.13259 
        2.19054        0.164671        0.131686 
        2.19666        0.163271        0.130792 
         2.2028        0.162661        0.129905 
        2.20893        0.161892        0.129026 
        2.21508        0.160421        0.128154 
        2.22122        0.159525         0.12729 
        2.22736        0.158895        0.126435 
        2.23349        0.157743        0.125589 
        2.23962        0.156975         0.12475 
        2.24577        0.155799        0.123918 
         2.2519         0.15514        0.123094 
        2.25802         0.15398         0.12228 
        2.26417        0.153251         0.12147 
        2.27031        0.152204        0.120667 
        2.27644        0.151365        0.119874 
        2.28257        0.150458        0.119088 
        2.28872        0.149656        0.118307 
        2.29486        0.148904        0.117534 
        2.30099        0.147877        0.116769 
        2.30712        0.147116         0.11601 
        2.31326        0.145909        0.115257 
         2.3194        0.145824        0.114512 
        2.32553        0.144814        0.113774 
        2.33166        0.144061        0.113042 
         2.3378         0.14308        0.112317 
        2.34394        0.142181        0.111597 
        2.35007        0.141398        0.110885 
        2.35619        0.140416         0.11018 
        2.36233        0.139714        0.109479 
        2.36848         0.13915        0.108783 
        2.37462        0.138071        0.108095 
        2.38075        0.137636        0.107413 
        2.38689        0.136768        0.106736 
        2.39303         0.13627        0.106065 
        2.39916        0.135113        0.105401 
        2.40529        0.134596        0.104743 
        2.41143        0.133739         0.10409 
        2.41757        0.132975        0.103442 
         2.4237        0.132468          0.1028 
        2.42983        0.131564        0.102164 
        2.43598        0.131172        0.101532 
        2.44211        0.130206        0.100907 
        2.44823         0.12982        0.100288 
        2.45437        0.128688       0.0996721 
        2.46052        0.128269       0.0990612 
        2.46665        0.127447       0.0984566 
        2.47279        0.126699       0.0978572 
        2.47892        0.125912       0.0972624 
        2.48507        0.125257       0.0966719 
         2.4912        0.124759       0.0960876 
