# k  (h/Mpc)    Pcb(k)  (Mpc/h)^3    Pcb_linear(k)  (Mpc/h)^3
     0.00783031          9718.2         9766.66 
       0.013688         12109.9         12383.6 
       0.019231         12662.2         12826.1 
      0.0249154         12154.5         12148.6 
      0.0312784         10724.8           10830 
      0.0375637         9337.31         9496.33 
      0.0433917         8412.67         8472.01 
      0.0492413         7580.48         7697.56 
      0.0555754         7018.86         7083.85 
      0.0619321         6351.13         6589.62 
       0.067871         6000.24         6144.02 
      0.0738098          5570.3         5665.05 
      0.0800417         5059.04         5126.04 
      0.0862327         4518.38         4591.33 
      0.0921407         4082.34         4127.09 
      0.0982031         3738.04         3730.89 
       0.104506         3378.89         3416.08 
       0.110769         3164.23         3187.85 
       0.116806          3044.7         3020.04 
       0.122832         2861.46         2873.04 
       0.129052         2711.18         2717.42 
       0.135211         2594.95         2547.13 
       0.141259         2392.31         2366.61 
       0.147318          2196.7         2184.56 
       0.153489          2061.1         2012.84 
       0.159709         1966.26         1865.31 
       0.165845         1804.36         1748.95 
       0.171974         1765.94         1658.49 
       0.178125         1706.47          1585.4 
       0.184229         1586.66         1520.74 
        0.19034          1554.8         1455.77 
       0.196428         1501.74         1386.47 
       0.202534         1401.71         1312.35 
       0.208729         1368.38         1235.74 
       0.214876         1306.75         1163.02 
       0.220989         1229.01         1097.93 
       0.227147            1200         1041.73 
        0.23329         1155.74         994.802 
       0.239377         1142.07         955.307 
       0.245482         1087.18         919.814 
       0.251667         1046.57         885.298 
       0.257832         1033.17         850.456 
       0.263955         980.372          814.84 
       0.270079         949.455         778.811 
        0.27624         909.126           743.4 
       0.282372         892.828         710.304 
        0.28843         883.307         680.593 
       0.294538         839.643         653.874 
       0.300721         818.281           629.8 
        0.30691         803.648          607.87 
       0.313033         770.425         587.449 
       0.319153         759.428         567.558 
       0.325316         747.451         547.693 
        0.33145         731.376         528.037 
       0.337538         705.598         508.914 
       0.343633         686.351         490.498 
       0.349808         670.686         472.923 
       0.355968         658.386         456.647 
       0.362074         637.572          441.73 
       0.368217         634.336         427.791 
       0.374374         623.475         414.613 
       0.380519         599.739         402.014 
       0.386598         593.864         389.907 
       0.392688         581.199         378.044 
        0.39888         565.929         366.282 
       0.405048         556.504         354.931 
       0.411186         554.279         344.092 
       0.417313         548.516         333.805 
       0.423458          531.97         324.032 
       0.429607         518.058         314.776 
       0.435692         510.937         306.075 
       0.441815         502.636         297.689 
       0.447964         492.813         289.566 
       0.454126         487.033         281.686 
       0.460267         479.301         274.064 
       0.466387         471.726         266.694 
        0.47254         464.623         259.535 
       0.478662         455.085         252.682 
       0.484765         450.387         246.122 
       0.490885         445.772         239.812 
       0.497035         437.328         233.731 
       0.503198         436.598         227.879 
       0.509342         426.272         222.251 
       0.515458         419.477         216.831 
       0.521598         413.368          211.56 
       0.527764         407.044         206.431 
       0.533884         405.343         201.499 
           0.54          399.58         196.726 
       0.546137         391.462         192.095 
       0.552299         390.673         187.604 
       0.558452         384.543         183.278 
       0.564573         380.726         179.119 
       0.570708         376.015         175.086 
       0.576825         369.191         171.191 
       0.582926         366.663         167.424 
       0.589034         361.476         163.765 
       0.595184          359.11          160.19 
       0.601379         353.171         156.696 
       0.607522         346.909         153.334 
       0.613639         345.378         150.085 
       0.619772         343.916         146.925 
       0.625918         338.391         143.854 
       0.632068         334.254         140.872 
       0.638161         331.495         138.005 
         0.6443         328.553         135.198 
       0.650464         323.853          132.46 
       0.656582         320.994         129.817 
       0.662703         318.852         127.245 
       0.668861         313.656         124.729 
       0.675024         312.077         122.279 
       0.681124         308.466          119.92 
       0.687237         305.989         117.621 
       0.693381         302.491         115.373 
       0.699536         299.898          113.18 
       0.705665         296.908         111.055 
       0.711789         294.845         108.988 
       0.717957         291.314         106.959 
        0.72409         288.236         104.994 
       0.730186         289.841          103.09 
       0.736317         284.583         101.224 
       0.742472         281.349         99.3973 
       0.748622          278.09         97.6181 
        0.75476          278.29         95.8869 
       0.760888         274.884         94.2009 
       0.767043         271.851         92.5494 
       0.773185         270.455         90.9414 
       0.779291           266.3         89.3813 
       0.785407         265.568          87.856 
       0.791564         262.887         86.3571 
       0.797719         258.887         84.8943 
       0.803834         260.843          83.475 
       0.809972         257.509         82.0834 
       0.816124         254.087         80.7208 
       0.822261         251.901         79.3932 
       0.828378         251.746         78.0998 
       0.834502          247.97         76.8344 
       0.840667          247.86         75.5892 
       0.846816          243.76         74.3754 
       0.852925         243.222         73.1962 
       0.859047          240.81         72.0405 
       0.865192         240.451         70.9061 
       0.871341         237.127         69.7957 
       0.877463           235.2         68.7144 
       0.883569         234.789          67.659 
       0.889708         232.593         66.6206 
       0.895864         230.702         65.6016 
       0.902008         228.608         64.6063 
       0.908149         226.739         63.6324 
       0.914301         225.717         62.6773 
       0.920448         224.808         61.7429 
       0.926574         222.442          60.831 
       0.932687         221.419         59.9396 
       0.938823         219.607         59.0631 
       0.944975         218.354         58.2023 
       0.951105         216.235          57.362 
       0.957225         214.902         56.5398 
       0.963368         214.021         55.7311 
       0.969511         210.874         54.9384 
       0.975621         209.754         54.1655 
       0.981748         208.596         53.4056 
       0.987916          207.76         52.6557 
        0.99406         206.001         51.9231 
        1.00019         204.752         51.2061 
        1.00632         203.879         50.5033 
        1.01246           202.3         49.8129 
        1.01859         200.432         49.1366 
        1.02471         198.908         48.4737 
        1.03085         197.889          47.821 
        1.03698         196.509         47.1817 
        1.04314         196.226         46.5515 
        1.04929         194.926         45.9343 
        1.05541         193.421          45.331 
        1.06154         191.905         44.7371 
        1.06769         190.468          44.153 
        1.07382         190.031         43.5814 
        1.07993          188.06         43.0213 
        1.08607         186.875         42.4688 
        1.09222          185.87         41.9255 
        1.09836         184.955         41.3925 
        1.10449         183.264         40.8694 
        1.11063          182.23         40.3549 
        1.11677         181.457         39.8495 
         1.1229         179.988         39.3537 
        1.12903         179.244          38.866 
        1.13518         177.933         38.3862 
        1.14131         176.977         37.9148 
        1.14745         175.552         37.4518 
        1.15359         173.942         36.9964 
        1.15973         173.657         36.5485 
        1.16584         172.829           36.11 
        1.17197         171.722         35.6782 
        1.17811         170.105         35.2522 
        1.18424         169.362         34.8345 
        1.19038          168.27         34.4223 
        1.19652          167.07         34.0171 
        1.20267         166.172         33.6184 
        1.20881         164.998         33.2262 
        1.21495         164.697          32.841 
        1.22108         163.387          32.462 
         1.2272         162.139         32.0899 
        1.23334         161.567         31.7228 
        1.23949          161.02         31.3607 
        1.24562         159.736         31.0052 
        1.25174          158.61         30.6559 
        1.25789         157.602         30.3109 
        1.26402         157.363         29.9718 
        1.27014         156.284         29.6388 
        1.27628         154.512         29.3099 
        1.28244         154.244         28.9854 
        1.28858         153.124         28.6662 
        1.29471         152.302         28.3526 
        1.30084         151.338          28.044 
        1.30697         150.515         27.7396 
        1.31312         149.565         27.4393 
        1.31925         148.443         27.1444 
        1.32537         148.055         26.8542 
        1.33151         147.282         26.5672 
        1.33765         145.811         26.2846 
        1.34378         145.803         26.0067 
        1.34992         145.024         25.7327 
        1.35606          143.94          25.462 
         1.3622         143.599         25.1958 
        1.36833          141.91          24.934 
        1.37445         141.818         24.6761 
        1.38059         140.805         24.4211 
        1.38675         139.984         24.1691 
        1.39288         138.989         23.9217 
        1.39901         138.254         23.6779 
        1.40515         137.742         23.4369 
         1.4113         136.939         23.1995 
        1.41742          135.92         22.9662 
        1.42355         135.705         22.7358 
         1.4297         134.508         22.5078 
        1.43585          133.77         22.2831 
        1.44198         132.669         22.0623 
        1.44809         131.939          21.845 
        1.45423         131.703         21.6298 
        1.46036         130.652         21.4179 
        1.46649         129.854         21.2087 
        1.47263         129.536         21.0023 
        1.47877         128.354         20.7986 
        1.48491         127.875         20.5974 
        1.49104         126.417         20.3993 
        1.49718         126.462         20.2036 
        1.50333         125.914         20.0102 
        1.50947          125.07         19.8198 
         1.5156         124.347         19.6321 
        1.52172         123.646         19.4469 
        1.52787         123.003         19.2637 
          1.534          122.39         19.0831 
        1.54013         121.754          18.905 
        1.54627         120.836         18.7289 
        1.55241         120.441          18.555 
        1.55855         119.693         18.3836 
        1.56467         118.826         18.2148 
         1.5708         118.134         18.0477 
        1.57695         117.769         17.8825 
        1.58308         116.976         17.7197 
        1.58922         116.938         17.5588 
        1.59535         116.275            17.4 
         1.6015         115.104         17.2429 
        1.60764         114.422         17.0879 
        1.61376         113.946         16.9352 
        1.61989         113.445         16.7843 
        1.62604          112.72         16.6349 
        1.63218         112.318         16.4874 
        1.63831         111.511         16.3421 
        1.64444         110.838         16.1984 
        1.65059         110.144         16.0562 
        1.65673         109.888         15.9158 
        1.66285         109.296         15.7775 
        1.66898          108.44         15.6408 
        1.67512         108.047         15.5055 
        1.68127         107.468         15.3717 
         1.6874         106.649         15.2397 
        1.69353          106.06         15.1094 
        1.69967         105.704         14.9803 
        1.70581         105.308         14.8528 
        1.71193         104.561         14.7272 
        1.71806         103.928         14.6029 
        1.72421         103.379         14.4797 
        1.73035         103.019         14.3581 
        1.73649         102.309          14.238 
        1.74262         101.827         14.1193 
        1.74876         101.119         14.0019 
        1.75489         100.742         13.8861 
        1.76101         100.105         13.7716 
        1.76715         99.4932         13.6583 
        1.77329         99.1362         13.5461 
        1.77943          98.491         13.4351 
        1.78557         98.1451         13.3256 
        1.79171         97.6902         13.2172 
        1.79785         96.8301         13.1101 
        1.80399         96.6681         13.0041 
        1.81012         95.8854         12.8995 
        1.81625         95.4628         12.7961 
        1.82239         95.1002         12.6937 
        1.82853         94.4686         12.5924 
        1.83466          93.815         12.4924 
        1.84078         93.5276         12.3935 
        1.84692         93.2574         12.2956 
        1.85306         92.6025         12.1986 
         1.8592         92.2496         12.1028 
        1.86533         91.6985         12.0081 
        1.87147         91.1518         11.9143 
        1.87761         90.4972         11.8215 
        1.88375         90.0879         11.7298 
        1.88988          89.415         11.6391 
        1.89601         89.3283         11.5494 
        1.90215          88.637         11.4606 
        1.90829         88.1285         11.3727 
        1.91442         87.8449         11.2857 
        1.92056         87.4928         11.1998 
         1.9267         86.8332         11.1146 
        1.93284         86.5106         11.0303 
        1.93897         86.1421         10.9471 
        1.94509         85.4976         10.8648 
        1.95123         85.1257         10.7832 
        1.95737         84.7295         10.7024 
        1.96349         84.2973         10.6227 
        1.96964         83.9434         10.5435 
        1.97578          83.323         10.4651 
        1.98192         82.8362         10.3876 
        1.98805         82.3995          10.311 
        1.99419         82.1004         10.2351 
        2.00033         81.4853         10.1599 
        2.00647         81.2439         10.0855 
         2.0126         80.8365          10.012 
        2.01874         80.6094         9.93911 
        2.02488         80.0491         9.86689 
        2.03101         79.6254         9.79553 
        2.03714         79.3125         9.72493 
        2.04328         78.8913         9.65496 
        2.04941         78.3132         9.58574 
        2.05554         78.0447         9.51725 
        2.06167         77.5069         9.44933 
        2.06781         77.0863         9.38208 
        2.07396         76.8742         9.31538 
        2.08009         76.3481         9.24946 
        2.08622         76.0633         9.18424 
        2.09237         75.6831         9.11954 
        2.09851         75.0205         9.05544 
        2.10464         74.9263         8.99207 
        2.11077         74.5702         8.92939 
        2.11691         74.2227         8.86717 
        2.12305         73.7127         8.80554 
        2.12918         73.3454         8.74464 
        2.13531         73.0143         8.68432 
        2.14145         72.4659         8.62443 
         2.1476         72.3069         8.56504 
        2.15372         71.8919         8.50651 
        2.15985         71.4175         8.44847 
        2.16599         71.1298         8.39081 
        2.17213         70.7467         8.33375 
        2.17827         70.2598         8.27724 
         2.1844         69.9939         8.22131 
        2.19054         69.7513         8.16587 
        2.19666         69.3684         8.11103 
         2.2028         68.9481         8.05664 
        2.20893         68.5941         8.00273 
        2.21508         68.1816         7.94925 
        2.22122         67.8272         7.89625 
        2.22736         67.5487         7.84384 
        2.23349          67.214         7.79192 
        2.23962         67.0175         7.74045 
        2.24577         66.4692          7.6894 
         2.2519         66.2071         7.63888 
        2.25802         65.8623         7.58889 
        2.26417         65.4666         7.53922 
        2.27031         65.1341         7.48994 
        2.27644         64.9545         7.44126 
        2.28257         64.5724         7.39301 
        2.28872         64.2957         7.34509 
        2.29486          64.014         7.29762 
        2.30099         63.5113         7.25066 
        2.30712         63.3821         7.20409 
        2.31326         63.0529         7.15786 
         2.3194         62.6372         7.11206 
        2.32553         62.4073         7.06675 
        2.33166         62.0096         7.02184 
         2.3378         61.7122         6.97727 
        2.34394         61.4407         6.93307 
        2.35007         61.1626         6.88932 
        2.35619         60.8148           6.846 
        2.36233         60.5075         6.80296 
        2.36848         60.2197         6.76019 
        2.37462         59.8607         6.71789 
        2.38075          59.607         6.67599 
        2.38689         59.2977         6.63441 
        2.39303         58.9967         6.59319 
        2.39916         58.7894         6.55237 
        2.40529         58.4689          6.5119 
        2.41143         58.1903         6.47175 
        2.41757         57.8352         6.43191 
         2.4237         57.7288         6.39249 
        2.42983         57.2855          6.3534 
        2.43598         57.0782         6.31453 
        2.44211         56.6809         6.27606 
        2.44823         56.4435         6.23799 
        2.45437         56.1762         6.20014 
        2.46052         55.8487         6.16257 
        2.46665         55.5676         6.12537 
        2.47279         55.3432          6.0885 
        2.47892         55.1341         6.05191 
        2.48507         54.8015         6.01559 
         2.4912         54.5581         5.97963 
