# k  (h/Mpc)    Pcb(k)  (Mpc/h)^3    Pcb_linear(k)  (Mpc/h)^3
     0.00783031         10147.9         10279.1 
       0.013688         13160.7         13071.1 
       0.019231           13722         13716.6 
      0.0249154         12980.7         13230.7 
      0.0312784         11893.8         12034.6 
      0.0375637         10651.8           10697 
      0.0433917         9381.92         9579.61 
      0.0492413         8568.44         8670.66 
      0.0555754         7660.56         7918.29 
      0.0619321         7297.63         7333.26 
       0.067871         6646.97         6859.75 
      0.0738098         6189.83         6395.42 
      0.0800417         5626.46         5886.01 
      0.0862327         5180.63         5360.88 
      0.0921407         4767.88          4868.3 
      0.0982031          4293.7          4404.7 
       0.104506         4008.71         3994.75 
       0.110769         3686.38         3670.47 
       0.116806         3431.28         3429.28 
       0.122832         3260.02         3240.02 
       0.129052         3034.54          3074.6 
       0.135211         2890.98         2918.58 
       0.141259         2775.38         2758.99 
       0.147318         2629.33         2588.82 
       0.153489         2426.57         2409.72 
       0.159709         2296.66         2233.59 
       0.165845         2199.66         2074.71 
       0.171974         2061.86         1937.96 
       0.178125         1955.13         1824.85 
       0.184229          1872.6         1733.83 
        0.19034         1759.99         1657.98 
       0.196428         1731.13         1590.56 
       0.202534         1673.73         1524.86 
       0.208729         1600.53         1456.16 
       0.214876         1529.21          1384.9 
       0.220989         1483.62          1312.5 
       0.227147          1411.3         1241.08 
        0.23329         1354.97         1174.53 
       0.239377          1330.2         1115.48 
       0.245482         1244.67         1063.94 
       0.251667         1235.96         1018.98 
       0.257832         1189.94         979.722 
       0.263955         1152.27         944.093 
       0.270079          1114.6          909.87 
        0.27624         1103.96         875.545 
       0.282372         1056.88         840.997 
        0.28843         1043.98         806.794 
       0.294538         993.228         772.981 
       0.300721         989.405         740.398 
        0.30691         946.611         710.147 
       0.313033         929.007         682.924 
       0.319153         908.571         658.298 
       0.325316         879.623         635.701 
        0.33145         858.625         614.779 
       0.337538         847.834         594.982 
       0.343633         824.371         575.659 
       0.349808         797.851         556.387 
       0.355968         793.326          537.43 
       0.362074         781.821         519.097 
       0.368217         759.657         501.337 
       0.374374         729.851         484.439 
       0.380519         727.547         468.619 
       0.386598         710.326          453.98 
       0.392688         707.995         440.258 
        0.39888         687.053         427.087 
       0.405048         676.353         414.567 
       0.411186         665.571         402.554 
       0.417313         652.772         390.888 
       0.423458         642.793         379.486 
       0.429607         631.324         368.398 
       0.435692         617.888         357.784 
       0.441815          614.13         347.515 
       0.447964         601.376         337.669 
       0.454126         589.124          328.27 
       0.460267         579.514          319.35 
       0.466387         573.229         310.868 
        0.47254         563.457         302.689 
       0.478662         561.742          294.84 
       0.484765         545.554         287.268 
       0.490885         541.114         279.905 
       0.497035         530.855         272.722 
       0.503198         524.425         265.748 
       0.509342         519.959         259.031 
       0.515458         515.727         252.585 
       0.521598         504.938         246.354 
       0.527764         494.775         240.331 
       0.533884         493.464         234.579 
           0.54         486.892         229.037 
       0.546137         485.187         223.662 
       0.552299         476.082         218.435 
       0.558452         473.504         213.374 
       0.564573           466.1         208.491 
       0.570708         459.817         203.743 
       0.576825         449.827         199.151 
       0.582926         449.072         194.712 
       0.589034         444.971         190.407 
       0.595184         440.922         186.211 
       0.601379         435.843         182.122 
       0.607522         429.202         178.194 
       0.613639         428.254         174.402 
       0.619772         417.334         170.711 
       0.625918         416.453         167.119 
       0.632068         410.688         163.628 
       0.638161         409.149         160.266 
         0.6443         401.524         156.974 
       0.650464         399.181         153.762 
       0.656582          397.91         150.662 
       0.662703         394.861         147.648 
       0.668861         387.866         144.702 
       0.675024         384.717         141.836 
       0.681124         382.626         139.078 
       0.687237         378.712          136.39 
       0.693381         373.651         133.761 
       0.699536         369.839         131.197 
       0.705665         367.813          128.71 
       0.711789         364.538          126.29 
       0.717957         361.729         123.916 
        0.72409         358.433         121.616 
       0.730186         355.036         119.389 
       0.736317         351.616         117.207 
       0.742472         350.413         115.072 
       0.748622         346.744         112.992 
        0.75476         343.446          110.97 
       0.760888         339.364             109 
       0.767043         339.699         107.071 
       0.773185         335.042         105.192 
       0.779291         330.219          103.37 
       0.785407         329.152         101.588 
       0.791564         325.629         99.8373 
       0.797719         323.222         98.1291 
       0.803834         320.987          96.472 
       0.809972         319.052         94.8476 
       0.816124         319.345         93.2574 
       0.822261         313.829         91.7082 
       0.828378         312.179         90.1992 
       0.834502         310.765         88.7232 
       0.840667         306.469         87.2709 
       0.846816         305.293         85.8554 
       0.852925         302.961         84.4804 
       0.859047         301.419         83.1327 
       0.865192         298.599         81.8102 
       0.871341         296.058         80.5158 
       0.877463         294.136         79.2553 
       0.883569         292.486         78.0251 
       0.889708         289.991         76.8149 
       0.895864          286.53         75.6274 
       0.902008         285.909         74.4676 
       0.908149         284.421         73.3329 
       0.914301         280.931         72.2202 
       0.920448         278.777         71.1317 
       0.926574         276.915         70.0695 
       0.932687         276.964         69.0314 
       0.938823         273.554         68.0108 
       0.944975         272.285         67.0085 
       0.951105         270.497         66.0301 
       0.957225         268.138         65.0731 
       0.963368         265.086         64.1319 
       0.969511         263.813         63.2093 
       0.975621         261.631           62.31 
       0.981748         261.996          61.426 
       0.987916         259.097         60.5536 
        0.99406         256.126         59.7016 
        1.00019         256.258         58.8677 
        1.00632         254.095         58.0507 
        1.01246         252.039          57.248 
        1.01859         251.774         56.4618 
        1.02471         248.908         55.6915 
        1.03085         246.392          54.933 
        1.03698         245.598         54.1903 
        1.04314          243.66         53.4582 
        1.04929         241.829         52.7414 
        1.05541         241.537         52.0408 
        1.06154         238.903         51.3512 
        1.06769         238.418         50.6731 
        1.07382         236.756         50.0095 
        1.07993         234.765         49.3594 
        1.08607         233.941         48.7182 
        1.09222         232.375         48.0877 
        1.09836         230.307         47.4693 
        1.10449         228.212         46.8624 
        1.11063          226.43         46.2655 
        1.11677         226.192         45.6793 
         1.1229         224.356         45.1042 
        1.12903         222.994         44.5386 
        1.13518          221.82         43.9822 
        1.14131         220.075         43.4357 
        1.14745         219.661         42.8988 
        1.15359         217.625         42.3709 
        1.15973         216.989         41.8517 
        1.16584         214.599         41.3436 
        1.17197          214.18         40.8432 
        1.17811         212.514         40.3495 
        1.18424         211.282         39.8655 
        1.19038         210.567         39.3881 
        1.19652          209.05         38.9186 
        1.20267         208.281         38.4569 
        1.20881         206.356         38.0027 
        1.21495         205.228         37.5567 
        1.22108         204.427         37.1179 
         1.2272         202.657         36.6871 
        1.23334         201.653         36.2622 
        1.23949         200.242         35.8431 
        1.24562         199.393         35.4318 
        1.25174         196.963         35.0276 
        1.25789          196.15         34.6285 
        1.26402         195.311         34.2363 
        1.27014         193.981         33.8512 
        1.27628         193.036         33.4709 
        1.28244         192.579         33.0957 
        1.28858          190.86         32.7268 
        1.29471         188.999         32.3643 
        1.30084          188.34         32.0077 
        1.30697         187.127         31.6559 
        1.31312         186.172          31.309 
        1.31925         185.334         30.9683 
        1.32537         184.255         30.6331 
        1.33151         182.597         30.3016 
        1.33765         181.898         29.9753 
        1.34378         180.831         29.6544 
        1.34992         179.944          29.338 
        1.35606         179.278         29.0255 
         1.3622         177.998         28.7182 
        1.36833         176.501          28.416 
        1.37445         175.352         28.1183 
        1.38059         174.646          27.824 
        1.38675         173.548         27.5332 
        1.39288         172.732         27.2477 
        1.39901         172.459         26.9664 
        1.40515         170.961         26.6885 
         1.4113         169.367         26.4146 
        1.41742         168.912         26.1455 
        1.42355         167.497         25.8798 
         1.4297         166.713         25.6169 
        1.43585         165.305         25.3578 
        1.44198         164.981         25.1033 
        1.44809         163.977         24.8527 
        1.45423         162.686         24.6047 
        1.46036         162.096         24.3605 
        1.46649         161.112         24.1195 
        1.47263         160.268         23.8816 
        1.47877         159.383          23.647 
        1.48491         157.949         23.4152 
        1.49104         157.588         23.1871 
        1.49718         155.873         22.9618 
        1.50333         155.441         22.7391 
        1.50947         154.799         22.5198 
         1.5156           153.7         22.3038 
        1.52172         152.752         22.0906 
        1.52787         151.886         21.8798 
          1.534         151.249          21.672 
        1.54013         149.923         21.4671 
        1.54627         149.505         21.2645 
        1.55241         148.353         21.0644 
        1.55855         147.669         20.8673 
        1.56467          146.93         20.6732 
         1.5708         145.976          20.481 
        1.57695         145.151          20.291 
        1.58308         144.526         20.1038 
        1.58922         143.787         19.9188 
        1.59535         142.655         19.7363 
         1.6015         142.241         19.5558 
        1.60764         141.259         19.3776 
        1.61376         140.588         19.2022 
        1.61989         139.582         19.0287 
        1.62604         138.999         18.8571 
        1.63218         138.196         18.6876 
        1.63831         137.253         18.5207 
        1.64444         136.755         18.3557 
        1.65059         136.039         18.1923 
        1.65673          134.84         18.0311 
        1.66285         134.687         17.8723 
        1.66898         133.744         17.7154 
        1.67512         133.123         17.5601 
        1.68127         132.089         17.4064 
         1.6874         130.934          17.255 
        1.69353         130.644         17.1054 
        1.69967          130.02         16.9573 
        1.70581         129.204          16.811 
        1.71193         128.573          16.667 
        1.71806         127.811         16.5243 
        1.72421         127.177          16.383 
        1.73035         126.507         16.2436 
        1.73649          125.78         16.1058 
        1.74262         125.115         15.9697 
        1.74876         124.633         15.8351 
        1.75489         123.374         15.7023 
        1.76101         123.044         15.5711 
        1.76715         122.068         15.4412 
        1.77329         121.826         15.3127 
        1.77943         120.863         15.1855 
        1.78557         120.244           15.06 
        1.79171         119.561         14.9359 
        1.79785         118.945         14.8131 
        1.80399         118.308         14.6918 
        1.81012         117.717          14.572 
        1.81625         116.953         14.4535 
        1.82239         116.677         14.3362 
        1.82853         116.077         14.2203 
        1.83466          115.15         14.1057 
        1.84078         114.847         13.9926 
        1.84692         113.868         13.8805 
        1.85306         113.263         13.7695 
         1.8592         112.585         13.6598 
        1.86533         112.043         13.5515 
        1.87147         111.161         13.4442 
        1.87761         110.908          13.338 
        1.88375         109.995          13.233 
        1.88988         109.445         13.1293 
        1.89601         108.883         13.0267 
        1.90215         108.459         12.9251 
        1.90829         107.732         12.8246 
        1.91442         107.377         12.7252 
        1.92056         106.659         12.6269 
         1.9267         106.182         12.5296 
        1.93284          105.55         12.4332 
        1.93897         104.916          12.338 
        1.94509         104.587         12.2441 
        1.95123         103.941         12.1508 
        1.95737         103.458         12.0585 
        1.96349         102.789         11.9673 
        1.96964         101.963         11.8769 
        1.97578         101.769         11.7873 
        1.98192         101.164         11.6989 
        1.98805          100.28         11.6113 
        1.99419         99.9409         11.5246 
        2.00033         99.4865         11.4388 
        2.00647         98.9312         11.3539 
         2.0126         98.3785           11.27 
        2.01874         97.7465         11.1868 
        2.02488         97.3112         11.1043 
        2.03101         96.8085         11.0229 
        2.03714          96.182         10.9423 
        2.04328         95.7501         10.8625 
        2.04941         95.1669         10.7835 
        2.05554         94.7096         10.7054 
        2.06167         94.2006         10.6279 
        2.06781         93.7635         10.5512 
        2.07396         93.1348         10.4751 
        2.08009         92.6073         10.3999 
        2.08622         92.3212         10.3255 
        2.09237         91.6263         10.2518 
        2.09851         91.3478         10.1787 
        2.10464         90.7195         10.1064 
        2.11077            90.3          10.035 
        2.11691          89.935         9.96406 
        2.12305          89.324         9.89381 
        2.12918         88.8005         9.82442 
        2.13531         88.5203         9.75568 
        2.14145         87.6401         9.68744 
         2.1476         87.4157         9.61977 
        2.15372         86.9589         9.55309 
        2.15985         86.5323         9.48698 
        2.16599         86.1581          9.4213 
        2.17213         85.5432         9.35631 
        2.17827         85.2094         9.29196 
         2.1844         84.6394         9.22826 
        2.19054         84.4229         9.16514 
        2.19666         83.8323          9.1027 
         2.2028         83.5721         9.04078 
        2.20893          82.927         8.97942 
        2.21508         82.4322         8.91855 
        2.22122         82.2255         8.85822 
        2.22736         81.6567         8.79858 
        2.23349         81.3675          8.7395 
        2.23962         80.7627         8.68093 
        2.24577         80.3329         8.62285 
         2.2519         80.1593         8.56538 
        2.25802         79.5336         8.50852 
        2.26417         79.0919         8.45202 
        2.27031          78.785         8.39598 
        2.27644         78.3833         8.34062 
        2.28257         77.8076         8.28575 
        2.28872         77.5192         8.23128 
        2.29486         77.1508          8.1773 
        2.30099          76.654         8.12392 
        2.30712         76.3592         8.07099 
        2.31326         75.9486         8.01844 
         2.3194         75.6036          7.9664 
        2.32553         75.0991          7.9149 
        2.33166         74.6686         7.86387 
         2.3378         74.3094         7.81323 
        2.34394          73.991         7.76302 
        2.35007         73.4682         7.71332 
        2.35619         73.0391         7.66411 
        2.36233         72.7284         7.61522 
        2.36848         72.4408         7.56665 
        2.37462         72.0748         7.51861 
        2.38075         71.8151         7.47103 
        2.38689         71.2937         7.42383 
        2.39303          71.046         7.37703 
        2.39916         70.6777         7.33069 
        2.40529          70.311         7.28475 
        2.41143         69.8444         7.23918 
        2.41757         69.6313         7.19397 
         2.4237         69.2989         7.14922 
        2.42983         68.8335         7.10487 
        2.43598         68.5231         7.06077 
        2.44211          68.158         7.01712 
        2.44823         67.8321         6.97393 
        2.45437         67.4075         6.93099 
        2.46052         67.0394         6.88837 
        2.46665         66.7337         6.84619 
        2.47279         66.4012         6.80438 
        2.47892           66.11         6.76288 
        2.48507         65.6799         6.72169 
         2.4912         65.4728         6.68093 
