# k  (h/Mpc)    Pcb(k)  (Mpc/h)^3    Pcb_linear(k)  (Mpc/h)^3
     0.00783031         12866.9         12926.1 
       0.013688         15993.6         16398.5 
       0.019231         16720.9         16973.4 
      0.0249154         16009.2           16007 
      0.0312784           13959         14126.8 
      0.0375637         11972.6         12211.6 
      0.0433917         10647.8           10740 
      0.0492413         9479.55         9645.83 
      0.0555754         8731.85         8824.02 
      0.0619321         7887.42         8224.26 
       0.067871         7511.15         7722.85 
      0.0738098          7039.1         7183.26 
      0.0800417         6428.29         6543.39 
      0.0862327         5744.87         5864.28 
      0.0921407         5172.65         5237.07 
      0.0982031         4697.37         4674.62 
       0.104506         4191.15         4214.44 
       0.110769         3892.12          3885.8 
       0.116806         3735.54         3665.55 
       0.122832         3525.11          3501.3 
       0.129052         3357.23          3347.6 
       0.135211         3254.23            3179 
       0.141259         3017.23         2984.49 
       0.147318         2785.08         2766.56 
       0.153489         2610.83         2539.41 
       0.159709         2487.27         2327.48 
       0.165845         2266.91         2151.46 
       0.171974         2206.45         2014.76 
       0.178125         2132.43         1913.23 
       0.184229          1976.4         1837.25 
        0.19034         1950.26         1772.51 
       0.196428         1895.95         1707.19 
       0.202534         1781.21         1633.26 
       0.208729         1744.73         1548.08 
       0.214876         1665.81         1457.29 
       0.220989         1574.47          1367.6 
       0.227147         1531.32         1284.67 
        0.23329         1470.39         1213.91 
       0.239377         1458.49         1156.89 
       0.245482         1389.43         1111.07 
       0.251667         1339.94         1072.42 
       0.257832         1321.89          1037.2 
       0.263955         1261.17         1001.73 
       0.270079         1226.66         963.625 
        0.27624         1176.14         922.546 
       0.282372         1159.61         880.299 
        0.28843         1142.73         839.412 
       0.294538         1088.47         801.124 
       0.300721          1065.5         766.754 
        0.30691         1042.61         737.128 
       0.313033         1001.75         711.844 
       0.319153          990.55         689.361 
       0.325316         977.767         668.047 
        0.33145         957.348         647.002 
       0.337538          925.36         625.605 
       0.343633         903.264         603.648 
       0.349808         885.058         581.299 
       0.355968         868.866         559.572 
       0.362074         841.413         539.293 
       0.368217          839.14         520.533 
       0.374374         826.532         503.538 
       0.380519         796.639         488.134 
       0.386598         791.469         474.041 
       0.392688         773.456         460.627 
        0.39888         755.387          447.28 
       0.405048         741.992         434.078 
       0.411186         740.327         420.989 
       0.417313         735.964         408.068 
       0.423458         713.278         395.486 
       0.429607         694.174         383.467 
       0.435692         687.701         372.246 
       0.441815         675.189           361.7 
       0.447964         665.967          351.79 
       0.454126         658.043         342.398 
       0.460267         648.683          333.44 
       0.466387         638.495         324.792 
        0.47254         628.252         316.268 
       0.478662         618.739         307.935 
       0.484765         612.631         299.818 
       0.490885         606.268         291.914 
       0.497035          594.95          284.25 
       0.503198          594.72         276.899 
       0.509342         582.963         269.924 
       0.515458         572.064          263.31 
       0.521598         568.237         256.946 
       0.527764         556.818         250.787 
       0.533884         552.961          244.87 
           0.54         547.589         239.124 
       0.546137         538.724           233.5 
       0.552299         537.015         227.988 
       0.558452          529.75          222.64 
       0.564573         525.174         217.491 
       0.570708         520.051         212.513 
       0.576825         509.948         207.731 
       0.582926         508.316         203.128 
       0.589034         500.866         198.677 
       0.595184         496.901         194.342 
       0.601379         489.502         190.113 
       0.607522         481.496         186.041 
       0.613639         480.636         182.095 
       0.619772         478.504         178.239 
       0.625918         469.934         174.477 
       0.632068         467.145         170.819 
       0.638161         462.815         167.303 
         0.6443         457.634          163.87 
       0.650464         453.308         160.531 
       0.656582         449.805         157.315 
       0.662703          445.88          154.19 
       0.668861         439.929         151.132 
       0.675024         437.458         148.153 
       0.681124         431.051         145.282 
       0.687237         429.799         142.481 
       0.693381         423.853          139.74 
       0.699536         422.554         137.068 
       0.705665         417.713         134.478 
       0.711789         416.396         131.958 
       0.717957         410.705         129.488 
        0.72409         406.714         127.095 
       0.730186         408.425         124.778 
       0.736317         401.434         122.507 
       0.742472         397.781         120.285 
       0.748622         395.094          118.12 
        0.75476         392.629         116.014 
       0.760888         389.503         113.963 
       0.767043         386.591         111.954 
       0.773185         384.306         109.999 
       0.779291         379.465         108.101 
       0.785407         377.668         106.246 
       0.791564         374.866         104.424 
       0.797719          369.29         102.646 
       0.803834         371.826          100.92 
       0.809972         366.051          99.229 
       0.816124         362.664         97.5731 
       0.822261         360.114         95.9597 
       0.828378         358.888          94.388 
       0.834502         353.568         92.8504 
       0.840667         353.926         91.3374 
       0.846816         348.149         89.8628 
       0.852925          348.89         88.4303 
       0.859047         345.725         87.0264 
       0.865192         344.393         85.6486 
       0.871341         339.835         84.3001 
       0.877463         337.916         82.9871 
       0.883569         335.751         81.7056 
       0.889708         332.834          80.445 
       0.895864         329.938          79.208 
       0.902008         328.578         77.9998 
       0.908149         325.882         76.8179 
       0.914301         324.383         75.6587 
       0.920448         322.262         74.5248 
       0.926574         320.131         73.4183 
       0.932687         318.864         72.3369 
       0.938823         315.432         71.2735 
       0.944975         314.744         70.2292 
       0.951105         311.883         69.2098 
       0.957225         308.515         68.2126 
       0.963368         309.139         67.2318 
       0.969511         303.513         66.2704 
       0.975621          302.88         65.3332 
       0.981748         301.728         64.4118 
       0.987916         300.078         63.5025 
        0.99406         297.482         62.6144 
        1.00019         295.067         61.7451 
        1.00632         294.799         60.8932 
        1.01246         292.379         60.0563 
        1.01859         289.224         59.2366 
        1.02471          287.55         58.4334 
        1.03085         286.758         57.6423 
        1.03698         285.241         56.8677 
        1.04314          284.38         56.1042 
        1.04929         282.467         55.3566 
        1.05541         279.709         54.6257 
        1.06154         278.105         53.9063 
        1.06769          275.85         53.1988 
        1.07382         275.077         52.5065 
        1.07993         272.711         51.8281 
        1.08607         271.229         51.1591 
        1.09222         269.439         50.5012 
        1.09836         268.763         49.8558 
        1.10449         266.717         49.2225 
        1.11063         264.771         48.5996 
        1.11677         262.781         47.9878 
         1.1229         262.162         47.3876 
        1.12903         260.212         46.7973 
        1.13518         258.467         46.2166 
        1.14131         257.823         45.6462 
        1.14745         254.964         45.0858 
        1.15359          253.25         44.5347 
        1.15973         252.544         43.9928 
        1.16584         251.238         43.4623 
        1.17197          249.72         42.9399 
        1.17811         247.715         42.4245 
        1.18424         246.442         41.9192 
        1.19038         245.413         41.4207 
        1.19652         242.731         40.9305 
        1.20267           242.3         40.4483 
        1.20881         240.537          39.974 
        1.21495         240.217         39.5082 
        1.22108         238.364         39.0499 
         1.2272         235.932         38.5999 
        1.23334         235.338         38.1561 
        1.23949         234.329         37.7182 
        1.24562         232.746         37.2885 
        1.25174         231.474         36.8662 
        1.25789         229.496         36.4491 
        1.26402         229.416         36.0393 
        1.27014         228.479         35.6368 
        1.27628         226.118         35.2393 
        1.28244         225.015         34.8472 
        1.28858         223.797         34.4615 
        1.29471          222.67         34.0826 
        1.30084          221.56         33.7098 
        1.30697         219.609          33.342 
        1.31312         218.582         32.9792 
        1.31925         217.353          32.623 
        1.32537         216.748         32.2724 
        1.33151         215.373         31.9257 
        1.33765         213.789         31.5844 
        1.34378         212.952         31.2488 
        1.34992         211.453         30.9178 
        1.35606         210.539         30.5909 
         1.3622         209.307         30.2694 
        1.36833         207.782         29.9533 
        1.37445          207.74         29.6419 
        1.38059         205.589          29.334 
        1.38675         204.394         29.0298 
        1.39288         203.389         28.7311 
        1.39901         202.105         28.4368 
        1.40515         201.561         28.1459 
         1.4113         199.988         27.8593 
        1.41742         198.516         27.5778 
        1.42355         198.798         27.2996 
         1.4297         197.028         27.0245 
        1.43585         196.204         26.7533 
        1.44198         194.327         26.4869 
        1.44809         193.795         26.2246 
        1.45423         192.852          25.965 
        1.46036         191.602         25.7093 
        1.46649          190.54          25.457 
        1.47263         190.016         25.2079 
        1.47877         188.545         24.9623 
        1.48491         187.185         24.7196 
        1.49104         185.657         24.4806 
        1.49718         185.385         24.2446 
        1.50333         183.957         24.0114 
        1.50947         183.262         23.7817 
         1.5156         182.143         23.5554 
        1.52172         181.436          23.332 
        1.52787         180.399         23.1111 
          1.534         179.496         22.8933 
        1.54013         178.401         22.6786 
        1.54627         177.476         22.4663 
        1.55241         176.816         22.2566 
        1.55855         176.006         22.0499 
        1.56467         174.777         21.8465 
         1.5708         173.425          21.645 
        1.57695         172.938         21.4458 
        1.58308         171.653         21.2496 
        1.58922         171.029         21.0557 
        1.59535         169.772         20.8643 
         1.6015         169.104          20.675 
        1.60764         168.053         20.4882 
        1.61376         166.973         20.3042 
        1.61989         166.336         20.1224 
        1.62604         165.122         19.9423 
        1.63218         164.524         19.7646 
        1.63831         163.616         19.5895 
        1.64444         162.505         19.4165 
        1.65059         161.854         19.2451 
        1.65673         160.951          19.076 
        1.66285         160.421         18.9094 
        1.66898         159.224         18.7448 
        1.67512         158.412         18.5818 
        1.68127         157.741         18.4206 
         1.6874         156.652         18.2617 
        1.69353          156.27         18.1047 
        1.69967         155.002         17.9493 
        1.70581         154.631         17.7957 
        1.71193         153.455         17.6446 
        1.71806         152.226         17.4948 
        1.72421         151.903         17.3465 
        1.73035         151.044         17.2001 
        1.73649         149.934         17.0555 
        1.74262         149.634         16.9126 
        1.74876         148.733         16.7713 
        1.75489         148.093         16.6318 
        1.76101         146.907         16.4941 
        1.76715         146.065         16.3576 
        1.77329         145.387         16.2226 
        1.77943         144.424          16.089 
        1.78557         144.041         15.9572 
        1.79171         143.264         15.8268 
        1.79785         142.135         15.6978 
        1.80399         141.614         15.5704 
        1.81012          140.61         15.4445 
        1.81625         140.168           15.32 
        1.82239         139.411         15.1968 
        1.82853         138.637         15.0749 
        1.83466         137.643         14.9546 
        1.84078         137.315         14.8356 
        1.84692         136.867         14.7178 
        1.85306         135.782         14.6011 
         1.8592         135.295         14.4859 
        1.86533         134.207          14.372 
        1.87147          133.87         14.2592 
        1.87761         132.821         14.1475 
        1.88375          131.97         14.0372 
        1.88988         131.415         13.9282 
        1.89601         131.151         13.8203 
        1.90215           130.6         13.7134 
        1.90829         129.269         13.6078 
        1.91442         128.476         13.5032 
        1.92056         128.016         13.3998 
         1.9267         127.341         13.2974 
        1.93284         126.628         13.1961 
        1.93897         126.047          13.096 
        1.94509         125.391         12.9971 
        1.95123           124.8          12.899 
        1.95737         124.234         12.8019 
        1.96349         123.547          12.706 
        1.96964         122.792         12.6108 
        1.97578         122.199         12.5166 
        1.98192         121.837         12.4235 
        1.98805         121.065         12.3313 
        1.99419         120.141         12.2401 
        2.00033         119.741         12.1498 
        2.00647         119.207         12.0604 
         2.0126         118.507         11.9721 
        2.01874         118.184         11.8845 
        2.02488         117.134         11.7977 
        2.03101         116.778         11.7119 
        2.03714         116.061         11.6271 
        2.04328         115.764          11.543 
        2.04941         115.158         11.4599 
        2.05554         114.486         11.3776 
        2.06167         113.594          11.296 
        2.06781          113.08         11.2152 
        2.07396         112.603         11.1351 
        2.08009         111.699         11.0559 
        2.08622         111.469         10.9775 
        2.09237          110.71         10.8998 
        2.09851         110.233         10.8228 
        2.10464         109.869         10.7467 
        2.11077          109.15         10.6714 
        2.11691         108.791         10.5967 
        2.12305         108.144         10.5227 
        2.12918         107.521         10.4495 
        2.13531         106.942         10.3771 
        2.14145         106.413         10.3052 
         2.1476         105.932         10.2339 
        2.15372         105.282         10.1636 
        2.15985         104.798         10.0939 
        2.16599         104.105         10.0246 
        2.17213         103.681         9.95614 
        2.17827         102.988         9.88829 
         2.1844         102.785         9.82113 
        2.19054           102.1         9.75457 
        2.19666         101.547         9.68873 
         2.2028         101.216         9.62344 
        2.20893         100.714         9.55872 
        2.21508         100.121         9.49453 
        2.22122         99.5932          9.4309 
        2.22736         99.2976           9.368 
        2.23349         98.5385         9.30568 
        2.23962         98.0742          9.2439 
        2.24577         97.7021         9.18263 
         2.2519         97.1034           9.122 
        2.25802         96.6199         9.06202 
        2.26417         96.0834         9.00241 
        2.27031          95.501         8.94328 
        2.27644         95.1639         8.88486 
        2.28257         94.6834         8.82696 
        2.28872         94.2524         8.76947 
        2.29486         94.0791         8.71251 
        2.30099         93.1572         8.65617 
        2.30712         92.9319         8.60031 
        2.31326         92.4601         8.54485 
         2.3194          91.871          8.4899 
        2.32553         91.4097         8.43554 
        2.33166         90.8908         8.38167 
         2.3378         90.6955         8.32821 
        2.34394         90.2196         8.27519 
        2.35007         89.4864         8.22271 
        2.35619         89.2833         8.17075 
        2.36233         88.7828         8.11912 
        2.36848         88.2702         8.06783 
        2.37462         87.9601         8.01709 
        2.38075          87.391         7.96684 
        2.38689         87.0688         7.91697 
        2.39303         86.6578         7.86755 
        2.39916         86.1717          7.8186 
        2.40529         85.8806         7.77007 
        2.41143         85.4289         7.72192 
        2.41757          84.903         7.67415 
         2.4237          84.398         7.62688 
        2.42983         84.0265         7.58001 
        2.43598         83.7567         7.53342 
        2.44211         83.3204         7.48729 
        2.44823         82.9526         7.44165 
        2.45437         82.5081         7.39627 
        2.46052         82.0586         7.35124 
        2.46665         81.4383         7.30665 
        2.47279         81.2391         7.26246 
        2.47892         80.8771          7.2186 
        2.48507         80.4637         7.17506 
         2.4912         79.9662         7.13196 
