#  k  (h/Mpc)          P(k)  (Mpc/h)^3     P_linear(k) (Mpc/h)^3
     0.00783031         5694.21         5761.47 
       0.013688         7320.58         7290.21 
       0.019231         7576.72         7569.01 
      0.0249154         7111.29         7204.26 
      0.0312784            6412         6451.53 
      0.0375637         5656.85         5655.41 
      0.0433917         4961.01         5015.67 
      0.0492413         4493.87            4513 
      0.0555754         4035.31         4110.62 
      0.0619321          3815.2          3804.7 
       0.067871         3499.35         3556.39 
      0.0738098         3251.16         3307.87 
      0.0800417         2954.46         3030.15 
      0.0862327         2696.36          2742.3 
      0.0921407         2455.67          2474.3 
      0.0982031         2199.64         2226.32 
       0.104506         2031.89          2012.4 
       0.110769         1865.92         1848.21 
       0.116806          1734.6         1729.52 
       0.122832         1652.94         1637.74 
       0.129052         1547.67         1556.45 
       0.135211            1471         1476.96 
       0.141259         1403.97         1392.99 
       0.147318         1322.87         1302.16 
       0.153489         1218.59         1206.84 
       0.159709         1141.98         1114.53 
       0.165845            1082         1033.12 
       0.171974         1007.94         964.877 
       0.178125          955.86         909.839 
       0.184229         915.979         866.266 
        0.19034         858.872         829.851 
       0.196428          842.37          796.67 
       0.202534         816.448         763.262 
       0.208729         776.225          727.51 
       0.214876         734.504         690.194 
       0.220989         710.403         652.573 
       0.227147         668.796         616.061 
        0.23329         639.574         582.726 
       0.239377         621.687         553.734 
       0.245482          581.19         528.807 
       0.251667         573.362         507.166 
       0.257832         553.614         488.105 
       0.263955         534.882         470.459 
       0.270079         516.584         453.144 
        0.27624         508.734         435.542 
       0.282372         487.849         417.784 
        0.28843         472.454         400.331 
       0.294538         451.304         383.297 
       0.300721         446.392         367.125 
        0.30691         425.594         352.305 
       0.313033         415.736         339.075 
       0.319153         400.402         327.113 
       0.325316         390.147         316.055 
        0.33145         378.202         305.689 
       0.337538          373.08         295.759 
       0.343633         360.942          285.99 
       0.349808         349.862         276.232 
       0.355968         344.624         266.677 
       0.362074         335.993         257.513 
       0.368217         327.045         248.716 
       0.374374         316.053         240.412 
       0.380519         310.865         232.671 
       0.386598         303.247         225.508 
       0.392688          299.72         218.765 
        0.39888         291.739         212.249 
       0.405048         285.543         206.012 
       0.411186         279.391             200 
       0.417313         273.979         194.154 
       0.423458         268.656         188.452 
       0.429607         262.431         182.931 
       0.435692         255.071         177.673 
       0.441815          253.32         172.608 
       0.447964         248.864         167.765 
       0.454126         238.779         163.142 
       0.460267         236.199         158.746 
       0.466387         233.203         154.552 
        0.47254         228.472         150.494 
       0.478662         226.611          146.59 
       0.484765          220.37         142.819 
       0.490885         217.166         139.154 
       0.497035         214.226         135.585 
       0.503198         208.746         132.129 
       0.509342         206.058         128.807 
       0.515458         203.326         125.625 
       0.521598         200.574          122.55 
       0.527764         197.434         119.576 
       0.533884         194.401         116.731 
           0.54         191.538         113.986 
       0.546137         190.255         111.321 
       0.552299         186.961         108.726 
       0.558452         183.748         106.214 
       0.564573         180.575         103.791 
       0.570708         177.999         101.438 
       0.576825         175.699         99.1642 
       0.582926          173.02         96.9682 
       0.589034         170.381         94.8389 
       0.595184         168.706         92.7637 
       0.601379         167.077         90.7399 
       0.607522         163.205         88.7949 
       0.613639         162.852         86.9157 
       0.619772         159.216          85.086 
       0.625918         157.758         83.3049 
       0.632068         156.022         81.5736 
       0.638161         154.673         79.9071 
         0.6443           152.5         78.2755 
       0.650464         150.839          76.684 
       0.656582         149.183         75.1489 
       0.662703         146.758         73.6562 
       0.668861         145.126         72.1965 
       0.675024          143.51         70.7761 
       0.681124         142.367         69.4092 
       0.687237         139.862         68.0762 
       0.693381         138.252         66.7724 
       0.699536         136.994         65.5006 
       0.705665         137.473         64.2676 
       0.711789         133.902         63.0675 
       0.717957         133.416         61.8901 
        0.72409         131.552         60.7496 
       0.730186         129.411         59.6452 
       0.736317         129.102         58.5628 
       0.742472         127.925         57.5037 
       0.748622         126.908         56.4723 
        0.75476         125.637         55.4687 
       0.760888          123.93         54.4914 
       0.767043         122.918          53.534 
       0.773185         121.648         52.6019 
       0.779291         120.441         51.6974 
       0.785407          119.61         50.8132 
       0.791564         118.262         49.9443 
       0.797719         116.737         49.0964 
       0.803834         116.266         48.2739 
       0.809972         114.496         47.4675 
       0.816124         114.115          46.678 
       0.822261         113.054         45.9088 
       0.828378          112.01         45.1595 
       0.834502          111.25         44.4265 
       0.840667         110.086         43.7052 
       0.846816             109         43.0022 
       0.852925         107.992         42.3192 
       0.859047         106.747         41.6498 
       0.865192         106.424         40.9927 
       0.871341          105.47         40.3496 
       0.877463         104.157         39.7233 
       0.883569         103.482          39.112 
       0.889708         102.913         38.5106 
       0.895864         102.008         37.9203 
       0.902008         101.236         37.3438 
       0.908149         100.605         36.7798 
       0.914301         99.5228         36.2265 
       0.920448         98.9157         35.6853 
       0.926574         98.2082         35.1571 
       0.932687         97.6984         34.6408 
       0.938823         96.2648         34.1332 
       0.944975         95.8691         33.6346 
       0.951105         95.0653         33.1479 
       0.957225         93.9116         32.6717 
       0.963368         93.6562         32.2034 
       0.969511         93.1572         31.7443 
       0.975621         92.6464         31.2967 
       0.981748         91.7371         30.8567 
       0.987916         91.0641         30.4225 
        0.99406         90.5843         29.9983 
        1.00019         89.5311         29.5831 
        1.00632         89.2407         29.1763 
        1.01246         88.3814         28.7766 
        1.01859         87.3157         28.3851 
        1.02471          87.721         28.0014 
        1.03085         86.7074         27.6236 
        1.03698         86.0005         27.2536 
        1.04314         85.1754         26.8889 
        1.04929         84.8361         26.5318 
        1.05541         84.1363         26.1827 
        1.06154          83.858          25.839 
        1.06769         83.2232         25.5011 
        1.07382         82.8936         25.1704 
        1.07993         82.4545         24.8464 
        1.08607         81.6799         24.5267 
        1.09222         81.2746         24.2125 
        1.09836         80.7108         23.9041 
        1.10449         80.1939         23.6015 
        1.11063         79.5683         23.3039 
        1.11677         79.1053         23.0115 
         1.1229         78.6427         22.7247 
        1.12903         77.6826         22.4426 
        1.13518         77.8982          22.165 
        1.14131         77.4079         21.8924 
        1.14745         76.4311         21.6245 
        1.15359          76.263         21.3611 
        1.15973         75.6981          21.102 
        1.16584         75.1946         20.8484 
        1.17197          74.786         20.5986 
        1.17811         74.4054         20.3521 
        1.18424         73.7031         20.1105 
        1.19038         73.4581         19.8721 
        1.19652          73.134         19.6376 
        1.20267         72.5674          19.407 
        1.20881         72.1508         19.1802 
        1.21495         71.6068         18.9573 
        1.22108         71.2029         18.7381 
         1.2272         70.6536         18.5229 
        1.23334         70.3868         18.3106 
        1.23949         70.1487         18.1011 
        1.24562         69.7668         17.8955 
        1.25174         69.3722         17.6935 
        1.25789         68.9873          17.494 
        1.26402         68.4726         17.2979 
        1.27014          67.894         17.1054 
        1.27628         67.7609         16.9152 
        1.28244         67.1445         16.7276 
        1.28858         66.8979         16.5431 
        1.29471         66.6989         16.3618 
        1.30084         66.2555         16.1834 
        1.30697         65.7357         16.0075 
        1.31312          65.362         15.8339 
        1.31925         65.2506         15.6634 
        1.32537         64.8451         15.4957 
        1.33151         64.3397         15.3298 
        1.33765         64.1649         15.1665 
        1.34378         63.7779         15.0059 
        1.34992         63.2103         14.8475 
        1.35606           62.93         14.6911 
         1.3622         62.5157         14.5372 
        1.36833         62.3706         14.3859 
        1.37445         62.1168         14.2369 
        1.38059         61.6923         14.0895 
        1.38675         61.3371         13.9438 
        1.39288         61.0064         13.8009 
        1.39901         60.7349           13.66 
        1.40515         60.4399         13.5207 
         1.4113         60.2034         13.3835 
        1.41742         59.7605         13.2487 
        1.42355         59.5006         13.1155 
         1.4297         59.1327         12.9838 
        1.43585         58.9234         12.8539 
        1.44198         58.6488         12.7263 
        1.44809         58.2934         12.6007 
        1.45423         58.1211         12.4763 
        1.46036         57.7616         12.3539 
        1.46649         57.4286          12.233 
        1.47263         57.1556         12.1137 
        1.47877         56.9912         11.9961 
        1.48491         56.7025         11.8798 
        1.49104         56.3082         11.7653 
        1.49718         55.9007         11.6523 
        1.50333         55.7649         11.5405 
        1.50947         55.4368         11.4305 
         1.5156         55.1611         11.3221 
        1.52172         54.9332         11.2151 
        1.52787         54.8344         11.1092 
          1.534         54.4489         11.0049 
        1.54013          54.131          10.902 
        1.54627         54.0031         10.8003 
        1.55241         53.6615         10.6999 
        1.55855         53.3045         10.6009 
        1.56467         52.9329         10.5034 
         1.5708         52.9148         10.4068 
        1.57695         52.5916         10.3114 
        1.58308         52.4518         10.2174 
        1.58922         52.2843         10.1245 
        1.59535         51.9564         10.0327 
         1.6015         51.6033         9.94204 
        1.60764         51.4881         9.85251 
        1.61376         51.2198         9.76434 
        1.61989         50.7724         9.67718 
        1.62604         50.7228          9.5909 
        1.63218         50.4869         9.50573 
        1.63831         50.2198         9.42179 
        1.64444         50.0497         9.33885 
        1.65059         49.5997         9.25671 
        1.65673          49.444         9.17565 
        1.66285         49.2823         9.09579 
        1.66898         48.9626         9.01686 
        1.67512         48.7571         8.93872 
        1.68127          48.462         8.86144 
         1.6874         48.3934         8.78524 
        1.69353         48.0586         8.70999 
        1.69967         47.8965         8.63545 
        1.70581         47.7806         8.56182 
        1.71193         47.4346         8.48932 
        1.71806         47.1573         8.41752 
        1.72421         46.9556          8.3464 
        1.73035         46.7353          8.2762 
        1.73649         46.5043         8.20682 
        1.74262         46.3295         8.13829 
        1.74876         46.3017         8.07051 
        1.75489          45.902         8.00364 
        1.76101         45.7333         7.93755 
        1.76715         45.5037         7.87212 
        1.77329         45.2772         7.80736 
        1.77943         45.1665         7.74329 
        1.78557          44.955         7.68005 
        1.79171         44.6699          7.6175 
        1.79785         44.4725         7.55564 
        1.80399         44.3159         7.49449 
        1.81012         44.1681          7.4341 
        1.81625         43.8292          7.3744 
        1.82239         43.7168         7.31527 
        1.82853         43.3842         7.25683 
        1.83466         43.2873         7.19908 
        1.84078         42.9653         7.14202 
        1.84692         42.8681          7.0855 
        1.85306           42.66         7.02951 
         1.8592         42.4832         6.97423 
        1.86533         42.2298         6.91957 
        1.87147         42.1137         6.86544 
        1.87761         42.0108         6.81187 
        1.88375         41.7523         6.75894 
        1.88988         41.6872         6.70662 
        1.89601         41.3907         6.65484 
        1.90215         41.2657         6.60356 
        1.90829         41.1491         6.55286 
        1.91442         40.8552         6.50268 
        1.92056         40.7619         6.45307 
         1.9267         40.4484         6.40394 
        1.93284         40.2371         6.35528 
        1.93897          40.185         6.30723 
        1.94509         39.9586         6.25978 
        1.95123         39.7945          6.2127 
        1.95737         39.6066         6.16607 
        1.96349         39.4168         6.12004 
        1.96964         39.1916         6.07434 
        1.97578         39.1337          6.0291 
        1.98192         38.8971         5.98441 
        1.98805         38.7802         5.94017 
        1.99419         38.5038         5.89638 
        2.00033         38.3403         5.85301 
        2.00647         38.2206         5.81009 
         2.0126         38.0403         5.76767 
        2.01874          37.928         5.72562 
        2.02488         37.8292         5.68395 
        2.03101         37.5564         5.64277 
        2.03714         37.3707         5.60204 
        2.04328         37.2085         5.56167 
        2.04941         37.0752         5.52173 
        2.05554         36.8889         5.48221 
        2.06167         36.7533         5.44303 
        2.06781         36.5929         5.40423 
        2.07396         36.3934         5.36575 
        2.08009         36.3101         5.32772 
        2.08622          36.134         5.29009 
        2.09237         35.9874         5.25276 
        2.09851         35.7834         5.21579 
        2.10464         35.7193         5.17923 
        2.11077         35.4499         5.14307 
        2.11691         35.4023         5.10718 
        2.12305         35.1953         5.07162 
        2.12918          35.148          5.0365 
        2.13531         34.9657          5.0017 
        2.14145         34.8436         4.96716 
         2.1476         34.5962          4.9329 
        2.15372         34.4707         4.89914 
        2.15985         34.3646         4.86566 
        2.16599         34.2479          4.8324 
        2.17213         34.1552         4.79949 
        2.17827         33.8209         4.76689 
         2.1844         33.7447         4.73463 
        2.19054         33.6069         4.70266 
        2.19666          33.471         4.67102 
         2.2028         33.3714         4.63965 
        2.20893         33.2377         4.60856 
        2.21508         33.0793         4.57772 
        2.22122         32.8918         4.54715 
        2.22736         32.7982         4.51692 
        2.23349         32.6682         4.48698 
        2.23962         32.5066         4.45729 
        2.24577         32.3272         4.42785 
         2.2519         32.2291         4.39871 
        2.25802         32.1211         4.36989 
        2.26417         31.9783         4.34124 
        2.27031         31.8791         4.31282 
        2.27644         31.7182         4.28475 
        2.28257         31.6086         4.25692 
        2.28872         31.4308         4.22929 
        2.29486         31.3267         4.20191 
        2.30099         31.2275         4.17483 
        2.30712          31.123         4.14798 
        2.31326         30.9905         4.12132 
         2.3194         30.8386         4.09492 
        2.32553         30.6956         4.06878 
        2.33166         30.5401         4.04289 
         2.3378          30.434         4.01719 
        2.34394         30.3075          3.9917 
        2.35007         30.1593         3.96648 
        2.35619         30.0924          3.9415 
        2.36233         29.9752         3.91668 
        2.36848         29.7648         3.89202 
        2.37462         29.6868         3.86763 
        2.38075         29.5556         3.84347 
        2.38689         29.4629          3.8195 
        2.39303         29.3124         3.79573 
        2.39916         29.1883          3.7722 
        2.40529         29.0559         3.74886 
        2.41143         28.9668         3.72571 
        2.41757         28.8288         3.70274 
         2.4237         28.7194         3.68001 
        2.42983         28.6185         3.65748 
        2.43598         28.4972         3.63507 
        2.44211         28.3803         3.61289 
        2.44823         28.2247         3.59094 
        2.45437         28.1486         3.56912 
        2.46052         28.0159         3.54746 
        2.46665         27.9453         3.52602 
        2.47279         27.8015         3.50476 
        2.47892         27.6686         3.48367 
        2.48507         27.5655         3.46273 
         2.4912         27.4912           3.442 
