# k  (h/Mpc)    P(k)  (Mpc/h)^3    P_linear(k)  (Mpc/h)^3
     0.00783031         290.635         293.269 
       0.013688         388.037         389.351 
       0.019231         418.217         418.661 
      0.0249154         407.765         409.578 
      0.0312784         374.559         375.027 
      0.0375637         334.031         333.605 
      0.0433917         298.298         298.508 
      0.0492413         270.668         270.372 
      0.0555754         247.618         248.057 
      0.0619321         232.468         231.783 
       0.067871         218.766         219.132 
      0.0738098         205.982         206.477 
      0.0800417         190.898         191.708 
      0.0862327         175.053         175.435 
      0.0921407         159.237         159.381 
      0.0982031         143.479         143.779 
       0.104506         130.139         129.801 
       0.110769          119.16         118.867 
       0.116806         110.922         111.071 
       0.122832         105.541         105.395 
       0.129052          100.62         100.831 
       0.135211          96.353         96.6623 
       0.141259         92.1382         92.2144 
       0.147318         87.2528         87.1006 
       0.153489         81.2883         81.3107 
       0.159709         75.3338         75.2871 
       0.165845         70.1235         69.6601 
       0.171974         64.8793          64.762 
       0.178125          60.984         60.7794 
       0.184229         58.0655         57.7359 
        0.19034         55.3945         55.4015 
       0.196428          53.676          53.491 
       0.202534         52.1064         51.6859 
       0.208729         49.9608         49.7269 
       0.214876         47.6015         47.5423 
       0.220989         45.5663         45.1547 
       0.227147         42.7572         42.6585 
        0.23329         40.3922         40.2452 
       0.239377         38.3228         38.0788 
       0.245482         36.3579         36.2188 
       0.251667         35.0313         34.6684 
       0.257832            33.7         33.4054 
       0.263955          32.649         32.3353 
       0.270079         31.6577         31.3404 
        0.27624         30.7887         30.3273 
       0.282372         29.6914         29.2535 
        0.28843         28.4546         28.1231 
       0.294538         27.3021          26.945 
       0.300721         26.2604         25.7658 
        0.30691          25.034         24.6552 
       0.313033         24.0816         23.6636 
       0.319153          23.028          22.796 
       0.325316         22.5316         22.0359 
        0.33145         21.8138         21.3673 
       0.337538         21.1911         20.7534 
       0.343633          20.543         20.1561 
       0.349808         19.9781         19.5444 
       0.355968         19.3562          18.918 
       0.362074         18.7091         18.2863 
       0.368217         18.1026         17.6536 
       0.374374         17.4237         17.0418 
       0.380519         16.9261         16.4681 
       0.386598         16.4344         15.9467 
       0.392688         15.9967         15.4715 
        0.39888         15.5263         15.0292 
       0.405048         15.1378           14.62 
       0.411186         14.7656         14.2307 
       0.417313          14.315         13.8495 
       0.423458         13.9724         13.4698 
       0.429607         13.5545           13.09 
       0.435692         13.1765         12.7176 
       0.441815         12.8344         12.3519 
       0.447964         12.5509         11.9988 
       0.454126         12.1365         11.6632 
       0.460267         11.8325         11.3498 
       0.466387         11.5034         11.0568 
        0.47254         11.2653         10.7785 
       0.478662         11.0211         10.5146 
       0.484765          10.733         10.2604 
       0.490885         10.4773         10.0109 
       0.497035         10.3091         9.76405 
       0.503198         10.0321         9.52136 
       0.509342         9.80247         9.28466 
       0.515458         9.55245         9.05555 
       0.521598         9.34577         8.83373 
       0.527764         9.10904          8.6207 
       0.533884         8.94485         8.41901 
           0.54         8.74105         8.22613 
       0.546137          8.5691         8.04022 
       0.552299         8.38877         7.86018 
       0.558452         8.16491         7.68592 
       0.564573         8.03154         7.51688 
       0.570708         7.86712         7.35098 
       0.576825         7.67595          7.1893 
       0.582926         7.54484         7.03228 
       0.589034         7.33365         6.87974 
       0.595184         7.20712         6.73115 
       0.601379         7.05672         6.58648 
       0.607522         6.94673         6.44787 
       0.613639         6.84318         6.31453 
       0.619772         6.66546         6.18527 
       0.625918         6.56518         6.05968 
       0.632068         6.45957         5.93748 
       0.638161         6.31281          5.8194 
         0.6443         6.18722         5.70317 
       0.650464         6.05597         5.58934 
       0.656582         5.97746          5.4793 
       0.662703         5.86872         5.37224 
       0.668861          5.7754         5.26767 
       0.675024         5.65265         5.16606 
       0.681124         5.54285         5.06837 
       0.687237         5.46716         4.97314 
       0.693381         5.37631         4.87999 
       0.699536         5.23837         4.78909 
       0.705665         5.16306         4.70091 
       0.711789         5.08526         4.61503 
       0.717957         4.99089          4.5307 
        0.72409         4.91119         4.44895 
       0.730186         4.83016          4.3697 
       0.736317         4.77884         4.29194 
       0.742472         4.69732          4.2158 
       0.748622         4.60938         4.14159 
        0.75476         4.51458         4.06935 
       0.760888          4.4515         3.99899 
       0.767043         4.40313         3.93006 
       0.773185         4.31295         3.86295 
       0.779291         4.25774         3.79783 
       0.785407         4.19073         3.73415 
       0.791564         4.12636         3.67155 
       0.797719         4.07071         3.61044 
       0.803834         4.01429         3.55113 
       0.809972         3.95614         3.49294 
       0.816124          3.8847         3.43594 
       0.822261         3.81967         3.38037 
       0.828378         3.77463          3.3262 
       0.834502         3.73197         3.27319 
       0.840667         3.65546           3.221 
       0.846816         3.60342         3.17012 
       0.852925         3.56973         3.12066 
       0.859047         3.51831         3.07218 
       0.865192         3.46914         3.02458 
       0.871341         3.42142         2.97797 
       0.877463         3.38387         2.93257 
       0.883569         3.32293         2.88824 
       0.889708           3.273         2.84461 
       0.895864         3.23593         2.80179 
       0.902008         3.18352         2.75995 
       0.908149         3.14582           2.719 
       0.914301         3.08823         2.67882 
       0.920448         3.05357          2.6395 
       0.926574         3.01025         2.60112 
       0.932687         2.97634          2.5636 
       0.938823         2.94788         2.52668 
       0.944975         2.90524         2.49042 
       0.951105         2.87207         2.45501 
       0.957225         2.84703         2.42036 
       0.963368          2.8059         2.38626 
       0.969511         2.76488         2.35283 
       0.975621         2.72226         2.32023 
       0.981748         2.69998         2.28816 
       0.987916         2.66492         2.25651 
        0.99406         2.62408         2.22558 
        1.00019         2.60088          2.1953 
        1.00632         2.56356         2.16562 
        1.01246         2.53432         2.13645 
        1.01859          2.5079         2.10787 
        1.02471         2.47368         2.07985 
        1.03085         2.45125         2.05225 
        1.03698         2.41576         2.02521 
        1.04314         2.39235         1.99855 
        1.04929         2.35938         1.97244 
        1.05541         2.33639         1.94691 
        1.06154         2.30759         1.92177 
        1.06769         2.28164         1.89704 
        1.07382         2.25745         1.87283 
        1.07993         2.22326          1.8491 
        1.08607         2.21129         1.82569 
        1.09222         2.18091         1.80267 
        1.09836          2.1663         1.78007 
        1.10449         2.13999         1.75789 
        1.11063         2.11009         1.73607 
        1.11677         2.08527         1.71463 
         1.1229         2.06425         1.69359 
        1.12903         2.03923          1.6729 
        1.13518         2.02489         1.65253 
        1.14131         1.99634         1.63252 
        1.14745         1.96397         1.61285 
        1.15359         1.95556         1.59351 
        1.15973         1.92554         1.57448 
        1.16584         1.91959         1.55584 
        1.17197         1.89461         1.53749 
        1.17811         1.87553         1.51938 
        1.18424         1.86399         1.50162 
        1.19038           1.838         1.48409 
        1.19652         1.81637         1.46685 
        1.20267         1.80469         1.44989 
        1.20881         1.77902          1.4332 
        1.21495         1.76802          1.4168 
        1.22108         1.75051         1.40067 
         1.2272          1.7373         1.38483 
        1.23334         1.71536         1.36919 
        1.23949         1.69681         1.35377 
        1.24562         1.68391         1.33863 
        1.25174         1.66631         1.32374 
        1.25789         1.65185         1.30903 
        1.26402         1.62976         1.29458 
        1.27014         1.61519         1.28039 
        1.27628         1.60765         1.26636 
        1.28244         1.58404         1.25252 
        1.28858         1.57179         1.23891 
        1.29471         1.55947         1.22553 
        1.30084         1.54186         1.21236 
        1.30697         1.52906         1.19937 
        1.31312         1.50729         1.18655 
        1.31925         1.49997         1.17396 
        1.32537         1.48788         1.16157 
        1.33151         1.47537         1.14931 
        1.33765         1.45984         1.13724 
        1.34378         1.44209         1.12537 
        1.34992         1.43652         1.11366 
        1.35606         1.41855          1.1021 
         1.3622         1.40889         1.09072 
        1.36833         1.39521         1.07952 
        1.37445         1.37943          1.0685 
        1.38059         1.36766         1.05759 
        1.38675         1.36607         1.04681 
        1.39288          1.3465         1.03623 
        1.39901         1.33574          1.0258 
        1.40515         1.32546         1.01549 
         1.4113         1.31193         1.00532 
        1.41742         1.30091         0.99534 
        1.42355         1.29685        0.985473 
         1.4297         1.27884        0.975712 
        1.43585         1.26989        0.966088 
        1.44198         1.26459        0.956632 
        1.44809         1.24678         0.94732 
        1.45423         1.23811          0.9381 
        1.46036         1.22853         0.92902 
        1.46649         1.21817        0.920057 
        1.47263         1.20676        0.911207 
        1.47877         1.19589        0.902478 
        1.48491         1.18693         0.89385 
        1.49104         1.17646        0.885355 
        1.49718         1.17014        0.876964 
        1.50333         1.15947        0.868669 
        1.50947         1.15152          0.8605 
         1.5156         1.14106        0.852448 
        1.52172         1.13187        0.844501 
        1.52787         1.12188        0.836639 
          1.534         1.11628        0.828888 
        1.54013         1.10234        0.821244 
        1.54627         1.09515        0.813683 
        1.55241         1.08622        0.806216 
        1.55855         1.07686        0.798855 
        1.56467         1.07264        0.791606 
         1.5708         1.06035        0.784427 
        1.57695         1.05582        0.777327 
        1.58308         1.04694        0.770332 
        1.58922         1.03881        0.763419 
        1.59535         1.03096        0.756593 
         1.6015         1.02326        0.749843 
        1.60764         1.01635        0.743178 
        1.61376         1.00585        0.736613 
        1.61989         1.00096        0.730123 
        1.62604        0.992833        0.723697 
        1.63218        0.987936        0.717353 
        1.63831        0.977813        0.711101 
        1.64444        0.970705         0.70492 
        1.65059        0.964254          0.6988 
        1.65673        0.956761        0.692759 
        1.66285        0.949241        0.686807 
        1.66898        0.944764        0.680923 
        1.67512        0.935318        0.675098 
        1.68127        0.928946        0.669335 
         1.6874        0.924716        0.663653 
        1.69353        0.916095        0.658041 
        1.69967        0.910359        0.652481 
        1.70581        0.903997        0.646989 
        1.71193        0.897455         0.64158 
        1.71806        0.891401        0.636222 
        1.72421        0.885261        0.630916 
        1.73035         0.87807        0.625676 
        1.73649        0.873832        0.620498 
        1.74262        0.867471        0.615382 
        1.74876        0.860399        0.610321 
        1.75489          0.8548        0.605328 
        1.76101        0.847528        0.600393 
        1.76715        0.842986        0.595506 
        1.77329        0.837201        0.590668 
        1.77943        0.831378        0.585882 
        1.78557        0.825678        0.581157 
        1.79171        0.820846        0.576483 
        1.79785        0.815142         0.57186 
        1.80399        0.809477        0.567288 
        1.81012        0.805018        0.562773 
        1.81625        0.798589         0.55831 
        1.82239        0.794958        0.553889 
        1.82853        0.786115        0.549517 
        1.83466        0.783084        0.545198 
        1.84078         0.77701         0.54093 
        1.84692        0.773655        0.536701 
        1.85306        0.768002        0.532512 
         1.8592        0.763616        0.528374 
        1.86533        0.758936        0.524284 
        1.87147        0.753566        0.520232 
        1.87761        0.749826        0.516221 
        1.88375        0.741894        0.512258 
        1.88988        0.739488        0.508341 
        1.89601         0.73393        0.504463 
        1.90215        0.730009        0.500622 
        1.90829        0.724377        0.496824 
        1.91442        0.720087        0.493065 
        1.92056        0.715514        0.489349 
         1.9267        0.710779        0.485667 
        1.93284        0.707045        0.482021 
        1.93897        0.703085         0.47842 
        1.94509        0.698519        0.474863 
        1.95123        0.693051        0.471334 
        1.95737        0.690098        0.467838 
        1.96349        0.684993        0.464387 
        1.96964         0.68085        0.460961 
        1.97578        0.676489        0.457568 
        1.98192        0.674747        0.454217 
        1.98805        0.669542        0.450898 
        1.99419        0.664956        0.447613 
        2.00033        0.661841         0.44436 
        2.00647        0.657521         0.44114 
         2.0126        0.653384        0.437957 
        2.01874        0.650031        0.434801 
        2.02488        0.646431        0.431674 
        2.03101        0.641539        0.428583 
        2.03714        0.637454        0.425526 
        2.04328        0.634724        0.422495 
        2.04941        0.630708        0.419496 
        2.05554        0.627068        0.416529 
        2.06167        0.623942        0.413587 
        2.06781        0.618349        0.410673 
        2.07396        0.614849        0.407783 
        2.08009        0.611943        0.404925 
        2.08622        0.608763        0.402099 
        2.09237         0.60714        0.399294 
        2.09851        0.603211        0.396516 
        2.10464        0.599609        0.393768 
        2.11077        0.595333        0.391051 
        2.11691         0.59184        0.388353 
        2.12305        0.588871         0.38568 
        2.12918        0.585246        0.383039 
        2.13531        0.582156        0.380423 
        2.14145        0.579139        0.377826 
         2.1476        0.575637        0.375249 
        2.15372        0.573853         0.37271 
        2.15985        0.569321        0.370192 
        2.16599        0.565545         0.36769 
        2.17213        0.563463        0.365214 
        2.17827        0.561234        0.362762 
         2.1844         0.55813        0.360334 
        2.19054        0.554836        0.357928 
        2.19666        0.550821        0.355548 
         2.2028        0.548872        0.353187 
        2.20893         0.54578        0.350846 
        2.21508        0.542184        0.348524 
        2.22122        0.539443        0.346223 
        2.22736        0.536601        0.343947 
        2.23349        0.534509        0.341692 
        2.23962        0.531537        0.339457 
        2.24577        0.527447        0.337239 
         2.2519        0.525981        0.335045 
        2.25802        0.522526        0.332873 
        2.26417        0.519466        0.330715 
        2.27031        0.516634        0.328574 
        2.27644         0.51484        0.326459 
        2.28257         0.51155        0.324362 
        2.28872        0.509294         0.32228 
        2.29486        0.506113        0.320217 
        2.30099        0.504115        0.318176 
        2.30712        0.501913        0.316152 
        2.31326        0.498421        0.314142 
         2.3194        0.498236        0.312151 
        2.32553         0.49508        0.310181 
        2.33166        0.492256        0.308228 
         2.3378        0.489995         0.30629 
        2.34394        0.486146        0.304368 
        2.35007        0.484096        0.302466 
        2.35619        0.481552        0.300582 
        2.36233        0.478404        0.298709 
        2.36848        0.477163        0.296849 
        2.37462        0.474362        0.295009 
        2.38075        0.473047        0.293186 
        2.38689        0.469831        0.291377 
        2.39303        0.468468        0.289584 
        2.39916        0.465192        0.287807 
        2.40529           0.463        0.286046 
        2.41143        0.461343        0.284299 
        2.41757        0.458499        0.282565 
         2.4237        0.456232        0.280849 
        2.42983        0.454468        0.279147 
        2.43598        0.452662        0.277455 
        2.44211        0.450511         0.27578 
        2.44823        0.448847        0.274123 
        2.45437        0.445473        0.272475 
        2.46052        0.444583        0.270839 
        2.46665        0.441928        0.269219 
        2.47279        0.439284        0.267614 
        2.47892        0.437239         0.26602 
        2.48507        0.435774        0.264438 
         2.4912        0.433867        0.262872 
