# k  (h/Mpc)    Pcb(k)  (Mpc/h)^3    Pcb_linear(k)  (Mpc/h)^3
     0.00783031         975.348         985.552 
       0.013688         1133.67         1136.42 
       0.019231         1071.97         1071.88 
      0.0249154         911.741         915.312 
      0.0312784         725.849         724.744 
      0.0375637         575.848         573.171 
      0.0433917         478.914         478.233 
      0.0492413         421.894         420.637 
      0.0555754         384.176         385.372 
      0.0619321         362.428           360.9 
       0.067871         334.798         335.804 
      0.0738098         302.571         303.428 
      0.0800417         262.242         263.279 
      0.0862327         223.406         223.168 
      0.0921407         191.168         190.413 
      0.0982031         165.983          165.63 
       0.104506         150.954         149.502 
       0.110769         141.952         140.888 
       0.116806         136.429         136.214 
       0.122832         132.347         131.789 
       0.129052         124.896         125.025 
       0.135211         115.356         115.391 
       0.141259         104.626         104.018 
       0.147318         93.5599         92.5017 
       0.153489         83.2213         82.3598 
       0.159709          75.727         74.7564 
       0.165845         71.2828         69.9068 
       0.171974         67.8202         67.0702 
       0.178125         66.0718         65.2426 
       0.184229         64.2644         63.4269 
        0.19034         61.2101         60.8936 
       0.196428         58.1364         57.4381 
       0.202534         54.4423         53.2969 
       0.208729         49.9225          48.956 
       0.214876         45.9121         45.0671 
       0.220989         43.1036         41.9674 
       0.227147         40.5673         39.7058 
        0.23329         38.9781          38.157 
       0.239377         37.9217         37.0239 
       0.245482         36.5386         35.9668 
       0.251667         35.5926         34.7244 
       0.257832         34.0086         33.2022 
       0.263955         32.3278         31.4571 
       0.270079         30.5263         29.6304 
        0.27624         28.9955         27.8868 
       0.282372          27.531         26.3838 
        0.28843         26.1832         25.1788 
       0.294538         25.1899         24.2243 
       0.300721         24.5432         23.4408 
        0.30691         23.6367         22.7341 
       0.313033         22.9178         22.0192 
       0.319153         21.9223         21.2378 
       0.325316         21.3605         20.3799 
        0.33145         20.4203         19.4914 
       0.337538         19.5898         18.6273 
       0.343633         18.7203         17.8301 
       0.349808         18.0842         17.1179 
       0.355968          17.475           16.51 
       0.362074         16.9044         15.9859 
       0.368217          16.416         15.5083 
       0.374374         15.8848          15.047 
       0.380519         15.4688         14.5794 
       0.386598         15.0207         14.1043 
       0.392688         14.5904         13.6182 
        0.39888          14.061          13.129 
       0.405048         13.6164         12.6642 
       0.411186         13.2023         12.2342 
       0.417313         12.7556         11.8436 
       0.423458         12.4107         11.4882 
       0.429607         12.0471         11.1588 
       0.435692         11.7024         10.8495 
       0.441815         11.4117         10.5468 
       0.447964         11.1682         10.2445 
       0.454126         10.7724         9.94251 
       0.460267          10.512         9.64655 
       0.466387         10.1678         9.36043 
        0.47254         9.93677         9.08513 
       0.478662         9.71396         8.82673 
       0.484765          9.4044         8.58586 
       0.490885         9.17796         8.35831 
       0.497035         9.03819          8.1402 
       0.503198         8.77516         7.92961 
       0.509342         8.56003         7.72568 
       0.515458         8.34604         7.52707 
       0.521598         8.16068          7.3314 
       0.527764         7.93656         7.13974 
       0.533884         7.79737         6.95599 
           0.54         7.59702         6.78017 
       0.546137         7.43657         6.61147 
       0.552299         7.28009         6.44924 
       0.558452         7.06836         6.29375 
       0.564573         6.94708          6.1448 
       0.570708         6.79619          6.0005 
       0.576825          6.6229          5.8609 
       0.582926         6.49686         5.72523 
       0.589034         6.31579         5.59273 
       0.595184         6.20621           5.463 
       0.601379         6.06163         5.33643 
       0.607522          5.9654         5.21534 
       0.613639         5.86858         5.09916 
       0.619772          5.7024         4.98678 
       0.625918         5.63255         4.87785 
       0.632068         5.53803         4.77215 
       0.638161         5.39786         4.67036 
         0.6443         5.28657         4.57059 
       0.650464         5.16889         4.47324 
       0.656582          5.1092         4.37936 
       0.662703         5.00752         4.28816 
       0.668861          4.9192         4.19911 
       0.675024         4.81369         4.11262 
       0.681124         4.72001          4.0295 
       0.687237         4.64717         3.94856 
       0.693381         4.56772         3.86949 
       0.699536         4.44495         3.79246 
       0.705665         4.38324         3.71786 
       0.711789         4.30922         3.64533 
       0.717957         4.22682         3.57424 
        0.72409         4.15171         3.50547 
       0.730186         4.08357         3.43893 
       0.736317         4.04019         3.37378 
       0.742472         3.97018         3.31011 
       0.748622          3.8921         3.24815 
        0.75476         3.81497         3.18794 
       0.760888         3.75513         3.12936 
       0.767043         3.70858         3.07202 
       0.773185         3.62982         3.01625 
       0.779291         3.58874         2.96218 
       0.785407         3.52538         2.90936 
       0.791564         3.47471         2.85749 
       0.797719         3.41735         2.80692 
       0.803834         3.37902          2.7579 
       0.809972          3.3281         2.70987 
       0.816124         3.26243          2.6629 
       0.822261         3.20105         2.61718 
       0.828378          3.1606         2.57267 
       0.834502         3.13133         2.52918 
       0.840667         3.06184         2.48642 
       0.846816         3.01325         2.44477 
       0.852925         2.98723         2.40435 
       0.859047         2.94153         2.36477 
       0.865192         2.90146         2.32596 
       0.871341          2.8658           2.288 
       0.877463         2.82388         2.25106 
       0.883569         2.77137         2.21503 
       0.889708         2.73074         2.17962 
       0.895864         2.69269         2.14489 
       0.902008          2.6545           2.111 
       0.908149         2.62642         2.07786 
       0.914301         2.57672         2.04539 
       0.920448         2.54402         2.01364 
       0.926574         2.50651         1.98268 
       0.932687         2.47494         1.95244 
       0.938823         2.44807         1.92273 
       0.944975         2.41465         1.89357 
       0.951105         2.38554         1.86513 
       0.957225         2.36827         1.83732 
       0.963368         2.33184         1.80998 
       0.969511         2.29561          1.7832 
       0.975621         2.26179         1.75712 
       0.981748         2.24025         1.73149 
       0.987916         2.20931         1.70621 
        0.99406         2.17207         1.68153 
        1.00019         2.15181          1.6574 
        1.00632         2.12502         1.63376 
        1.01246         2.09995         1.61054 
        1.01859          2.0739         1.58782 
        1.02471         2.04674         1.56557 
        1.03085         2.02328         1.54367 
        1.03698         1.99536         1.52223 
        1.04314         1.97621         1.50111 
        1.04929         1.95094         1.48045 
        1.05541         1.92846         1.46026 
        1.06154         1.90524          1.4404 
        1.06769         1.88884         1.42087 
        1.07382         1.85987         1.40178 
        1.07993         1.83439         1.38308 
        1.08607         1.82427         1.36465 
        1.09222          1.7978         1.34654 
        1.09836         1.78235         1.32877 
        1.10449         1.76235         1.31135 
        1.11063         1.73593         1.29423 
        1.11677         1.71846         1.27741 
         1.1229         1.70035         1.26093 
        1.12903         1.67938         1.24473 
        1.13518         1.66414         1.22879 
        1.14131         1.64067         1.21315 
        1.14745         1.61474         1.19779 
        1.15359         1.60566         1.18269 
        1.15973         1.58146         1.16785 
        1.16584         1.57369         1.15333 
        1.17197         1.55516         1.13904 
        1.17811         1.54178         1.12495 
        1.18424         1.52598         1.11113 
        1.19038         1.50773         1.09751 
        1.19652          1.4907         1.08413 
        1.20267         1.47878         1.07097 
        1.20881         1.46011         1.05803 
        1.21495         1.44774         1.04532 
        1.22108         1.43329         1.03283 
         1.2272         1.42241         1.02057 
        1.23334          1.4034         1.00848 
        1.23949         1.38757        0.996563 
        1.24562         1.37758        0.984868 
        1.25174         1.36199        0.973379 
        1.25789         1.34946        0.962039 
        1.26402         1.33262          0.9509 
        1.27014         1.32042        0.939965 
        1.27628         1.31359         0.92917 
        1.28244         1.29456        0.918524 
        1.28858         1.28438         0.90806 
        1.29471          1.2705        0.897782 
        1.30084         1.25668        0.887673 
        1.30697         1.24875        0.877706 
        1.31312         1.23002        0.867877 
        1.31925         1.22288        0.858231 
        1.32537         1.21085        0.848741 
        1.33151         1.20193        0.839361 
        1.33765         1.18745        0.830129 
        1.34378         1.17639        0.821054 
        1.34992          1.1689        0.812109 
        1.35606         1.15259        0.803279 
         1.3622         1.14678        0.794596 
        1.36833         1.13449        0.786062 
        1.37445          1.1217        0.777659 
        1.38059         1.11467        0.769353 
        1.38675         1.10934        0.761148 
        1.39288         1.09497        0.753097 
        1.39901          1.0841        0.745166 
        1.40515          1.0755        0.737331 
         1.4113         1.06625        0.729613 
        1.41742          1.0565        0.722034 
        1.42355         1.05168         0.71455 
         1.4297         1.03787        0.707149 
        1.43585         1.03028        0.699856 
        1.44198         1.02491        0.692693 
        1.44809          1.0117        0.685645 
        1.45423         1.00376        0.678669 
        1.46036        0.994866        0.671802 
        1.46649        0.986847        0.665029 
        1.47263        0.977777        0.658344 
        1.47877        0.968495        0.651753 
        1.48491        0.960739        0.645243 
        1.49104         0.95304        0.638835 
        1.49718        0.947277         0.63251 
        1.50333        0.936808        0.626261 
        1.50947        0.931257        0.620109 
         1.5156        0.922492        0.614049 
        1.52172        0.914716         0.60807 
        1.52787        0.906157        0.602159 
          1.534        0.900161        0.596333 
        1.54013        0.891538        0.590591 
        1.54627        0.884123        0.584914 
        1.55241        0.876373        0.579311 
        1.55855        0.870533         0.57379 
        1.56467        0.865394        0.568355 
         1.5708        0.855066        0.562976 
        1.57695        0.851412        0.557659 
        1.58308        0.844369        0.552422 
        1.58922        0.837014        0.547249 
        1.59535        0.830875        0.542145 
         1.6015        0.823924        0.537098 
        1.60764        0.819046        0.532119 
        1.61376        0.812145        0.527216 
        1.61989        0.805639        0.522371 
        1.62604        0.798135        0.517577 
        1.63218        0.795262        0.512846 
        1.63831        0.786988        0.508184 
        1.64444        0.780949        0.503579 
        1.65059        0.776248        0.499021 
        1.65673        0.768403        0.494523 
        1.66285        0.763524        0.490094 
        1.66898        0.760408        0.485718 
        1.67512        0.751206        0.481386 
        1.68127        0.745685        0.477104 
         1.6874        0.743351        0.472883 
        1.69353        0.735106        0.468716 
        1.69967        0.729072        0.464589 
        1.70581        0.726378        0.460514 
        1.71193        0.719695        0.456503 
        1.71806        0.716176        0.452532 
        1.72421        0.709863          0.4486 
        1.73035        0.703802        0.444719 
        1.73649         0.70048        0.440885 
        1.74262        0.695042        0.437099 
        1.74876        0.689518        0.433356 
        1.75489        0.682888        0.429664 
        1.76101        0.679555        0.426016 
        1.76715        0.675002        0.422405 
        1.77329        0.670842        0.418832 
        1.77943        0.664444        0.415299 
        1.78557         0.65972        0.411812 
        1.79171        0.657133        0.408364 
        1.79785         0.65129        0.404955 
        1.80399        0.647335        0.401585 
        1.81012        0.643608        0.398259 
        1.81625        0.638451        0.394972 
        1.82239        0.634491        0.391717 
        1.82853        0.627856          0.3885 
        1.83466        0.624921        0.385322 
        1.84078        0.619981        0.382184 
        1.84692        0.617664        0.379075 
        1.85306        0.613366        0.375997 
         1.8592        0.609232        0.372958 
        1.86533         0.60482        0.369955 
        1.87147         0.60113        0.366981 
        1.87761        0.596688        0.364039 
        1.88375        0.591786        0.361132 
        1.88988        0.589492         0.35826 
        1.89601        0.584634        0.355418 
        1.90215        0.580645        0.352605 
        1.90829        0.576315        0.349823 
        1.91442        0.573375        0.347071 
        1.92056        0.569964        0.344351 
         1.9267        0.565349        0.341657 
        1.93284        0.563495        0.338991 
        1.93897        0.558324        0.336358 
        1.94509        0.555396        0.333759 
        1.95123        0.551163        0.331181 
        1.95737        0.548221        0.328628 
        1.96349        0.543776        0.326109 
        1.96964        0.541486        0.323609 
        1.97578         0.53748        0.321133 
        1.98192        0.535003        0.318689 
        1.98805        0.530533         0.31627 
        1.99419        0.528438        0.313876 
        2.00033        0.526234        0.311506 
        2.00647        0.521093        0.309161 
         2.0126        0.518314        0.306844 
        2.01874        0.515336        0.304547 
        2.02488        0.512914        0.302272 
        2.03101        0.507821        0.300024 
        2.03714        0.504359        0.297801 
        2.04328        0.503496        0.295598 
        2.04941        0.499615        0.293419 
        2.05554        0.496355        0.291264 
        2.06167        0.493155        0.289127 
        2.06781        0.489908        0.287012 
        2.07396          0.4865        0.284915 
        2.08009        0.484192        0.282842 
        2.08622        0.481153        0.280792 
        2.09237        0.479346        0.278759 
        2.09851        0.476387        0.276746 
        2.10464        0.473845        0.274755 
        2.11077          0.4708        0.272787 
        2.11691        0.467398        0.270833 
        2.12305        0.464976        0.268899 
        2.12918        0.462579        0.266988 
        2.13531        0.459244        0.265096 
        2.14145        0.457265        0.263217 
         2.1476        0.453745        0.261355 
        2.15372        0.452282         0.25952 
        2.15985        0.448565        0.257701 
        2.16599         0.44561        0.255894 
        2.17213         0.44366        0.254106 
        2.17827         0.44213        0.252336 
         2.1844        0.439606        0.250584 
        2.19054        0.437114        0.248849 
        2.19666        0.434011        0.247132 
         2.2028        0.431564         0.24543 
        2.20893        0.429696        0.243743 
        2.21508        0.427411         0.24207 
        2.22122        0.423035        0.240412 
        2.22736        0.421681        0.238773 
        2.23349        0.420806        0.237149 
        2.23962        0.417663         0.23554 
        2.24577        0.414544        0.233945 
         2.2519        0.412613        0.232366 
        2.25802        0.410213        0.230805 
        2.26417        0.407813        0.229254 
        2.27031         0.40573        0.227715 
        2.27644         0.40381        0.226195 
        2.28257        0.401926        0.224689 
        2.28872          0.3994        0.223194 
        2.29486        0.397041        0.221713 
        2.30099        0.394676        0.220248 
        2.30712        0.392778        0.218796 
        2.31326        0.391003        0.217354 
         2.3194        0.389903        0.215927 
        2.32553        0.387498        0.214514 
        2.33166        0.385194        0.213115 
         2.3378        0.383071        0.211726 
        2.34394        0.380085        0.210349 
        2.35007        0.378702        0.208987 
        2.35619        0.377083        0.207638 
        2.36233        0.374044        0.206298 
        2.36848        0.372807        0.204967 
        2.37462        0.370343         0.20365 
        2.38075        0.369486        0.202347 
        2.38689         0.36714        0.201053 
        2.39303        0.365486        0.199771 
        2.39916        0.362723        0.198502 
        2.40529        0.361645        0.197244 
        2.41143        0.359848        0.195996 
        2.41757        0.357964        0.194758 
         2.4237        0.356249        0.193533 
        2.42983        0.354543        0.192318 
        2.43598         0.35275        0.191111 
        2.44211        0.351375        0.189916 
        2.44823        0.349274        0.188734 
        2.45437        0.347256        0.187559 
        2.46052        0.346193        0.186393 
        2.46665        0.343932        0.185239 
        2.47279        0.342166        0.184095 
        2.47892        0.340102         0.18296 
        2.48507        0.338764        0.181834 
         2.4912        0.337284        0.180719 
