# k  (h/Mpc)    Pcb(k)  (Mpc/h)^3    Pcb_linear(k)  (Mpc/h)^3
     0.00783031         696.826         703.126 
       0.013688         880.858          882.38 
       0.019231         914.192         914.394 
      0.0249154         866.809         871.044 
      0.0312784         782.455         783.283 
      0.0375637         693.054          691.85 
      0.0433917         618.196         619.203 
      0.0492413         562.527         562.166 
      0.0555754         513.423         515.399 
      0.0619321          479.25         477.571 
       0.067871         443.371         444.649 
      0.0738098         409.269          410.69 
      0.0800417         371.198          373.34 
      0.0862327         335.467         336.306 
      0.0921407         303.444         303.603 
      0.0982031         274.161          274.86 
       0.104506         252.165         251.106 
       0.110769         233.964         233.182 
       0.116806         219.385         219.776 
       0.122832         208.784         208.362 
       0.129052         196.441         196.975 
       0.135211         184.527         185.097 
       0.141259          172.95         172.716 
       0.147318         161.008         160.123 
       0.153489         148.381         147.937 
       0.159709         137.729         137.075 
       0.165845         129.782         128.148 
       0.171974         121.669         120.965 
       0.178125          115.98         115.113 
       0.184229         111.229         110.098 
        0.19034          105.54         105.339 
       0.196428         101.353         100.495 
       0.202534          96.964         95.4102 
       0.208729          91.307         90.1215 
       0.214876         85.7883         84.9805 
       0.220989         81.8744         80.2255 
       0.227147         76.8864         75.9736 
        0.23329         73.3125         72.3224 
       0.239377         70.4462         69.2226 
       0.245482         67.2568         66.4877 
       0.251667         65.2769          63.927 
       0.257832         62.6861         61.4415 
       0.263955         60.2461         58.9598 
       0.270079          57.802         56.4538 
        0.27624         55.7355         53.9584 
       0.282372         53.3272         51.5706 
        0.28843          50.908         49.3708 
       0.294538         48.8936         47.3507 
       0.300721         47.3868         45.5103 
        0.30691          45.389         43.8448 
       0.313033         43.9174         42.3224 
       0.319153         42.0039         40.8776 
       0.325316         41.1903         39.4618 
        0.33145         39.6752          38.075 
       0.337538         38.3918         36.7207 
       0.343633         36.9677         35.4017 
       0.349808         35.8097          34.123 
       0.355968         34.6281         32.9199 
       0.362074         33.4707          31.808 
       0.368217         32.4645         30.7659 
       0.374374         31.3593         29.7891 
       0.380519         30.5547         28.8664 
       0.386598         29.7185         27.9907 
       0.392688          28.973         27.1417 
        0.39888          28.069         26.3013 
       0.405048         27.3236         25.4881 
       0.411186         26.5962         24.7063 
       0.417313         25.6888          23.957 
       0.423458         25.0279         23.2408 
       0.429607         24.2834         22.5604 
       0.435692         23.5884         21.9206 
       0.441815         23.0514         21.3072 
       0.447964         22.6063         20.7176 
       0.454126          21.816         20.1484 
       0.460267         21.3233         19.5998 
       0.466387         20.6805         19.0707 
        0.47254         20.2865         18.5553 
       0.478662         19.8531         18.0597 
       0.484765         19.2794         17.5838 
       0.490885         18.8045         17.1252 
       0.497035         18.5291         16.6825 
       0.503198         18.0258         16.2566 
       0.509342         17.5936         15.8482 
       0.515458         17.1673         15.4565 
       0.521598         16.8263         15.0765 
       0.527764         16.4129         14.7069 
       0.533884         16.1198         14.3517 
           0.54         15.7545         14.0079 
       0.546137          15.447          13.674 
       0.552299         15.1432         13.3497 
       0.558452          14.691         13.0367 
       0.564573         14.4788         12.7357 
       0.570708         14.1882         12.4443 
       0.576825         13.8227         12.1633 
       0.582926          13.588         11.8919 
       0.589034         13.2037         11.6284 
       0.595184          12.997         11.3711 
       0.601379         12.7204         11.1197 
       0.607522         12.5298         10.8778 
       0.613639         12.3574         10.6442 
       0.619772         12.0243         10.4168 
       0.625918         11.8925         10.1958 
       0.632068         11.6953         9.98113 
       0.638161          11.416         9.77471 
         0.6443         11.1813         9.57279 
       0.650464         10.9528         9.37597 
       0.656582         10.8446         9.18617 
       0.662703         10.6434         9.00159 
       0.668861         10.4582         8.82103 
       0.675024         10.2418         8.64525 
       0.681124         10.0569         8.47603 
       0.687237         9.90914         8.31101 
       0.693381         9.76239         8.14966 
       0.699536           9.498         7.99236 
       0.705665         9.38337         7.83996 
       0.711789          9.2327         7.69173 
       0.717957         9.07251         7.54637 
        0.72409         8.91993         7.40562 
       0.730186         8.79004         7.26932 
       0.736317          8.6979         7.13574 
       0.742472         8.55516         7.00502 
       0.748622         8.40311         6.87771 
        0.75476         8.22497         6.75386 
       0.760888         8.12576         6.63325 
       0.767043         8.02792         6.51514 
       0.773185         7.86174         6.40017 
       0.779291         7.78511         6.28865 
       0.785407         7.65713         6.17964 
       0.791564         7.53765         6.07256 
       0.797719         7.42158         5.96809 
       0.803834         7.34596         5.86675 
       0.809972         7.25715         5.76742 
       0.816124         7.11034         5.67019 
       0.822261         6.99745         5.57547 
       0.828378         6.91362         5.48322 
       0.834502         6.84718         5.39298 
       0.840667          6.7124          5.3042 
       0.846816         6.60722         5.21768 
       0.852925         6.54845         5.13365 
       0.859047         6.45878          5.0513 
       0.865192          6.3895          4.9705 
       0.871341         6.31155         4.89142 
       0.877463         6.22183         4.81443 
       0.883569         6.11364          4.7393 
       0.889708         6.01737          4.6654 
       0.895864         5.96248          4.5929 
       0.902008         5.87922          4.5221 
       0.908149          5.8145         4.45283 
       0.914301         5.71575         4.38492 
       0.920448          5.6419         4.31849 
       0.926574          5.5663         4.25368 
       0.932687         5.51488         4.19035 
       0.938823         5.44718         4.12808 
       0.944975         5.37269         4.06694 
       0.951105         5.31811         4.00727 
       0.957225         5.28562          3.9489 
       0.963368         5.20674          3.8915 
       0.969511         5.13807         3.83525 
       0.975621         5.06404         3.78042 
       0.981748         5.01632         3.72652 
       0.987916         4.95935         3.67334 
        0.99406         4.87791          3.6214 
        1.00019         4.82251         3.57057 
        1.00632         4.78365         3.52077 
        1.01246         4.72977         3.47185 
        1.01859         4.67179         3.42394 
        1.02471         4.61652         3.37699 
        1.03085         4.56809         3.33077 
        1.03698           4.507         3.28552 
        1.04314         4.46814         3.24092 
        1.04929         4.40914         3.19725 
        1.05541         4.36144         3.15456 
        1.06154         4.31916         3.11255 
        1.06769         4.28647         3.07125 
        1.07382         4.22327         3.03083 
        1.07993         4.16937         2.99123 
        1.08607         4.14681         2.95218 
        1.09222         4.09673         2.91379 
        1.09836         4.06329         2.87613 
        1.10449         4.01566         2.83918 
        1.11063         3.97027         2.80285 
        1.11677          3.9322         2.76716 
         1.1229         3.89099         2.73216 
        1.12903         3.84622         2.69774 
        1.13518           3.814         2.66388 
        1.14131         3.76079         2.63062 
        1.14745         3.70936         2.59796 
        1.15359          3.6929         2.56584 
        1.15973         3.64354         2.53426 
        1.16584         3.62064         2.50335 
        1.17197         3.58252         2.47291 
        1.17811            3.55         2.44289 
        1.18424         3.52567         2.41345 
        1.19038         3.48778         2.38442 
        1.19652         3.45293         2.35588 
        1.20267         3.42072          2.3278 
        1.20881         3.38356         2.30019 
        1.21495         3.35796         2.27307 
        1.22108         3.32504          2.2464 
         1.2272          3.3056         2.22022 
        1.23334         3.26141         2.19439 
        1.23949         3.22815         2.16892 
        1.24562         3.21132         2.14392 
        1.25174         3.17069         2.11935 
        1.25789         3.14748          2.0951 
        1.26402         3.11131         2.07127 
        1.27014         3.08245         2.04786 
        1.27628          3.0693         2.02476 
        1.28244         3.02778         2.00196 
        1.28858            3.01         1.97955 
        1.29471         2.97858         1.95752 
        1.30084         2.94966         1.93586 
        1.30697         2.93794         1.91449 
        1.31312         2.88809         1.89341 
        1.31925         2.87774         1.87272 
        1.32537         2.85241         1.85235 
        1.33151          2.8329         1.83222 
        1.33765         2.79743          1.8124 
        1.34378         2.77369         1.79291 
        1.34992         2.76493          1.7737 
        1.35606         2.72567         1.75472 
         1.3622          2.7139         1.73606 
        1.36833         2.68922         1.71771 
        1.37445         2.66413         1.69964 
        1.38059         2.64687         1.68178 
        1.38675         2.63429         1.66413 
        1.39288         2.60134          1.6468 
        1.39901         2.57844         1.62973 
        1.40515         2.56051         1.61286 
         1.4113         2.54097         1.59624 
        1.41742         2.52211         1.57991 
        1.42355         2.50934         1.56379 
         1.4297         2.47789         1.54784 
        1.43585         2.46663         1.53212 
        1.44198         2.45179         1.51668 
        1.44809         2.42006         1.50148 
        1.45423         2.40362         1.48643 
        1.46036         2.38566         1.47162 
        1.46649         2.36531         1.45701 
        1.47263         2.34648         1.44258 
        1.47877         2.32452         1.42835 
        1.48491         2.30879         1.41429 
        1.49104         2.29635         1.40046 
        1.49718          2.2808         1.38679 
        1.50333         2.26106         1.37329 
        1.50947         2.24752         1.35999 
         1.5156         2.22916         1.34689 
        1.52172         2.21282         1.33397 
        1.52787         2.19505         1.32118 
          1.534         2.18252         1.30858 
        1.54013         2.16272         1.29616 
        1.54627         2.14342         1.28387 
        1.55241         2.12808         1.27175 
        1.55855         2.11729         1.25979 
        1.56467         2.10298         1.24803 
         1.5708         2.08026         1.23638 
        1.57695         2.07212         1.22486 
        1.58308         2.05653         1.21352 
        1.58922         2.04394         1.20231 
        1.59535         2.02894         1.19125 
         1.6015         2.01529         1.18031 
        1.60764         2.00341         1.16951 
        1.61376         1.98825         1.15888 
        1.61989         1.97328         1.14837 
        1.62604         1.95822         1.13797 
        1.63218         1.95209         1.12771 
        1.63831         1.93033         1.11759 
        1.64444          1.9177          1.1076 
        1.65059         1.90921          1.0977 
        1.65673         1.89475         1.08794 
        1.66285         1.87957         1.07832 
        1.66898         1.87157         1.06881 
        1.67512         1.85386          1.0594 
        1.68127         1.84298          1.0501 
         1.6874           1.835         1.04093 
        1.69353         1.81523         1.03187 
        1.69967         1.80498          1.0229 
        1.70581         1.80018         1.01404 
        1.71193         1.78408         1.00532 
        1.71806         1.77663        0.996685 
        1.72421           1.763        0.988132 
        1.73035         1.75039         0.97969 
        1.73649         1.74004        0.971347 
        1.74262         1.72931        0.963109 
        1.74876         1.72016         0.95496 
        1.75489          1.7043        0.946922 
        1.76101         1.69469        0.938979 
        1.76715         1.68532        0.931117 
        1.77329         1.67529        0.923334 
        1.77943         1.66233        0.915638 
        1.78557         1.65255         0.90804 
        1.79171         1.64668        0.900527 
        1.79785         1.63302        0.893098 
        1.80399          1.6248        0.885754 
        1.81012         1.61772        0.878503 
        1.81625         1.60339        0.871336 
        1.82239         1.59413        0.864238 
        1.82853         1.57915        0.857222 
        1.83466         1.57525        0.850292 
        1.84078         1.56439        0.843445 
        1.84692         1.55768        0.836663 
        1.85306         1.54583        0.829946 
         1.8592         1.53881        0.823315 
        1.86533         1.52791        0.816759 
        1.87147         1.52119        0.810267 
        1.87761         1.51179        0.803843 
        1.88375         1.49806        0.797496 
        1.88988         1.49455        0.791224 
        1.89601         1.48338        0.785016 
        1.90215         1.47358         0.77887 
        1.90829         1.46472        0.772793 
        1.91442         1.45688         0.76678 
        1.92056         1.44963        0.760836 
         1.9267          1.4416        0.754949 
        1.93284         1.43568        0.749121 
        1.93897         1.42613        0.743366 
        1.94509         1.41636        0.737684 
        1.95123         1.40717        0.732046 
        1.95737         1.40049        0.726463 
        1.96349          1.3919        0.720953 
        1.96964         1.38585        0.715484 
        1.97578         1.37772         0.71007 
        1.98192         1.37209        0.704722 
        1.98805         1.36074        0.699428 
        1.99419          1.3563        0.694189 
        2.00033         1.35226        0.689001 
        2.00647         1.33957        0.683867 
         2.0126         1.33514        0.678794 
        2.01874         1.32614        0.673765 
        2.02488         1.32017        0.668782 
        2.03101          1.3101        0.663859 
        2.03714         1.30129        0.658989 
        2.04328         1.29909        0.654163 
        2.04941         1.28947         0.64939 
        2.05554         1.28439        0.644667 
        2.06167         1.27567        0.639985 
        2.06781         1.27019        0.635349 
        2.07396         1.26185        0.630752 
        2.08009         1.25653        0.626208 
        2.08622         1.24775        0.621714 
        2.09237         1.24637        0.617256 
        2.09851         1.23881         0.61284 
        2.10464          1.2332        0.608475 
        2.11077         1.22446        0.604158 
        2.11691         1.21693        0.599873 
        2.12305         1.21299        0.595629 
        2.12918         1.20576        0.591437 
        2.13531         1.20064        0.587284 
        2.14145         1.19261        0.583162 
         2.1476         1.18648        0.579075 
        2.15372         1.18153        0.575047 
        2.15985         1.17443        0.571053 
        2.16599         1.16823        0.567086 
        2.17213         1.16286        0.563161 
        2.17827         1.15928        0.559273 
         2.1844         1.15332        0.555426 
        2.19054         1.14908        0.551614 
        2.19666         1.14122        0.547843 
         2.2028         1.13598        0.544103 
        2.20893         1.12859        0.540397 
        2.21508         1.12637        0.536721 
        2.22122         1.11675        0.533078 
        2.22736         1.11117        0.529477 
        2.23349         1.11101        0.525909 
        2.23962         1.10195        0.522373 
        2.24577         1.09618        0.518866 
         2.2519         1.09081        0.515396 
        2.25802         1.08788        0.511963 
        2.26417         1.07932        0.508552 
        2.27031         1.07648        0.505168 
        2.27644          1.0712        0.501826 
        2.28257         1.06666        0.498514 
        2.28872         1.06039        0.495225 
        2.29486         1.05685        0.491967 
        2.30099         1.05006        0.488744 
        2.30712         1.04624        0.485549 
        2.31326         1.04257        0.482377 
         2.3194         1.03771        0.479236 
        2.32553         1.03316        0.476127 
        2.33166         1.02679        0.473047 
         2.3378         1.02142        0.469991 
        2.34394         1.01562         0.46696 
        2.35007         1.01174         0.46396 
        2.35619         1.00923         0.46099 
        2.36233         1.00198         0.45804 
        2.36848        0.998975        0.455108 
        2.37462        0.993742        0.452209 
        2.38075        0.990917        0.449338 
        2.38689        0.985367        0.446489 
        2.39303        0.982115        0.443665 
        2.39916        0.975036        0.440869 
        2.40529         0.97379        0.438097 
        2.41143        0.968395        0.435347 
        2.41757        0.963575        0.432619 
         2.4237        0.960392        0.429919 
        2.42983        0.955515        0.427243 
        2.43598         0.95179        0.424582 
        2.44211         0.94762        0.421949 
        2.44823        0.943072        0.419344 
        2.45437        0.939557        0.416753 
        2.46052        0.937081        0.414182 
        2.46665        0.932001        0.411638 
        2.47279        0.927636        0.409115 
        2.47892        0.922353        0.406612 
        2.48507        0.919351        0.404128 
         2.4912         0.91499        0.401669 
