# k  (h/Mpc)    P(k)  (Mpc/h)^3    P_linear(k)  (Mpc/h)^3
     0.00783031         8951.55         9009.02 
       0.013688         11830.9         12120.2 
       0.019231         12967.3           13161 
      0.0249154         12943.7         12983.6 
      0.0312784         11822.4         11989.4 
      0.0375637         10519.4         10751.5 
      0.0433917         9574.78         9690.84 
      0.0492413          8646.4         8837.33 
      0.0555754         8026.74         8157.91 
      0.0619321         7312.28            7656 
       0.067871         7016.44          7255.4 
      0.0738098         6649.27         6844.12 
      0.0800417         6180.56          6358.2 
      0.0862327         5632.76         5823.22 
      0.0921407         5139.92          5299.4 
      0.0982031         4710.76         4795.64 
       0.104506         4229.47         4349.55 
       0.110769         3913.77         4004.37 
       0.116806         3745.79         3759.55 
       0.122832         3523.49         3579.63 
       0.129052         3372.15         3430.12 
       0.135211         3282.26         3287.49 
       0.141259         3080.06         3131.84 
       0.147318         2869.41         2953.34 
       0.153489         2718.49         2754.48 
       0.159709         2597.92         2551.93 
       0.165845         2369.78         2366.83 
       0.171974         2303.06         2208.97 
       0.178125         2218.53         2082.64 
       0.184229         2055.72         1986.58 
        0.19034         2026.47         1911.65 
       0.196428         1973.65         1847.63 
       0.202534         1863.86         1784.11 
       0.208729         1832.36         1713.45 
       0.214876         1763.88          1634.9 
       0.220989         1667.07         1550.69 
       0.227147         1627.83         1464.88 
        0.23329         1565.91          1384.1 
       0.239377         1546.92          1313.3 
       0.245482         1474.26         1253.53 
       0.251667         1420.91         1203.98 
       0.257832         1405.74         1163.04 
       0.263955         1342.27         1127.06 
       0.270079         1309.37         1092.17 
        0.27624         1256.97         1055.62 
       0.282372         1240.34         1016.68 
        0.28843         1227.04          976.24 
       0.294538          1169.3         934.958 
       0.300721         1142.52         894.691 
        0.30691         1121.68         857.591 
       0.313033          1078.9         825.067 
       0.319153         1065.93         796.745 
       0.325316         1052.05         771.769 
        0.33145         1033.36         749.248 
       0.337538         999.652         727.976 
       0.343633         975.413         706.709 
       0.349808          955.92         684.718 
       0.355968         939.647         662.228 
       0.362074         912.814          639.87 
       0.368217         909.514         617.884 
       0.374374         895.858          596.99 
       0.380519         864.858         577.723 
       0.386598         858.716         560.304 
       0.392688         842.229         544.418 
        0.39888         821.441         529.461 
       0.405048         809.471         515.337 
       0.411186         806.523         501.679 
       0.417313          802.59         488.131 
       0.423458         777.776         474.569 
       0.429607         757.928         461.103 
       0.435692         750.386         448.018 
       0.441815         738.418         435.311 
       0.447964         727.905         423.204 
       0.454126         719.068         411.778 
       0.460267         709.322         401.098 
       0.466387          700.31          391.09 
        0.47254         688.471         381.503 
       0.478662         677.655         372.284 
       0.484765         672.466          363.32 
       0.490885         665.367         354.499 
       0.497035         654.316         345.762 
       0.503198         653.808         337.185 
       0.509342         640.434          328.88 
       0.515458          629.68         320.916 
       0.521598         623.654         313.244 
       0.527764         612.501         305.876 
       0.533884         610.097         298.898 
           0.54         603.213         292.216 
       0.546137          593.52         285.743 
       0.552299         592.337         279.423 
       0.558452         585.037         273.268 
       0.564573         578.315         267.292 
       0.570708         574.378         261.445 
       0.576825         563.663          255.76 
       0.582926         560.768         250.246 
       0.589034         553.835         244.898 
       0.595184         549.556         239.701 
       0.601379         541.297         234.658 
       0.607522           533.8         229.827 
       0.613639         532.074         225.166 
       0.619772         529.618         220.625 
       0.625918         521.461         216.194 
       0.632068         516.834         211.875 
       0.638161         511.928         207.705 
         0.6443         507.923         203.611 
       0.650464         502.752         199.606 
       0.656582         498.595         195.735 
       0.662703         494.428         191.967 
       0.668861          488.97         188.284 
       0.675024          485.09         184.704 
       0.681124         480.347         181.265 
       0.687237          477.46         177.914 
       0.693381         472.335         174.636 
       0.699536         468.482         171.434 
       0.705665         464.437         168.324 
       0.711789         463.563         165.289 
       0.717957         456.569         162.304 
        0.72409         453.146         159.409 
       0.730186         454.991         156.603 
       0.736317         447.173         153.851 
       0.742472         442.331          151.16 
       0.748622         438.878         148.539 
        0.75476         437.319          145.99 
       0.760888         433.857         143.506 
       0.767043         430.939         141.071 
       0.773185         428.945         138.698 
       0.779291         422.504         136.394 
       0.785407         421.361         134.137 
       0.791564         417.235         131.917 
       0.797719          411.76         129.749 
       0.803834          414.86         127.644 
       0.809972         409.025         125.578 
       0.816124         405.126         123.555 
       0.822261         401.374         121.583 
       0.828378         401.025         119.661 
       0.834502         395.092          117.78 
       0.840667         395.096         115.929 
       0.846816         389.462         114.123 
       0.852925         389.301         112.368 
       0.859047         385.563         110.647 
       0.865192         385.088         108.957 
       0.871341         379.846         107.301 
       0.877463         376.458         105.688 
       0.883569          374.87         104.112 
       0.889708         372.126         102.561 
       0.895864         369.772         101.038 
       0.902008         367.801         99.5488 
       0.908149          365.14         98.0913 
       0.914301         363.271         96.6611 
       0.920448         360.829         95.2612 
       0.926574         358.922         93.8944 
       0.932687         356.255         92.5577 
       0.938823         353.162         91.2427 
       0.944975         351.667         89.9506 
       0.951105          349.09         88.6886 
       0.957225         345.408         87.4533 
       0.963368         345.482         86.2377 
       0.969511         339.729         85.0455 
       0.975621         340.134         83.8826 
       0.981748         337.708         82.7387 
       0.987916         335.912         81.6093 
        0.99406         333.236         80.5055 
        1.00019         330.593         79.4245 
        1.00632          330.57         78.3647 
        1.01246         328.248         77.3229 
        1.01859         324.272          76.302 
        1.02471         322.139         75.3011 
        1.03085         322.077         74.3149 
        1.03698         319.313         73.3487 
        1.04314         319.043         72.3958 
        1.04929         316.354         71.4622 
        1.05541         313.384         70.5491 
        1.06154         311.981           69.65 
        1.06769         308.901         68.7653 
        1.07382         309.166         67.8992 
        1.07993         305.876         67.0501 
        1.08607         303.536         66.2122 
        1.09222          302.69          65.388 
        1.09836          301.19          64.579 
        1.10449         298.765         63.7848 
        1.11063         296.393         63.0033 
        1.11677          295.26         62.2353 
         1.1229         293.344         61.4816 
        1.12903           292.5         60.7399 
        1.13518         290.252           60.01 
        1.14131         289.573         59.2927 
        1.14745         285.752         58.5876 
        1.15359         283.873          57.894 
        1.15973         283.241         57.2115 
        1.16584         282.384         56.5432 
        1.17197         280.142         55.8848 
        1.17811         277.854          55.235 
        1.18424         276.375         54.5975 
        1.19038          274.97         53.9684 
        1.19652         272.338         53.3495 
        1.20267         272.112         52.7405 
        1.20881         269.926         52.1412 
        1.21495         269.386         51.5523 
        1.22108         267.417         50.9727 
         1.2272         264.974         50.4034 
        1.23334         264.093         49.8417 
        1.23949         263.365         49.2873 
        1.24562         261.463         48.7429 
        1.25174         259.756         48.2077 
        1.25789         257.774          47.679 
        1.26402         257.603         47.1593 
        1.27014         256.105         46.6487 
        1.27628         253.266         46.1442 
        1.28244         252.742         45.6462 
        1.28858         251.201         45.1564 
        1.29471         250.006         44.6749 
        1.30084         248.578          44.201 
        1.30697         246.617         43.7333 
        1.31312         245.439         43.2718 
        1.31925         243.929         42.8184 
        1.32537         243.352         42.3721 
        1.33151         241.468         41.9306 
        1.33765         239.783         41.4957 
        1.34378          238.74          41.068 
        1.34992         237.461          40.646 
        1.35606         236.374         40.2291 
         1.3622         235.107         39.8189 
        1.36833         232.894         39.4155 
        1.37445         232.621         39.0179 
        1.38059         230.903         38.6246 
        1.38675         229.564         38.2359 
        1.39288         228.433         37.8542 
        1.39901         227.164         37.4778 
        1.40515         226.049         37.1059 
         1.4113         224.575         36.7391 
        1.41742          222.82         36.3788 
        1.42355         223.342         36.0227 
         1.4297         221.055         35.6703 
        1.43585         219.815         35.3229 
        1.44198         217.872         34.9814 
        1.44809         216.936         34.6452 
        1.45423         216.548         34.3122 
        1.46036          214.98         33.9842 
        1.46649         213.807         33.6604 
        1.47263         212.941         33.3407 
        1.47877         211.748         33.0252 
        1.48491         209.768         32.7134 
        1.49104         208.022         32.4063 
        1.49718         207.688          32.103 
        1.50333         206.528         31.8031 
        1.50947         205.601         31.5077 
         1.5156         204.491         31.2165 
        1.52172         203.291          30.929 
        1.52787         202.419         30.6446 
          1.534         201.247         30.3641 
        1.54013         200.285         30.0875 
        1.54627         199.278         29.8139 
        1.55241         198.071         29.5437 
        1.55855          197.19         29.2772 
        1.56467         195.527         29.0148 
         1.5708         194.481         28.7549 
        1.57695         193.838         28.4978 
        1.58308         192.647         28.2445 
        1.58922         191.777         27.9942 
        1.59535         190.467         27.7469 
         1.6015         189.027         27.5024 
        1.60764         188.432          27.261 
        1.61376         187.197         27.0231 
        1.61989         186.316         26.7879 
        1.62604         185.072          26.555 
        1.63218         184.483         26.3251 
        1.63831         183.276         26.0985 
        1.64444         182.202         25.8744 
        1.65059         181.342         25.6525 
        1.65673         180.278         25.4334 
        1.66285         179.769         25.2176 
        1.66898         178.299         25.0042 
        1.67512         177.617         24.7929 
        1.68127         176.369         24.5838 
         1.6874          175.61         24.3777 
        1.69353         174.778         24.1741 
        1.69967         173.658         23.9723 
        1.70581         173.117          23.773 
        1.71193          171.63         23.5766 
        1.71806         170.883         23.3821 
        1.72421         170.216         23.1895 
        1.73035         169.203         22.9992 
        1.73649         167.934         22.8112 
        1.74262         167.359         22.6254 
        1.74876          166.43         22.4415 
        1.75489         165.531         22.2601 
        1.76101         164.646         22.0808 
        1.76715         163.568         21.9033 
        1.77329         163.111         21.7275 
        1.77943         161.629         21.5535 
        1.78557         161.253         21.3818 
        1.79171         160.333         21.2119 
        1.79785          159.23         21.0438 
        1.80399         158.554         20.8776 
        1.81012         157.271         20.7134 
        1.81625         157.062         20.5511 
        1.82239         155.979         20.3903 
        1.82853         155.588         20.2313 
        1.83466         154.302         20.0742 
        1.84078         153.545          19.919 
        1.84692         153.261         19.7651 
        1.85306         151.952         19.6127 
         1.8592         151.246         19.4621 
        1.86533         150.184         19.3133 
        1.87147         149.682         19.1658 
        1.87761          148.63         19.0198 
        1.88375         147.825         18.8755 
        1.88988         146.838         18.7329 
        1.89601         146.608         18.5917 
        1.90215         145.865         18.4519 
        1.90829         144.751         18.3136 
        1.91442         143.776         18.1767 
        1.92056         143.279         18.0413 
         1.9267         142.391         17.9072 
        1.93284           141.8         17.7744 
        1.93897         141.005         17.6432 
        1.94509         140.204         17.5136 
        1.95123         139.535          17.385 
        1.95737         138.973         17.2576 
        1.96349         138.203         17.1318 
        1.96964         137.323         17.0069 
        1.97578          136.86         16.8832 
        1.98192         136.049          16.761 
        1.98805         135.345         16.6401 
        1.99419          134.61         16.5203 
        2.00033         133.835         16.4016 
        2.00647         133.147         16.2842 
         2.0126         132.539         16.1681 
        2.01874         132.107         16.0529 
        2.02488         130.971         15.9388 
        2.03101         130.613         15.8261 
        2.03714         129.704         15.7145 
        2.04328         129.068         15.6039 
        2.04941         128.431         15.4945 
        2.05554         128.109         15.3862 
        2.06167         126.889         15.2788 
        2.06781         126.227         15.1724 
        2.07396         125.926         15.0669 
        2.08009         125.116         14.9625 
        2.08622         124.413         14.8593 
        2.09237         123.864         14.7569 
        2.09851         123.299         14.6554 
        2.10464         122.629         14.5551 
        2.11077         121.846         14.4558 
        2.11691         121.453         14.3573 
        2.12305         120.653         14.2596 
        2.12918         120.169         14.1631 
        2.13531         119.682         14.0675 
        2.14145         118.677         13.9726 
         2.1476         118.172         13.8785 
        2.15372         117.628         13.7857 
        2.15985         117.024         13.6936 
        2.16599         116.307         13.6022 
        2.17213         115.929         13.5116 
        2.17827         115.141          13.422 
         2.1844          114.66         13.3332 
        2.19054         114.151         13.2452 
        2.19666         113.303         13.1582 
         2.2028         112.949         13.0718 
        2.20893         112.285         12.9862 
        2.21508         111.647         12.9013 
        2.22122           111.2         12.8171 
        2.22736         110.735         12.7338 
        2.23349         110.089         12.6513 
        2.23962         109.621         12.5695 
        2.24577         108.992         12.4884 
         2.2519         108.313          12.408 
        2.25802         107.762         12.3286 
        2.26417         107.281         12.2496 
        2.27031          106.64         12.1712 
        2.27644         106.279         12.0938 
        2.28257         105.712          12.017 
        2.28872          105.17         11.9408 
        2.29486         104.846         11.8652 
        2.30099         103.953         11.7905 
        2.30712         103.738         11.7164 
        2.31326          103.23         11.6428 
         2.3194         102.399         11.5698 
        2.32553         102.004         11.4977 
        2.33166         101.422         11.4261 
         2.3378         101.208         11.3551 
        2.34394         100.624         11.2847 
        2.35007         99.8834          11.215 
        2.35619         99.3576         11.1459 
        2.36233          99.036         11.0773 
        2.36848         98.4042         11.0091 
        2.37462         97.9096         10.9417 
        2.38075         97.5586         10.8748 
        2.38689         97.1589         10.8085 
        2.39303         96.6805         10.7428 
        2.39916         96.2477         10.6777 
        2.40529         95.5457         10.6131 
        2.41143         95.2131          10.549 
        2.41757         94.7157         10.4854 
         2.4237         94.2136         10.4225 
        2.42983         93.7232         10.3601 
        2.43598         93.4706          10.298 
        2.44211         92.6631         10.2366 
        2.44823         92.3878         10.1758 
        2.45437         92.0716         10.1153 
        2.46052         91.4796         10.0553 
        2.46665         90.9465         9.99582 
        2.47279         90.5172         9.93689 
        2.47892         89.9572         9.87841 
        2.48507         89.6037         9.82034 
         2.4912         89.2117         9.76285 
