# k  (h/Mpc)    Pcb(k)  (Mpc/h)^3    Pcb_linear(k)  (Mpc/h)^3
     0.00783031         4132.82         4152.13 
       0.013688          5508.2         5598.93 
       0.019231         6031.64          6084.9 
      0.0249154         6001.74         6005.77 
      0.0312784         5509.49         5547.63 
      0.0375637         4918.48         4975.84 
      0.0433917         4467.97         4485.55 
      0.0492413         4047.29         4090.88 
      0.0555754         3757.96         3776.67 
      0.0619321         3453.57         3544.52 
       0.067871         3306.64          3359.2 
      0.0738098         3126.89         3168.89 
      0.0800417         2911.09            2944 
      0.0862327         2654.65         2696.35 
      0.0921407          2417.5         2453.86 
      0.0982031         2205.96         2220.63 
       0.104506         1982.19          2014.1 
       0.110769         1830.39         1854.29 
       0.116806          1744.4         1740.94 
       0.122832         1641.76         1657.64 
       0.129052         1577.73         1588.42 
       0.135211         1526.63         1522.38 
       0.141259         1439.45         1450.31 
       0.147318         1341.89         1367.66 
       0.153489         1265.21         1275.57 
       0.159709         1193.56         1181.78 
       0.165845         1089.17         1096.07 
       0.171974         1049.69         1022.97 
       0.178125         999.696         964.469 
       0.184229         935.445         919.984 
        0.19034         915.102         885.288 
       0.196428          887.36         855.642 
       0.202534         838.854         826.231 
       0.208729         822.055         793.507 
       0.214876         792.358         757.133 
       0.220989         739.932         718.137 
       0.227147         721.282         678.397 
        0.23329         691.381          640.99 
       0.239377         671.114           608.2 
       0.245482         637.095         580.523 
       0.251667         612.114         557.579 
       0.257832         605.754         538.619 
       0.263955         575.702         521.954 
       0.270079         558.885         505.799 
        0.27624         536.275          488.87 
       0.282372         523.803          470.84 
        0.28843         519.583         452.111 
       0.294538         494.494         432.993 
       0.300721         475.843         414.345 
        0.30691         468.045         397.165 
       0.313033         449.153         382.102 
       0.319153         441.408         368.985 
       0.325316         429.614         357.419 
        0.33145         419.853         346.989 
       0.337538          406.78         337.137 
       0.343633         395.046         327.289 
       0.349808         384.786         317.104 
       0.355968         376.559          306.69 
       0.362074         368.067         296.335 
       0.368217         362.299         286.154 
       0.374374         354.703         276.478 
       0.380519         340.531         267.554 
       0.386598         334.999         259.489 
       0.392688         327.868          252.13 
        0.39888         320.546         245.203 
       0.405048         315.191         238.662 
       0.411186         311.672         232.337 
       0.417313         305.403         226.063 
       0.423458         297.608         219.782 
       0.429607          292.15         213.546 
       0.435692         286.643         207.486 
       0.441815         280.915         201.602 
       0.447964          273.72         195.994 
       0.454126         269.332         190.703 
       0.460267          266.83         185.757 
       0.466387         261.883         181.122 
        0.47254         259.015         176.681 
       0.478662         251.268         172.413 
       0.484765         248.379         168.261 
       0.490885         244.628         164.176 
       0.497035         242.596          160.13 
       0.503198         238.453         156.158 
       0.509342         232.368         152.312 
       0.515458         230.445         148.623 
       0.521598         225.221          145.07 
       0.527764         222.801         141.658 
       0.533884          222.34         138.426 
           0.54         216.996         135.332 
       0.546137         212.276         132.334 
       0.552299         210.729         129.407 
       0.558452         207.169         126.557 
       0.564573         206.209         123.789 
       0.570708         201.337         121.081 
       0.576825         198.902         118.448 
       0.582926         196.881         115.894 
       0.589034         194.424         113.418 
       0.595184         192.843         111.011 
       0.601379         188.268         108.675 
       0.607522         185.874         106.438 
       0.613639         184.384          104.28 
       0.619772         182.226         102.176 
       0.625918         180.782         100.124 
       0.632068         177.227         98.1239 
       0.638161         174.894          96.193 
         0.6443         174.313         94.2969 
       0.650464         171.395         92.4421 
       0.656582         170.632         90.6493 
       0.662703         168.869         88.9044 
       0.668861         165.623         87.1984 
       0.675024         165.721         85.5407 
       0.681124         163.108         83.9479 
       0.687237         160.323         82.3959 
       0.693381         159.911         80.8778 
       0.699536         157.904         79.3952 
       0.705665         155.665         77.9546 
       0.711789         153.963          76.549 
       0.717957         152.491         75.1669 
        0.72409         151.773         73.8261 
       0.730186         150.709         72.5265 
       0.736317         148.108         71.2522 
       0.742472         146.679         70.0056 
       0.748622         144.639          68.792 
        0.75476         144.218         67.6112 
       0.760888         143.369         66.4608 
       0.767043         141.122         65.3333 
       0.773185         139.649         64.2345 
       0.779291         138.238          63.167 
       0.785407         136.618         62.1221 
       0.791564         136.494          61.094 
       0.797719         135.181         60.0898 
       0.803834         133.964         59.1147 
       0.809972         133.431         58.1581 
       0.816124         131.915         57.2211 
       0.822261         130.316         56.3078 
       0.828378         130.107         55.4178 
       0.834502         127.996         54.5468 
       0.840667         127.585         53.6894 
       0.846816         126.446         52.8532 
       0.852925         125.343         52.0405 
       0.859047         124.648         51.2434 
       0.865192         123.118         50.4606 
       0.871341         121.913         49.6938 
       0.877463         121.313         48.9466 
       0.883569          120.98         48.2168 
       0.889708         120.053         47.4984 
       0.895864         118.881         46.7929 
       0.902008         118.082         46.1034 
       0.908149         116.755         45.4284 
       0.914301         116.546         44.7661 
       0.920448         115.786         44.1177 
       0.926574         113.951         43.4847 
       0.932687         113.617         42.8657 
       0.938823         112.694         42.2567 
       0.944975         111.551         41.6583 
       0.951105         110.769         41.0738 
       0.957225         110.839         40.5017 
       0.963368         109.572         39.9387 
       0.969511         108.625         39.3866 
       0.975621          107.97          38.848 
       0.981748         107.025         38.3183 
       0.987916         106.297         37.7952 
        0.99406         105.874          37.284 
        1.00019         104.794         36.7834 
        1.00632         104.284         36.2926 
        1.01246         103.543         35.8101 
        1.01859         103.142         35.3373 
        1.02471         102.021         34.8737 
        1.03085         101.435          34.417 
        1.03698         100.859         33.9695 
        1.04314         100.276         33.5282 
        1.04929         99.7009         33.0959 
        1.05541         99.0384          32.673 
        1.06154         98.5404         32.2566 
        1.06769         97.4607         31.8469 
        1.07382         97.0022         31.4457 
        1.07993         96.5731         31.0525 
        1.08607         95.7464         30.6645 
        1.09222         95.5097         30.2828 
        1.09836         94.6641         29.9081 
        1.10449         94.1394         29.5403 
        1.11063         93.4057         29.1783 
        1.11677         93.2323         28.8227 
         1.1229         92.3075         28.4736 
        1.12903         92.2031         28.1301 
        1.13518          91.854         27.7921 
        1.14131         91.0204         27.4599 
        1.14745         90.0986         27.1333 
        1.15359         89.4827         26.8121 
        1.15973         89.2978          26.496 
        1.16584          88.742         26.1865 
        1.17197         87.8822         25.8816 
        1.17811         87.5937         25.5807 
        1.18424         86.7509         25.2854 
        1.19038         86.6934         24.9941 
        1.19652          86.312         24.7075 
        1.20267         85.6621         24.4254 
        1.20881         85.0805         24.1479 
        1.21495         84.8041         23.8751 
        1.22108         84.2953         23.6067 
         1.2272         83.7524         23.3431 
        1.23334         83.3023         23.0829 
        1.23949         82.9104         22.8261 
        1.24562         82.2305          22.574 
        1.25174         81.8305         22.3262 
        1.25789         81.9431         22.0813 
        1.26402         81.1744         21.8406 
        1.27014         80.6506         21.6041 
        1.27628         80.0614         21.3705 
        1.28244         79.8171         21.1399 
        1.28858         79.3865          20.913 
        1.29471         79.1111         20.6901 
        1.30084         78.4668         20.4706 
        1.30697         78.3408          20.254 
        1.31312         77.6246         20.0402 
        1.31925         77.2285         19.8303 
        1.32537         76.9007         19.6236 
        1.33151         76.5339         19.4191 
        1.33765         76.1093         19.2177 
        1.34378         75.8894         19.0196 
        1.34992         75.3578         18.8242 
        1.35606         74.9441         18.6311 
         1.3622         74.4429         18.4411 
        1.36833          74.044         18.2543 
        1.37445         73.6127         18.0701 
        1.38059         73.4258          17.888 
        1.38675         72.7115          17.708 
        1.39288         72.6829         17.5312 
        1.39901         72.1716         17.3569 
        1.40515         71.9155         17.1846 
         1.4113         71.7764         17.0148 
        1.41742         71.3638         16.8479 
        1.42355         70.7085          16.683 
         1.4297          70.374         16.5198 
        1.43585         69.9247         16.3589 
        1.44198         69.6191         16.2008 
        1.44809         69.3247          16.045 
        1.45423          69.062         15.8908 
        1.46036         68.6929         15.7389 
        1.46649         68.5496          15.589 
        1.47263         68.0281         15.4409 
        1.47877         67.7833         15.2948 
        1.48491         67.5644         15.1504 
        1.49104         67.0541         15.0082 
        1.49718         66.7415         14.8677 
        1.50333         66.5617         14.7288 
        1.50947          66.013          14.592 
         1.5156         65.8232         14.4571 
        1.52172         65.3722          14.324 
        1.52787         65.0993         14.1923 
          1.534         64.8756         14.0624 
        1.54013          64.593         13.9343 
        1.54627         64.0967         13.8076 
        1.55241         63.8486         13.6824 
        1.55855         63.6431          13.559 
        1.56467         63.3298         13.4375 
         1.5708         63.0989         13.3171 
        1.57695         62.7899         13.1981 
        1.58308         62.2813         13.0807 
        1.58922         62.0863         12.9648 
        1.59535         61.8991         12.8503 
         1.6015         61.7659          12.737 
        1.60764         61.4009         12.6252 
        1.61376         61.0128         12.5151 
        1.61989         60.6816         12.4062 
        1.62604         60.4751         12.2983 
        1.63218         60.1491         12.1918 
        1.63831         60.0671         12.0868 
        1.64444         59.6178         11.9831 
        1.65059          59.454         11.8803 
        1.65673         59.0042         11.7789 
        1.66285         58.9643         11.6789 
        1.66898         58.3875         11.5801 
        1.67512         58.3467         11.4822 
        1.68127         58.0361         11.3854 
         1.6874         57.7416         11.2899 
        1.69353         57.5241         11.1956 
        1.69967         57.3364         11.1022 
        1.70581         56.8249         11.0098 
        1.71193         56.6689         10.9189 
        1.71806         56.5061         10.8289 
        1.72421         56.2687         10.7396 
        1.73035         55.9334         10.6515 
        1.73649         55.5983         10.5644 
        1.74262          55.311         10.4784 
        1.74876         54.9988         10.3932 
        1.75489         54.9061         10.3092 
        1.76101         54.7324         10.2262 
        1.76715         54.4583         10.1439 
        1.77329         54.1118         10.0625 
        1.77943         54.1187         9.98197 
        1.78557         53.7328         9.90242 
        1.79171         53.5275         9.82374 
        1.79785          53.235          9.7459 
        1.80399         53.0304         9.66893 
        1.81012         52.8336          9.5929 
        1.81625         52.4541         9.51773 
        1.82239         52.2694         9.44327 
        1.82853         52.1569         9.36964 
        1.83466         51.8475         9.29687 
        1.84078         51.5758         9.22497 
        1.84692         51.3175         9.15371 
        1.85306         51.1131         9.08313 
         1.8592         50.9337          9.0134 
        1.86533         50.7413         8.94446 
        1.87147          50.501         8.87616 
        1.87761         50.2084         8.80855 
        1.88375         50.1709         8.74174 
        1.88988         49.8228         8.67569 
        1.89601          49.569          8.6103 
        1.90215          49.439         8.54553 
        1.90829         49.1868         8.48147 
        1.91442         48.9424         8.41807 
        1.92056          48.734         8.35538 
         1.9267         48.5695         8.29327 
        1.93284         48.2988         8.23175 
        1.93897          48.103         8.17099 
        1.94509         47.9053         8.11097 
        1.95123         47.7261         8.05141 
        1.95737         47.4768         7.99241 
        1.96349         47.2308         7.93416 
        1.96964         47.1626         7.87632 
        1.97578         46.9208         7.81905 
        1.98192         46.6595         7.76246 
        1.98805         46.3885         7.70643 
        1.99419          46.379         7.65095 
        2.00033         46.0899           7.596 
        2.00647         45.9025          7.5416 
         2.0126         45.6672         7.48784 
        2.01874         45.4051         7.43452 
        2.02488         45.3546         7.38168 
        2.03101         45.0338         7.32945 
        2.03714         44.8872         7.27778 
        2.04328         44.7427         7.22656 
        2.04941         44.4791         7.17588 
        2.05554         44.3904         7.12572 
        2.06167         44.1406         7.07598 
        2.06781         43.9788         7.02671 
        2.07396         43.8479         6.97784 
        2.08009         43.6259         6.92953 
        2.08622         43.3807         6.88173 
        2.09237         43.2332         6.83429 
        2.09851          42.967          6.7873 
        2.10464         42.7943         6.74083 
        2.11077         42.7274         6.69485 
        2.11691         42.4936         6.64921 
        2.12305         42.3238         6.60399 
        2.12918         42.0993         6.55931 
        2.13531         41.9518         6.51503 
        2.14145          41.775         6.47107 
         2.1476         41.5406         6.42747 
        2.15372         41.3848         6.38449 
        2.15985         41.2468         6.34186 
        2.16599         41.0781          6.2995 
        2.17213         40.9113         6.25758 
        2.17827         40.6734         6.21605 
         2.1844         40.4996         6.17494 
        2.19054           40.42         6.13419 
        2.19666         40.1694         6.09387 
         2.2028         40.0734         6.05388 
        2.20893         39.8088         6.01423 
        2.21508         39.6802          5.9749 
        2.22122         39.5213         5.93591 
        2.22736         39.3413         5.89735 
        2.23349         39.1632         5.85914 
        2.23962         39.1087         5.82125 
        2.24577         38.8657         5.78367 
         2.2519         38.7253         5.74648 
        2.25802         38.5204         5.70968 
        2.26417          38.344         5.67309 
        2.27031         38.2562          5.6368 
        2.27644         38.1354         5.60093 
        2.28257         37.9317         5.56538 
        2.28872         37.7878         5.53008 
        2.29486          37.604         5.49509 
        2.30099         37.3865         5.46047 
        2.30712         37.3529         5.42614 
        2.31326         37.1211         5.39205 
         2.3194         37.0369         5.35828 
        2.32553         36.8333         5.32485 
        2.33166         36.6464         5.29173 
         2.3378         36.6151         5.25884 
        2.34394         36.3837         5.22623 
        2.35007         36.2711         5.19394 
        2.35619         36.0731         5.16196 
        2.36233         35.9749         5.13018 
        2.36848         35.8097          5.0986 
        2.37462         35.6508         5.06736 
        2.38075         35.4844         5.03642 
        2.38689         35.3466          5.0057 
        2.39303         35.2788         4.97525 
        2.39916          35.044         4.94509 
        2.40529         34.8367         4.91518 
        2.41143         34.8307          4.8855 
        2.41757         34.6093         4.85606 
         2.4237         34.4727         4.82691 
        2.42983         34.3496         4.79801 
        2.43598         34.2416         4.76926 
        2.44211         34.0905         4.74081 
        2.44823         33.9253         4.71265 
        2.45437         33.8139         4.68464 
        2.46052         33.6521         4.65684 
        2.46665         33.5207         4.62932 
        2.47279         33.3348         4.60203 
        2.47892         33.2713         4.57494 
        2.48507         33.1091         4.54805 
         2.4912         33.0159         4.52142 
