# k  (h/Mpc)    P(k)  (Mpc/h)^3    P_linear(k)  (Mpc/h)^3
     0.00783031         701.749         708.715 
       0.013688         921.875         923.932 
       0.019231         979.859         980.535 
      0.0249154         943.953         949.234 
      0.0312784         861.506         862.861 
      0.0375637         767.671         766.501 
      0.0433917          686.97         688.343 
      0.0492413         627.586         627.344 
      0.0555754         576.467         578.857 
      0.0619321         543.008         541.293 
       0.067871         507.287         509.023 
      0.0738098         472.662         474.721 
      0.0800417         432.052         435.037 
      0.0862327         392.165         393.675 
      0.0921407         355.174         355.721 
      0.0982031         320.375         321.527 
       0.104506         294.033         293.059 
       0.110769         272.701             272 
       0.116806         256.354         257.071 
       0.122832         245.462         245.214 
       0.129052         232.853         233.817 
       0.135211         220.538          221.66 
       0.141259         208.109         208.264 
       0.147318         194.461         193.807 
       0.153489         179.237         179.093 
       0.159709         165.993         165.503 
       0.165845         155.947         154.172 
       0.171974          145.86         145.189 
       0.178125         139.081         138.232 
       0.184229         133.889         132.708 
        0.19034         127.717         127.768 
       0.196428         123.513         122.764 
       0.202534         118.889         117.283 
       0.208729         112.361         111.223 
       0.214876         105.612         104.979 
       0.220989         100.775         98.9455 
       0.227147         94.3033         93.4222 
        0.23329         89.7342          88.695 
       0.239377         86.1765         84.8126 
       0.245482         82.3732         81.5787 
       0.251667         80.2273         78.7316 
       0.257832          77.409         76.0564 
       0.263955         74.7049         73.3537 
       0.270079         71.9582          70.511 
        0.27624         69.5327         67.5284 
       0.282372         66.5225         64.5387 
        0.28843         63.4369         61.6985 
       0.294538         60.8439         59.0609 
       0.300721         58.9291         56.6912 
        0.30691         56.4625         54.6158 
       0.313033         54.7019         52.8044 
       0.319153         52.4096         51.1465 
       0.325316         51.5729         49.5473 
        0.33145         49.7938         47.9584 
       0.337538         48.3017          46.361 
       0.343633         46.5747         44.7452 
       0.349808         45.1101         43.1297 
       0.355968         43.6197           41.58 
       0.362074          42.153         40.1421 
       0.368217         40.8812         38.8139 
       0.374374         39.5091          37.597 
       0.380519          38.544         36.4806 
       0.386598         37.5337          35.442 
       0.392688         36.6675         34.4404 
        0.39888         35.5812         33.4419 
       0.405048         34.6896         32.4546 
       0.411186         33.8058         31.4846 
       0.417313         32.6426         30.5375 
       0.423458         31.8118         29.6211 
       0.429607         30.8713         28.7503 
       0.435692         29.9925         27.9396 
       0.441815         29.3433         27.1719 
       0.447964         28.8103         26.4454 
       0.454126         27.8128         25.7522 
       0.460267         27.2116         25.0854 
       0.466387         26.4196         24.4379 
        0.47254         25.9524         23.8016 
       0.478662         25.4148          23.182 
       0.484765         24.7024         22.5798 
       0.490885         24.0972         21.9959 
       0.497035         23.7473         21.4329 
       0.503198         23.1231         20.8934 
       0.509342         22.5749          20.379 
       0.515458           22.04         19.8894 
       0.521598         21.6268         19.4172 
       0.527764         21.1208         18.9589 
       0.533884           20.75         18.5165 
           0.54         20.3028         18.0858 
       0.546137         19.9185         17.6651 
       0.552299         19.5399         17.2546 
       0.558452         18.9551         16.8571 
       0.564573         18.6956         16.4743 
       0.570708         18.3382         16.1038 
       0.576825         17.8668         15.7478 
       0.582926          17.574         15.4054 
       0.589034         17.0772         15.0738 
       0.595184         16.8248           14.75 
       0.601379         16.4843         14.4329 
       0.607522         16.2394         14.1269 
       0.613639         16.0305         13.8306 
       0.619772         15.6079         13.5418 
       0.625918         15.4516         13.2606 
       0.632068         15.2003         12.9873 
       0.638161         14.8441         12.7244 
         0.6443         14.5448         12.4671 
       0.650464         14.2553         12.2165 
       0.656582         14.1284          11.975 
       0.662703         13.8736         11.7403 
       0.668861         13.6298         11.5107 
       0.675024          13.358         11.2871 
       0.681124         13.1263         11.0716 
       0.687237         12.9342         10.8611 
       0.693381         12.7562         10.6549 
       0.699536         12.4129         10.4536 
       0.705665         12.2738         10.2585 
       0.711789          12.078         10.0686 
       0.717957         11.8781         9.88244 
        0.72409         11.6827         9.70224 
       0.730186         11.5257         9.52777 
       0.736317         11.4025         9.35676 
       0.742472         11.2212         9.18937 
       0.748622         11.0333         9.02625 
        0.75476          10.795         8.86741 
       0.760888         10.6786          8.7126 
       0.767043         10.5492         8.56087 
       0.773185         10.3349         8.41306 
       0.779291          10.243         8.26961 
       0.785407         10.0807         8.12932 
       0.791564         9.91866         7.99146 
       0.797719         9.77038         7.85693 
       0.803834         9.67808         7.72641 
       0.809972         9.57185         7.59844 
       0.816124         9.37358         7.47313 
       0.822261         9.23806         7.35104 
       0.828378         9.13047         7.23207 
       0.834502         9.04173         7.11566 
       0.840667         8.87657         7.00109 
       0.846816         8.73523         6.88938 
       0.852925         8.65809         6.78083 
       0.859047         8.54532         6.67442 
       0.865192         8.46228         6.56996 
       0.871341         8.36232         6.46768 
       0.877463         8.24298         6.36807 
       0.883569         8.10307         6.27084 
       0.889708         7.97437         6.17515 
       0.895864         7.91309         6.08124 
       0.902008         7.81024          5.9895 
       0.908149         7.72328         5.89972 
       0.914301         7.60116         5.81166 
       0.920448         7.49816         5.72549 
       0.926574         7.40403         5.64139 
       0.932687           7.342         5.55918 
       0.938823         7.24775         5.47832 
       0.944975          7.1505          5.3989 
       0.951105         7.08249         5.32135 
       0.957225         7.04286         5.24547 
       0.963368         6.93971         5.17083 
       0.969511         6.85592         5.09765 
       0.975621         6.76081         5.02629 
       0.981748         6.69667         4.95612 
       0.987916         6.62628         4.88686 
        0.99406         6.52021          4.8192 
        1.00019         6.43833         4.75297 
        1.00632         6.40026         4.68805 
        1.01246         6.33072         4.62425 
        1.01859         6.25032         4.56175 
        1.02471         6.18263          4.5005 
        1.03085         6.12033         4.44017 
        1.03698         6.03867         4.38108 
        1.04314         5.98818         4.32282 
        1.04929          5.9104         4.26577 
        1.05541         5.84802         4.20999 
        1.06154         5.79497         4.15507 
        1.06769         5.75765         4.10106 
        1.07382         5.67028          4.0482 
        1.07993         5.60453         3.99639 
        1.08607         5.57196         3.94529 
        1.09222         5.51048         3.89504 
        1.09836          5.4631         3.84573 
        1.10449         5.40153         3.79733 
        1.11063         5.34695         3.74972 
        1.11677         5.29758         3.70296 
         1.1229         5.24354         3.65707 
        1.12903           5.188         3.61194 
        1.13518         5.14214         3.56753 
        1.14131         5.07257          3.5239 
        1.14745         5.00864         3.48103 
        1.15359          4.9875         3.43887 
        1.15973          4.9265         3.39739 
        1.16584         4.88875         3.35679 
        1.17197         4.84192          3.3168 
        1.17811         4.80016         3.27735 
        1.18424          4.7695         3.23865 
        1.19038         4.72323         3.20047 
        1.19652         4.67752         3.16293 
        1.20267         4.62974         3.12599 
        1.20881         4.58707         3.08965 
        1.21495          4.5528         3.05396 
        1.22108         4.50734         3.01883 
         1.2272         4.48436         2.98434 
        1.23334         4.42393         2.95032 
        1.23949         4.38252         2.91675 
        1.24562           4.362          2.8838 
        1.25174         4.30627         2.85141 
        1.25789         4.27683         2.81942 
        1.26402         4.23222         2.78798 
        1.27014         4.19311         2.75711 
        1.27628         4.17396          2.7266 
        1.28244         4.11965         2.69651 
        1.28858         4.10002         2.66691 
        1.29471         4.05773         2.63783 
        1.30084         4.01998         2.60921 
        1.30697         4.00875         2.58097 
        1.31312         3.93712         2.55311 
        1.31925         3.92528         2.52576 
        1.32537         3.89183         2.49883 
        1.33151         3.86894         2.47221 
        1.33765         3.81927         2.44599 
        1.34378         3.78945          2.4202 
        1.34992         3.77767         2.39478 
        1.35606         3.72746         2.36966 
         1.3622         3.71157         2.34495 
        1.36833         3.67982         2.32066 
        1.37445         3.64908         2.29672 
        1.38059         3.62709         2.27305 
        1.38675         3.60637         2.24966 
        1.39288           3.565         2.22669 
        1.39901         3.53405         2.20406 
        1.40515           3.512         2.18169 
         1.4113         3.48621         2.15965 
        1.41742         3.46215         2.13799 
        1.42355         3.44152         2.11659 
         1.4297         3.40209         2.09542 
        1.43585         3.38953         2.07455 
        1.44198         3.36952         2.05405 
        1.44809         3.32696         2.03386 
        1.45423         3.30508         2.01387 
        1.46036         3.28141         1.99419 
        1.46649         3.25333         1.97476 
        1.47263         3.22891         1.95558 
        1.47877         3.20026         1.93666 
        1.48491         3.18057         1.91797 
        1.49104         3.16563         1.89956 
        1.49718         3.14243         1.88138 
        1.50333         3.11891         1.86341 
        1.50947         3.09872         1.84572 
         1.5156         3.07686         1.82828 
        1.52172         3.05631         1.81106 
        1.52787         3.03261         1.79404 
          1.534         3.01419         1.77726 
        1.54013         2.99058         1.76071 
        1.54627         2.96347         1.74434 
        1.55241         2.94386         1.72818 
        1.55855         2.93115         1.71224 
        1.56467         2.91053         1.69656 
         1.5708         2.88124         1.68102 
        1.57695         2.86898         1.66566 
        1.58308         2.84751         1.65053 
        1.58922         2.83383         1.63557 
        1.59535         2.81341         1.62081 
         1.6015         2.79526         1.60621 
        1.60764         2.77902         1.59179 
        1.61376          2.7601          1.5776 
        1.61989         2.73958         1.56357 
        1.62604         2.72036         1.54967 
        1.63218         2.71204         1.53596 
        1.63831         2.68374         1.52244 
        1.64444         2.66675         1.50908 
        1.65059         2.65446         1.49586 
        1.65673         2.63712          1.4828 
        1.66285         2.61556         1.46994 
        1.66898         2.60495         1.45723 
        1.67512         2.58182         1.44464 
        1.68127         2.56795         1.43219 
         1.6874         2.55763         1.41991 
        1.69353         2.52989         1.40779 
        1.69967         2.51807         1.39578 
        1.70581         2.51154         1.38392 
        1.71193         2.49085         1.37224 
        1.71806         2.47993         1.36067 
        1.72421         2.46261         1.34921 
        1.73035         2.44678          1.3379 
        1.73649         2.43099         1.32672 
        1.74262         2.41664         1.31567 
        1.74876         2.40741         1.30475 
        1.75489         2.38631         1.29397 
        1.76101         2.37192         1.28332 
        1.76715          2.3597         1.27277 
        1.77329         2.34596         1.26233 
        1.77943         2.32871         1.25201 
        1.78557         2.31801         1.24181 
        1.79171         2.30826         1.23173 
        1.79785         2.28994         1.22176 
        1.80399         2.27984          1.2119 
        1.81012         2.27112         1.20216 
        1.81625         2.25138         1.19253 
        1.82239         2.23793           1.183 
        1.82853         2.21997         1.17357 
        1.83466         2.21507         1.16426 
        1.84078         2.20126         1.15506 
        1.84692         2.19073         1.14594 
        1.85306         2.17447         1.13691 
         1.8592          2.1648           1.128 
        1.86533         2.15118         1.11918 
        1.87147         2.14289         1.11045 
        1.87761         2.13065         1.10181 
        1.88375         2.11155         1.09327 
        1.88988         2.10641         1.08483 
        1.89601         2.09205         1.07648 
        1.90215          2.0777          1.0682 
        1.90829         2.06749         1.06002 
        1.91442         2.05768         1.05193 
        1.92056         2.04621         1.04392 
         1.9267         2.03737         1.03599 
        1.93284         2.02831         1.02814 
        1.93897         2.01555         1.02039 
        1.94509         2.00203         1.01273 
        1.95123         1.99012         1.00513 
        1.95737         1.98076        0.997606 
        1.96349          1.9707        0.990177 
        1.96964         1.96332        0.982803 
        1.97578         1.95155          0.9755 
        1.98192         1.94322        0.968287 
        1.98805         1.92941        0.961147 
        1.99419         1.92196        0.954078 
        2.00033         1.91776        0.947077 
        2.00647         1.90107        0.940149 
         2.0126         1.89511        0.933302 
        2.01874         1.88151        0.926512 
        2.02488         1.87398        0.919785 
        2.03101           1.861        0.913137 
        2.03714         1.84919        0.906561 
        2.04328         1.84538        0.900043 
        2.04941         1.83229        0.893595 
        2.05554         1.82704        0.887214 
        2.06167         1.81459        0.880888 
        2.06781          1.8085        0.874622 
        2.07396         1.79837        0.868408 
        2.08009         1.78984        0.862266 
        2.08622         1.77718         0.85619 
        2.09237         1.77596        0.850161 
        2.09851         1.76579         0.84419 
        2.10464         1.75814        0.838286 
        2.11077         1.74669        0.832445 
        2.11691         1.73648        0.826648 
        2.12305         1.73193        0.820905 
        2.12918          1.7222        0.815231 
        2.13531         1.71531        0.809611 
        2.14145         1.70425         0.80403 
         2.1476         1.69654        0.798496 
        2.15372         1.68877        0.793042 
        2.15985         1.68064        0.787634 
        2.16599         1.67182        0.782261 
        2.17213         1.66416        0.776944 
        2.17827         1.65898        0.771677 
         2.1844         1.65122        0.766465 
        2.19054         1.64527        0.761299 
        2.19666         1.63481        0.756188 
         2.2028         1.62844        0.751119 
        2.20893         1.61748        0.746095 
        2.21508         1.61499        0.741111 
        2.22122         1.60275        0.736171 
        2.22736          1.5945        0.731286 
        2.23349         1.59341        0.726447 
        2.23962         1.58168        0.721649 
        2.24577         1.57458        0.716891 
         2.2519         1.56709        0.712182 
        2.25802         1.56426        0.707524 
        2.26417         1.55246        0.702894 
        2.27031         1.54902        0.698301 
        2.27644          1.5413        0.693763 
        2.28257         1.53481        0.689265 
        2.28872         1.52628        0.684799 
        2.29486         1.52234        0.680374 
        2.30099         1.51291        0.675997 
        2.30712         1.50738        0.671656 
        2.31326         1.50352        0.667347 
         2.3194         1.49527        0.663078 
        2.32553         1.48945        0.658853 
        2.33166         1.48073        0.654668 
         2.3378         1.47406        0.650513 
        2.34394         1.46684        0.646392 
        2.35007         1.46112        0.642314 
        2.35619         1.45835        0.638276 
        2.36233         1.44833        0.634263 
        2.36848         1.44416        0.630276 
        2.37462         1.43757        0.626332 
        2.38075         1.43234        0.622426 
        2.38689          1.4256        0.618549 
        2.39303         1.42098        0.614707 
        2.39916         1.41207        0.610901 
        2.40529         1.40974        0.607128 
        2.41143         1.40214        0.603384 
        2.41757          1.3957         0.59967 
         2.4237         1.39164        0.595994 
        2.42983         1.38453         0.59235 
        2.43598          1.3808        0.588726 
        2.44211         1.37417        0.585139 
        2.44823         1.36818        0.581589 
        2.45437         1.36338         0.57806 
        2.46052         1.35955        0.574557 
        2.46665         1.35374        0.571089 
        2.47279         1.34752        0.567651 
        2.47892         1.34069        0.564239 
        2.48507         1.33664        0.560852 
         2.4912         1.33054          0.5575 
