# k  (h/Mpc)    P(k)  (Mpc/h)^3    P_linear(k)  (Mpc/h)^3
     0.00783031         2134.52         2158.93 
       0.013688         2812.67         2812.75 
       0.019231          2983.4         2984.39 
      0.0249154          2863.4         2888.77 
      0.0312784         2616.69          2625.7 
      0.0375637         2334.79         2332.37 
      0.0433917         2082.44         2094.48 
      0.0492413         1905.87         1908.83 
      0.0555754         1743.74         1761.27 
      0.0619321         1652.11         1646.95 
       0.067871         1535.63         1548.75 
      0.0738098         1430.33         1444.38 
      0.0800417         1304.41         1323.63 
      0.0862327         1186.55         1197.77 
      0.0921407         1077.34         1082.29 
      0.0982031          970.49         978.251 
       0.104506         895.853         891.636 
       0.110769         830.681         827.561 
       0.116806         779.166         782.137 
       0.122832         747.374          746.06 
       0.129052         706.029         711.384 
       0.135211         669.105         674.395 
       0.141259         633.699         633.637 
       0.147318         593.536         589.654 
       0.153489         546.269         544.886 
       0.159709          508.32         503.538 
       0.165845         480.385         469.063 
       0.171974         448.904         441.731 
       0.178125         428.443         420.565 
       0.184229         413.014         403.758 
        0.19034         391.112         388.728 
       0.196428         380.913         373.504 
       0.202534         368.032         356.829 
       0.208729         347.983          338.39 
       0.214876         326.985         319.394 
       0.220989         314.356         301.037 
       0.227147         293.975         284.233 
        0.23329         280.759          269.85 
       0.239377         271.462         258.038 
       0.245482         257.178         248.199 
       0.251667         252.425         239.537 
       0.257832         244.113         231.398 
       0.263955         235.505         223.175 
       0.270079         227.283         214.526 
        0.27624         221.401         205.452 
       0.282372         212.044         196.355 
        0.28843         203.016         187.714 
       0.294538         194.808          179.69 
       0.300721         190.543          172.48 
        0.30691         182.215         166.165 
       0.313033         177.104         160.654 
       0.319153          169.48          155.61 
       0.325316         166.753         150.745 
        0.33145         161.042         145.911 
       0.337538         157.612          141.05 
       0.343633         152.278         136.135 
       0.349808         147.695          131.22 
       0.355968          143.73         126.505 
       0.362074         139.279          122.13 
       0.368217         135.493         118.089 
       0.374374         131.541         114.387 
       0.380519         128.404          110.99 
       0.386598         125.115          107.83 
       0.392688         122.819         104.783 
        0.39888         119.496         101.745 
       0.405048         116.874         98.7412 
       0.411186         114.314         95.7899 
       0.417313         110.791         92.9084 
       0.423458         108.257         90.1204 
       0.429607         105.425          87.471 
       0.435692         102.141         85.0044 
       0.441815         101.004         82.6687 
       0.447964           99.42         80.4584 
       0.454126         95.4124         78.3494 
       0.460267         93.9665         76.3207 
       0.466387         91.7427         74.3507 
        0.47254         90.4229          72.415 
       0.478662         88.9352         70.5298 
       0.484765         86.6028         68.6976 
       0.490885          84.811         66.9212 
       0.497035         83.6985         65.2082 
       0.503198         81.5732         63.5667 
       0.509342          79.615         62.0019 
       0.515458         78.2978         60.5121 
       0.521598         77.2205         59.0755 
       0.527764         75.8029         57.6811 
       0.533884         74.4862         56.3352 
           0.54         73.1526         55.0247 
       0.546137          72.169         53.7448 
       0.552299         71.1345          52.496 
       0.558452         69.0822         51.2867 
       0.564573         68.0094          50.122 
       0.570708         67.2181         48.9947 
       0.576825         65.7363         47.9116 
       0.582926         64.6038         46.8699 
       0.589034         63.0417         45.8611 
       0.595184         62.3355          44.876 
       0.601379         61.5158         43.9112 
       0.607522         60.1699         42.9803 
       0.613639         59.9029         42.0787 
       0.619772         58.3773            41.2 
       0.625918         58.1277         40.3445 
       0.632068         57.2281          39.513 
       0.638161         56.2469          38.713 
         0.6443         55.2735         37.9304 
       0.650464         54.4237         37.1678 
       0.656582         54.0668         36.4331 
       0.662703         53.0201         35.7191 
       0.668861         52.2779         35.0206 
       0.675024         51.4887         34.3404 
       0.681124         50.6394         33.6847 
       0.687237         49.8378         33.0441 
       0.693381         49.4657         32.4168 
       0.699536         48.3963         31.8044 
       0.705665         48.4488         31.2107 
       0.711789         47.3278          30.633 
       0.717957         46.8505         30.0667 
        0.72409         46.1767         29.5184 
       0.730186         45.5451         28.9876 
       0.736317         45.2066         28.4673 
       0.742472         44.4278         27.9581 
       0.748622         44.0867         27.4618 
        0.75476         43.4191         26.9785 
       0.760888          42.851         26.5075 
       0.767043         42.4115         26.0459 
       0.773185         41.7459         25.5962 
       0.779291         41.5506         25.1597 
       0.785407         41.0906         24.7329 
       0.791564         40.3728         24.3135 
       0.797719         39.6746         23.9042 
       0.803834          39.623         23.5071 
       0.809972         39.1962         23.1177 
       0.816124         38.3415         22.7365 
       0.822261         38.2102          22.365 
       0.828378         37.8269         22.0031 
       0.834502         37.3969         21.6489 
       0.840667         37.0298         21.3003 
       0.846816         36.4688         20.9605 
       0.852925         36.1782         20.6302 
       0.859047         35.7477         20.3065 
       0.865192         35.4804         19.9886 
       0.871341         35.2674         19.6775 
       0.877463         34.6082         19.3744 
       0.883569         34.2781         19.0786 
       0.889708         33.9348         18.7875 
       0.895864         33.6959         18.5018 
       0.902008         33.4369         18.2226 
       0.908149         33.1024         17.9495 
       0.914301         32.9466         17.6816 
       0.920448         32.2803         17.4194 
       0.926574          32.135         17.1636 
       0.932687          31.804         16.9134 
       0.938823         31.4189         16.6674 
       0.944975         31.1618         16.4258 
       0.951105          30.946         16.1899 
       0.957225         30.5908          15.959 
       0.963368         30.3749         15.7319 
       0.969511         30.1546         15.5092 
       0.975621         29.9323         15.2921 
       0.981748         29.5422         15.0787 
       0.987916         29.3806          14.868 
        0.99406         29.0627         14.6621 
        1.00019         28.7042         14.4606 
        1.00632         28.6452         14.2631 
        1.01246         28.3685          14.069 
        1.01859         28.0062         13.8788 
        1.02471         27.9444         13.6925 
        1.03085          27.683         13.5089 
        1.03698         27.2703         13.3291 
        1.04314         27.1168         13.1519 
        1.04929         26.8511         12.9783 
        1.05541         26.6057         12.8086 
        1.06154         26.4512         12.6415 
        1.06769         26.3029         12.4772 
        1.07382         26.0227         12.3164 
        1.07993         25.9178         12.1588 
        1.08607         25.6056         12.0033 
        1.09222         25.4556         11.8504 
        1.09836         25.1532         11.7004 
        1.10449         25.0742         11.5531 
        1.11063         24.7983         11.4083 
        1.11677          24.709          11.266 
         1.1229         24.5848         11.1264 
        1.12903         24.2803         10.9891 
        1.13518         24.0453          10.854 
        1.14131         23.9694         10.7212 
        1.14745         23.8026         10.5908 
        1.15359         23.6489         10.4625 
        1.15973         23.4351         10.3363 
        1.16584         23.1619         10.2128 
        1.17197         23.1508         10.0911 
        1.17811         22.9099          9.9711 
        1.18424         22.7138         9.85337 
        1.19038         22.6454         9.73722 
        1.19652         22.4516         9.62299 
        1.20267         22.2655         9.51061 
        1.20881         22.2075         9.40006 
        1.21495          22.036         9.29145 
        1.22108         21.8292         9.18458 
         1.2272         21.6436         9.07966 
        1.23334          21.501         8.97615 
        1.23949         21.3348         8.87402 
        1.24562         21.3017         8.77376 
        1.25174         21.1541         8.67522 
        1.25789         21.0266          8.5779 
        1.26402         20.9168         8.48225 
        1.27014         20.7327          8.3883 
        1.27628         20.5078         8.29551 
        1.28244         20.4593         8.20394 
        1.28858         20.3883         8.11389 
        1.29471         20.1848         8.02541 
        1.30084           20.03         7.93833 
        1.30697         19.9474         7.85242 
        1.31312         19.7469         7.76767 
        1.31925         19.6347         7.68444 
        1.32537         19.5844         7.60253 
        1.33151          19.414         7.52152 
        1.33765         19.3088         7.44175 
        1.34378         19.2127          7.3633 
        1.34992         19.0127         7.28594 
        1.35606         18.9779         7.20953 
         1.3622          18.876         7.13435 
        1.36833         18.7296         7.06044 
        1.37445          18.651         6.98761 
        1.38059         18.5617          6.9156 
        1.38675         18.3763         6.84444 
        1.39288         18.3006         6.77456 
        1.39901         18.1438          6.7057 
        1.40515           18.09         6.63765 
         1.4113         17.9863         6.57057 
        1.41742         17.8684         6.50469 
        1.42355         17.7772         6.43958 
         1.4297         17.6611         6.37518 
        1.43585         17.6172         6.31168 
        1.44198          17.468          6.2493 
        1.44809         17.3924         6.18788 
        1.45423         17.2818         6.12707 
        1.46036         17.2185         6.06718 
        1.46649         17.1257         6.00808 
        1.47263         16.9809         5.94972 
        1.47877         16.9131         5.89216 
        1.48491         16.8172         5.83528 
        1.49104         16.7517         5.77928 
        1.49718         16.6408         5.72397 
        1.50333         16.5576          5.6693 
        1.50947         16.4788         5.61546 
         1.5156         16.3671          5.5624 
        1.52172         16.2719         5.51004 
        1.52787         16.1849         5.45824 
          1.534         16.1103         5.40718 
        1.54013         16.0153         5.35683 
        1.54627         15.9183         5.30703 
        1.55241         15.8539         5.25786 
        1.55855         15.7928         5.20938 
        1.56467         15.6878         5.16165 
         1.5708         15.6592         5.11439 
        1.57695         15.5128         5.06765 
        1.58308         15.4618         5.02161 
        1.58922         15.3909         4.97611 
        1.59535         15.3207         4.93119 
         1.6015         15.2114         4.88677 
        1.60764         15.1486         4.84292 
        1.61376         15.1199         4.79973 
        1.61989         14.9818         4.75704 
        1.62604         14.9572         4.71477 
        1.63218          14.869         4.67304 
        1.63831         14.8147         4.63192 
        1.64444         14.7134         4.59128 
        1.65059         14.6347         4.55104 
        1.65673         14.5898         4.51132 
        1.66285         14.4623         4.47218 
        1.66898         14.4366          4.4335 
        1.67512         14.3741         4.39521 
        1.68127         14.2791         4.35733 
         1.6874         14.2305         4.31999 
        1.69353          14.171         4.28311 
        1.69967         14.0765         4.24657 
        1.70581         13.9962         4.21047 
        1.71193          13.949         4.17494 
        1.71806         13.9259         4.13974 
        1.72421         13.8118         4.10488 
        1.73035         13.7854         4.07046 
        1.73649         13.7244         4.03644 
        1.74262         13.6482         4.00284 
        1.74876         13.5915         3.96961 
        1.75489         13.5417         3.93682 
        1.76101         13.4401         3.90441 
        1.76715         13.4309         3.87233 
        1.77329         13.3501         3.84056 
        1.77943          13.267         3.80915 
        1.78557         13.2331         3.77813 
        1.79171          13.184         3.74745 
        1.79785         13.1066         3.71711 
        1.80399         13.0478         3.68711 
        1.81012         12.9911         3.65748 
        1.81625         12.9174          3.6282 
        1.82239         12.8798         3.59919 
        1.82853         12.7848         3.57052 
        1.83466         12.7569         3.54218 
        1.84078         12.6682         3.51419 
        1.84692          12.665         3.48645 
        1.85306         12.5927         3.45898 
         1.8592          12.531         3.43185 
        1.86533         12.4878         3.40503 
        1.87147         12.4318         3.37847 
        1.87761         12.3832         3.35217 
        1.88375         12.3272         3.32619 
        1.88988          12.289         3.30052 
        1.89601         12.2316          3.2751 
        1.90215          12.167         3.24993 
        1.90829         12.1226         3.22504 
        1.91442         12.0724         3.20041 
        1.92056         12.0336         3.17606 
         1.9267         11.9753         3.15193 
        1.93284         11.9171         3.12805 
        1.93897         11.8544         3.10445 
        1.94509         11.8221         3.08116 
        1.95123           11.77         3.05804 
        1.95737         11.7168         3.03514 
        1.96349         11.6647         3.01254 
        1.96964         11.6234         2.99011 
        1.97578         11.5738         2.96789 
        1.98192         11.5195         2.94594 
        1.98805         11.4858         2.92422 
        1.99419         11.4369         2.90271 
        2.00033         11.4084         2.88141 
        2.00647         11.3552         2.86033 
         2.0126          11.292          2.8395 
        2.01874         11.2514         2.81885 
        2.02488         11.2003         2.79838 
        2.03101         11.1625         2.77815 
        2.03714         11.1162         2.75815 
        2.04328         11.0733         2.73832 
        2.04941         11.0352          2.7187 
        2.05554         10.9859         2.69928 
        2.06167         10.9349         2.68004 
        2.06781         10.9143         2.66097 
        2.07396         10.8722         2.64207 
        2.08009         10.8115         2.62338 
        2.08622         10.7604          2.6049 
        2.09237         10.7553         2.58655 
        2.09851         10.7251         2.56839 
        2.10464         10.6652         2.55042 
        2.11077         10.6022         2.53265 
        2.11691         10.5633         2.51501 
        2.12305         10.5436         2.49754 
        2.12918         10.5118         2.48028 
        2.13531         10.4503         2.46318 
        2.14145         10.4237          2.4462 
         2.1476          10.365         2.42937 
        2.15372         10.3383         2.41277 
        2.15985         10.3245         2.39632 
        2.16599         10.2625         2.37997 
        2.17213         10.2417         2.36379 
        2.17827         10.2026         2.34777 
         2.1844         10.1544         2.33191 
        2.19054         10.0986         2.31619 
        2.19666         10.0768         2.30064 
         2.2028         10.0299         2.28522 
        2.20893          10.019         2.26994 
        2.21508         9.96121         2.25477 
        2.22122          9.9159         2.23974 
        2.22736          9.8938         2.22488 
        2.23349         9.85803         2.21016 
        2.23962         9.83065         2.19557 
        2.24577         9.77697         2.18109 
         2.2519          9.7546         2.16676 
        2.25802         9.71352         2.15259 
        2.26417         9.67281          2.1385 
        2.27031         9.64614         2.12453 
        2.27644         9.61212         2.11072 
        2.28257          9.5832         2.09704 
        2.28872         9.53525         2.08345 
        2.29486          9.5107         2.06999 
        2.30099         9.49165         2.05667 
        2.30712         9.45967         2.04346 
        2.31326         9.39288         2.03035 
         2.3194         9.36413         2.01736 
        2.32553         9.35615         2.00451 
        2.33166         9.31503         1.99178 
         2.3378         9.28806         1.97914 
        2.34394         9.24648          1.9666 
        2.35007         9.19422         1.95419 
        2.35619         9.17437         1.94191 
        2.36233         9.14046          1.9297 
        2.36848         9.11762         1.91757 
        2.37462         9.07723         1.90557 
        2.38075          9.0517         1.89368 
        2.38689         9.01584         1.88189 
        2.39303          8.9816          1.8702 
        2.39916         8.95931         1.85862 
        2.40529         8.92756         1.84714 
        2.41143         8.89185         1.83575 
        2.41757         8.88259         1.82445 
         2.4237         8.84294         1.81327 
        2.42983         8.81646         1.80218 
        2.43598         8.79224         1.79115 
        2.44211         8.75679         1.78024 
        2.44823          8.7351         1.76944 
        2.45437         8.69421          1.7587 
        2.46052         8.65381         1.74805 
        2.46665         8.63125          1.7375 
        2.47279         8.59994         1.72704 
        2.47892         8.56553         1.71666 
        2.48507         8.54552         1.70635 
         2.4912         8.51148         1.69615 
