# k  (h/Mpc)    P(k)  (Mpc/h)^3    P_linear(k)  (Mpc/h)^3
     0.00783031         4674.67         4708.19 
       0.013688         6037.96         6145.73 
       0.019231         6470.06         6532.29 
      0.0249154         6339.62         6342.41 
      0.0312784         5742.37         5781.71 
      0.0375637         5075.51         5134.32 
      0.0433917         4574.43         4590.86 
      0.0492413         4111.28         4153.34 
      0.0555754         3786.52         3800.57 
      0.0619321         3448.52         3536.64 
       0.067871         3281.74         3328.45 
      0.0738098         3087.72         3122.72 
      0.0800417         2863.93          2889.5 
      0.0862327         2604.38         2639.74 
      0.0921407         2369.38         2398.12 
      0.0982031         2158.91         2165.87 
       0.104506         1933.21         1958.28 
       0.110769         1778.79         1794.61 
       0.116806         1687.16         1675.53 
       0.122832         1579.85         1585.93 
       0.129052         1511.15         1511.48 
       0.135211         1457.96         1443.06 
       0.141259         1371.85         1372.03 
       0.147318         1278.34         1293.36 
       0.153489         1205.63         1207.03 
       0.159709          1138.7         1119.02 
       0.165845         1038.21         1037.54 
       0.171974         999.828         966.448 
       0.178125         949.248         907.786 
       0.184229         884.859         861.644 
        0.19034         862.691         824.828 
       0.196428         834.073          793.69 
       0.202534         786.377         764.221 
       0.208729         770.695         733.235 
       0.214876         742.408         700.113 
       0.220989         694.301         665.154 
       0.227147         677.006         629.414 
        0.23329         648.851         595.181 
       0.239377         629.977         564.309 
       0.245482         596.924         537.319 
       0.251667         572.331         514.135 
       0.257832          565.22          494.52 
       0.263955         535.906         477.366 
       0.270079         519.117         461.333 
        0.27624         498.084         445.349 
       0.282372         486.352         429.036 
        0.28843         482.602         412.476 
       0.294538         459.218         395.639 
       0.300721         442.094         379.017 
        0.30691         434.654          363.33 
       0.313033         416.471          349.14 
       0.319153         408.934         336.388 
       0.325316         397.946         324.892 
        0.33145         388.268         314.487 
       0.337538         375.756         304.838 
       0.343633         364.708         295.511 
       0.349808         355.004         286.191 
       0.355968         347.422          276.91 
       0.362074         339.272         267.781 
       0.368217         334.075         258.785 
       0.374374         326.758          250.11 
       0.380519         313.551         241.933 
       0.386598         308.445         234.371 
       0.392688         301.464         227.335 
        0.39888         294.621          220.66 
       0.405048         289.465          214.39 
       0.411186         286.169         208.425 
       0.417313         280.384         202.646 
       0.423458         273.143         196.975 
       0.429607         267.725         191.418 
       0.435692         262.827         186.044 
       0.441815         257.429           180.8 
       0.447964         250.671         175.742 
       0.454126         246.651         170.902 
       0.460267         244.207         166.316 
       0.466387         239.521         161.977 
        0.47254         236.788         157.816 
       0.478662         229.606         153.844 
       0.484765         226.904         150.021 
       0.490885          223.33         146.305 
       0.497035          221.36         142.668 
       0.503198         217.656         139.121 
       0.509342         212.029         135.688 
       0.515458         210.044          132.38 
       0.521598         205.266         129.174 
       0.527764         203.028         126.072 
       0.533884         202.518         123.114 
           0.54         197.548         120.271 
       0.546137         193.241         117.518 
       0.552299         191.617         114.846 
       0.558452         188.315          112.26 
       0.564573         187.427         109.764 
       0.570708         182.889         107.332 
       0.576825         180.694         104.974 
       0.582926          178.82         102.689 
       0.589034         176.445          100.47 
       0.595184         174.941         98.3045 
       0.601379         170.847         96.1937 
       0.607522         168.465         94.1664 
       0.613639         167.142         92.2095 
       0.619772         165.098         90.3064 
       0.625918         163.803          88.455 
       0.632068          160.48         86.6554 
       0.638161         158.413         84.9217 
         0.6443         157.803         83.2218 
       0.650464         155.024         81.5607 
       0.656582         154.353         79.9561 
       0.662703         152.677         78.3944 
       0.668861         149.642         76.8667 
       0.675024         149.719         75.3804 
       0.681124         147.333         73.9503 
       0.687237         144.831         72.5558 
       0.693381         144.324         71.1916 
       0.699536         142.487         69.8606 
       0.705665         140.526         68.5695 
       0.711789         138.941         67.3123 
       0.717957         137.528         66.0782 
        0.72409         136.761         64.8822 
       0.730186         135.923         63.7234 
       0.736317         133.524         62.5871 
       0.742472         132.129         61.4748 
       0.748622         130.253         60.3911 
        0.75476         129.959         59.3363 
       0.760888         129.117         58.3087 
       0.767043         126.992         57.3018 
       0.773185         125.627         56.3211 
       0.779291         124.303         55.3693 
       0.785407         122.901         54.4385 
       0.791564          122.71         53.5236 
       0.797719           121.4         52.6305 
       0.803834         120.418         51.7637 
       0.809972         119.812         50.9137 
       0.816124         118.414         50.0812 
       0.822261         116.993         49.2698 
       0.828378         116.779         48.4791 
       0.834502         114.911         47.7054 
       0.840667         114.473         46.9437 
       0.846816         113.459         46.2011 
       0.852925         112.349         45.4794 
       0.859047         111.811         44.7719 
       0.865192         110.402         44.0772 
       0.871341          109.27          43.397 
       0.877463         108.689         42.7344 
       0.883569         108.402         42.0875 
       0.889708         107.532         41.4509 
       0.895864         106.498         40.8259 
       0.902008         105.709         40.2154 
       0.908149         104.463         39.6178 
       0.914301         104.279         39.0315 
       0.920448          103.67         38.4578 
       0.926574         101.901         37.8977 
       0.932687          101.64         37.3502 
       0.938823         100.813         36.8116 
       0.944975         99.7297         36.2826 
       0.951105         99.0183          35.766 
       0.957225         99.0173         35.2604 
       0.963368         97.9066          34.763 
       0.969511         97.0551         34.2753 
       0.975621         96.4517         33.7997 
       0.981748         95.5563         33.3321 
       0.987916         94.9387         32.8704 
        0.99406         94.5164         32.4194 
        1.00019          93.515         31.9778 
        1.00632         93.0115         31.5449 
        1.01246         92.3723         31.1195 
        1.01859         92.0231         30.7028 
        1.02471         91.0162         30.2943 
        1.03085         90.4312         29.8919 
        1.03698         89.9417         29.4978 
        1.04314         89.3616         29.1091 
        1.04929         88.8393         28.7285 
        1.05541         88.2523         28.3564 
        1.06154         87.7929         27.9899 
        1.06769         86.8169         27.6295 
        1.07382         86.3447         27.2767 
        1.07993         85.9988         26.9309 
        1.08607         85.2764         26.5898 
        1.09222         85.0549         26.2543 
        1.09836         84.2603          25.925 
        1.10449         83.8017         25.6018 
        1.11063         83.1502         25.2838 
        1.11677         82.9323         24.9714 
         1.1229         82.1194         24.6649 
        1.12903          81.988         24.3633 
        1.13518         81.7035         24.0666 
        1.14131         80.9114          23.775 
        1.14745         80.1535         23.4884 
        1.15359         79.5088         23.2066 
        1.15973         79.3936         22.9293 
        1.16584          78.868         22.6579 
        1.17197         78.1073         22.3905 
        1.17811          77.831         22.1266 
        1.18424         77.0201         21.8678 
        1.19038         76.9814         21.6124 
        1.19652         76.6234         21.3612 
        1.20267         76.0435         21.1141 
        1.20881         75.5443          20.871 
        1.21495         75.2642         20.6321 
        1.22108         74.8769          20.397 
         1.2272         74.2903         20.1662 
        1.23334         73.9354         19.9385 
        1.23949         73.5419         19.7138 
        1.24562         72.9602         19.4932 
        1.25174         72.5668         19.2763 
        1.25789         72.6448         19.0621 
        1.26402         71.9748         18.8516 
        1.27014         71.5648         18.6449 
        1.27628         70.9918         18.4406 
        1.28244         70.7912          18.239 
        1.28858         70.3843         18.0408 
        1.29471          70.101          17.846 
        1.30084         69.5028         17.6543 
        1.30697         69.4367         17.4651 
        1.31312         68.7988         17.2784 
        1.31925         68.3855         17.0951 
        1.32537         68.0979         16.9147 
        1.33151         67.7698         16.7362 
        1.33765         67.4134         16.5605 
        1.34378         67.1799         16.3876 
        1.34992         66.7076         16.2171 
        1.35606         66.3325         16.0487 
         1.3622         65.9214          15.883 
        1.36833         65.5617         15.7201 
        1.37445         65.1039         15.5595 
        1.38059         64.9936         15.4008 
        1.38675         64.3181         15.2438 
        1.39288         64.3264         15.0897 
        1.39901         63.8355         14.9378 
        1.40515         63.5868         14.7877 
         1.4113         63.4948         14.6398 
        1.41742         63.1074         14.4944 
        1.42355         62.5472         14.3507 
         1.4297         62.2462         14.2086 
        1.43585         61.8511         14.0685 
        1.44198         61.5529         13.9308 
        1.44809         61.2669         13.7953 
        1.45423         61.0475          13.661 
        1.46036         60.7218         13.5288 
        1.46649         60.5655         13.3983 
        1.47263         60.1194         13.2695 
        1.47877         59.9167         13.1424 
        1.48491         59.6928         13.0168 
        1.49104          59.216         12.8931 
        1.49718         58.9638          12.771 
        1.50333         58.7825         12.6502 
        1.50947         58.3386         12.5313 
         1.5156         58.1446         12.4141 
        1.52172         57.7281         12.2984 
        1.52787         57.4881         12.1839 
          1.534         57.2718         12.0711 
        1.54013         57.0624         11.9598 
        1.54627          56.572         11.8498 
        1.55241         56.3439         11.7411 
        1.55855         56.2218         11.6339 
        1.56467         55.8829         11.5284 
         1.5708          55.709         11.4239 
        1.57695         55.3941         11.3206 
        1.58308         54.9677         11.2188 
        1.58922         54.7785         11.1181 
        1.59535         54.6107         11.0188 
         1.6015         54.4955         10.9206 
        1.60764         54.1582         10.8236 
        1.61376         53.8089          10.728 
        1.61989         53.5257         10.6336 
        1.62604         53.3187           10.54 
        1.63218          53.037         10.4477 
        1.63831         52.9462         10.3567 
        1.64444         52.5715         10.2668 
        1.65059         52.4022         10.1777 
        1.65673         52.0296         10.0898 
        1.66285         51.9819         10.0031 
        1.66898          51.461         9.91751 
        1.67512           51.43         9.83272 
        1.68127         51.1558         9.74885 
         1.6874         50.8811         9.66616 
        1.69353         50.7386         9.58448 
        1.69967           50.55         9.50355 
        1.70581         50.0971          9.4236 
        1.71193         49.9179         9.34488 
        1.71806         49.7813          9.2669 
        1.72421         49.5696         9.18967 
        1.73035         49.2831          9.1134 
        1.73649         48.9723         9.03803 
        1.74262         48.6985         8.96357 
        1.74876         48.4957         8.88991 
        1.75489         48.3418         8.81724 
        1.76101         48.1798          8.7454 
        1.76715         47.9987         8.67428 
        1.77329         47.6281         8.60386 
        1.77943         47.6436          8.5342 
        1.78557         47.3245         8.46542 
        1.79171         47.1422          8.3974 
        1.79785         46.8745         8.33011 
        1.80399         46.6971         8.26358 
        1.81012         46.5198         8.19787 
        1.81625         46.1489         8.13292 
        1.82239         46.0067         8.06857 
        1.82853         45.8908         8.00495 
        1.83466          45.616         7.94209 
        1.84078         45.3974         7.87998 
        1.84692         45.1857         7.81843 
        1.85306         44.9572         7.75747 
         1.8592         44.8377         7.69726 
        1.86533         44.6348         7.63773 
        1.87147         44.4235         7.57877 
        1.87761         44.1517         7.52041 
        1.88375         44.1171         7.46273 
        1.88988          43.832         7.40573 
        1.89601         43.5772         7.34929 
        1.90215         43.4832         7.29341 
        1.90829         43.2594         7.23813 
        1.91442         43.0424         7.18343 
        1.92056         42.8642         7.12934 
         1.9267         42.7313         7.07576 
        1.93284         42.4683         7.02271 
        1.93897         42.3283          6.9703 
        1.94509         42.1412         6.91854 
        1.95123         41.9757         6.86717 
        1.95737         41.7318          6.8163 
        1.96349         41.5585         6.76608 
        1.96964         41.4915         6.71622 
        1.97578          41.225         6.66684 
        1.98192         41.0313         6.61806 
        1.98805         40.7814         6.56977 
        1.99419         40.7492         6.52196 
        2.00033          40.507         6.47461 
        2.00647         40.3708         6.42775 
         2.0126         40.1385         6.38143 
        2.01874         39.9165         6.33549 
        2.02488         39.8276         6.28998 
        2.03101         39.5742           6.245 
        2.03714         39.4514          6.2005 
        2.04328         39.3174         6.15639 
        2.04941         39.0941         6.11275 
        2.05554         39.0053         6.06956 
        2.06167         38.7736         6.02674 
        2.06781         38.6492         5.98433 
        2.07396         38.5276         5.94227 
        2.08009         38.3288         5.90068 
        2.08622         38.1148         5.85955 
        2.09237         37.9991         5.81872 
        2.09851         37.7447         5.77829 
        2.10464         37.5758          5.7383 
        2.11077         37.5424         5.69875 
        2.11691         37.3234         5.65948 
        2.12305         37.1611         5.62059 
        2.12918         36.9827         5.58215 
        2.13531         36.8569         5.54408 
        2.14145         36.6966         5.50627 
         2.1476         36.4798         5.46878 
        2.15372         36.3632         5.43182 
        2.15985         36.2299         5.39518 
        2.16599         36.0335         5.35876 
        2.17213         35.9403         5.32273 
        2.17827          35.718         5.28704 
         2.1844         35.5998          5.2517 
        2.19054         35.4972         5.21669 
        2.19666         35.2692         5.18204 
         2.2028         35.1956         5.14768 
        2.20893         34.9742         5.11361 
        2.21508         34.8734         5.07982 
        2.22122         34.7091         5.04632 
        2.22736          34.548          5.0132 
        2.23349         34.3761         4.98038 
        2.23962         34.3289         4.94785 
        2.24577         34.1396         4.91557 
         2.2519         34.0048         4.88363 
        2.25802          33.817         4.85203 
        2.26417         33.6539         4.82062 
        2.27031         33.5978         4.78946 
        2.27644         33.5043         4.75867 
        2.28257         33.3143         4.72815 
        2.28872         33.1861         4.69785 
        2.29486         33.0094         4.66782 
        2.30099         32.8376         4.63811 
        2.30712         32.7869         4.60865 
        2.31326           32.59          4.5794 
         2.3194         32.5034         4.55042 
        2.32553         32.3369         4.52174 
        2.33166         32.1801         4.49333 
         2.3378         32.1444         4.46512 
        2.34394         31.9422         4.43714 
        2.35007          31.861         4.40945 
        2.35619         31.6754         4.38203 
        2.36233         31.5587         4.35477 
        2.36848         31.4116          4.3277 
        2.37462         31.3098         4.30091 
        2.38075         31.1461         4.27438 
        2.38689         31.0182         4.24805 
        2.39303         30.9846         4.22194 
        2.39916         30.7611         4.19609 
        2.40529         30.5829         4.17045 
        2.41143         30.5603         4.14501 
        2.41757         30.3538         4.11978 
         2.4237         30.2526          4.0948 
        2.42983         30.1548         4.07003 
        2.43598         30.0368          4.0454 
        2.44211         29.9205         4.02102 
        2.44823          29.767          3.9969 
        2.45437         29.6918          3.9729 
        2.46052         29.5294         3.94909 
        2.46665         29.4336         3.92551 
        2.47279         29.2519         3.90214 
        2.47892         29.1863         3.87894 
        2.48507         29.0607         3.85591 
         2.4912         28.9723         3.83311 
