# k  (h/Mpc)    P(k)  (Mpc/h)^3    P_linear(k)  (Mpc/h)^3
     0.00783031         7499.28         7556.55 
       0.013688         9599.55         9813.88 
       0.019231         10209.8         10339.8 
      0.0249154         9922.62         9930.52 
      0.0312784         8869.16         8954.19 
      0.0375637         7781.14         7905.69 
      0.0433917         7028.15         7074.78 
      0.0492413            6345         6437.66 
      0.0555754         5886.61         5937.15 
      0.0619321          5361.8         5548.61 
       0.067871         5095.57         5209.78 
      0.0738098         4763.31          4845.4 
      0.0800417         4361.71          4423.7 
      0.0862327         3918.55         3988.13 
      0.0921407         3542.83         3593.94 
      0.0982031         3235.82         3244.49 
       0.104506         2917.05         2958.45 
       0.110769         2720.45         2749.76 
       0.116806         2614.89         2602.12 
       0.122832         2462.98          2482.7 
       0.129052         2349.02         2364.42 
       0.135211         2257.86         2236.01 
       0.141259         2095.54         2094.75 
       0.147318         1929.63         1944.34 
       0.153489         1809.85         1794.05 
       0.159709         1717.53         1657.93 
       0.165845         1571.73          1546.4 
       0.171974         1532.76         1458.95 
       0.178125         1476.88         1391.09 
       0.184229         1378.35         1336.06 
        0.19034          1352.1         1285.25 
       0.196428         1308.52          1232.7 
       0.202534         1224.91         1175.13 
       0.208729         1196.27         1112.39 
       0.214876         1144.55         1049.03 
       0.220989         1071.62         989.017 
       0.227147          1045.8         934.984 
        0.23329         1006.28         889.136 
       0.239377         989.916         851.366 
       0.245482          942.43         819.394 
       0.251667         907.589         790.495 
       0.257832         897.964         762.698 
       0.263955         851.719         734.465 
       0.270079         824.879         705.032 
        0.27624         789.639          674.69 
       0.282372         773.683          644.89 
        0.28843         766.539         617.007 
       0.294538         728.215         591.392 
       0.300721         707.107          568.35 
        0.30691         695.748         547.996 
       0.313033         667.115         529.875 
       0.319153         656.976         512.984 
       0.325316          644.96         496.465 
        0.33145         631.323         480.089 
       0.337538         609.262         463.753 
       0.343633         591.713         447.515 
       0.349808         577.497         431.493 
       0.355968         566.649         416.309 
       0.362074         549.998         402.274 
       0.368217         545.864          389.26 
       0.374374         535.661         377.233 
       0.380519         515.135         366.025 
       0.386598         509.193          355.49 
       0.392688         498.663         345.265 
        0.39888         485.553          335.07 
       0.405048         477.773         325.096 
       0.411186          475.11         315.375 
       0.417313         468.577          305.98 
       0.423458         455.012         296.963 
       0.429607         444.084         288.393 
       0.435692         436.775         280.386 
       0.441815         430.014         272.768 
       0.447964         420.491         265.484 
       0.454126          415.17         258.481 
       0.460267         409.004         251.737 
       0.466387         402.429         245.197 
        0.47254         396.876         238.784 
       0.478662         387.317         232.585 
       0.484765         383.367         226.604 
       0.490885         379.317          220.82 
       0.497035         372.868         215.237 
       0.503198         371.139         209.882 
       0.509342         361.632         204.766 
       0.515458         356.933         199.866 
       0.521598         350.407         195.117 
       0.527764         345.817           190.5 
       0.533884         344.976         186.055 
           0.54         338.937         181.739 
       0.546137         331.648         177.528 
       0.552299         330.804         173.429 
       0.558452         325.446         169.469 
       0.564573         322.419         165.664 
       0.570708         317.543         161.978 
       0.576825         312.276         158.425 
       0.582926         309.433         154.995 
       0.589034         305.477         151.668 
       0.595184         303.566         148.419 
       0.601379         298.045         145.242 
       0.607522         293.018         142.179 
       0.613639         291.237         139.214 
       0.619772         289.487         136.323 
       0.625918         285.863          133.51 
       0.632068         280.968         130.779 
       0.638161         278.474         128.153 
         0.6443         276.808         125.584 
       0.650464         272.227          123.08 
       0.656582         270.047         120.662 
       0.662703         268.148          118.31 
       0.668861         263.515         116.006 
       0.675024         262.708         113.763 
       0.681124         259.478         111.602 
       0.687237         256.797         109.493 
       0.693381         254.443          107.43 
       0.699536         251.622         105.418 
       0.705665         248.985         103.467 
       0.711789          246.86         101.567 
       0.717957         244.086         99.7039 
        0.72409         241.962         97.8983 
       0.730186         242.541          96.149 
       0.736317         238.322         94.4337 
       0.742472         235.315         92.7546 
       0.748622         232.195         91.1185 
        0.75476         232.902          89.526 
       0.760888         230.058         87.9746 
       0.767043         227.094         86.4543 
       0.773185         225.498         84.9736 
       0.779291         222.361         83.5366 
       0.785407         221.402         82.1312 
       0.791564          219.33         80.7497 
       0.797719         216.279         79.4012 
       0.803834         217.126         78.0924 
       0.809972         215.178         76.8089 
       0.816124         212.201         75.5518 
       0.822261          210.17         74.3267 
       0.828378         210.252         73.1327 
       0.834502         206.725         71.9644 
       0.840667         206.388         70.8144 
       0.846816         203.834         69.6932 
       0.852925         202.434         68.6036 
       0.859047         200.399         67.5354 
       0.865192         199.968         66.4868 
       0.871341          197.32           65.46 
       0.877463         195.794         64.4599 
       0.883569         195.602         63.4835 
       0.889708         193.934         62.5226 
       0.895864         192.122         61.5794 
       0.902008         190.354          60.658 
       0.908149           188.4         59.7562 
       0.914301         188.184         58.8715 
       0.920448         187.103         58.0057 
       0.926574         184.689         57.1607 
       0.932687         184.094         56.3345 
       0.938823         182.702         55.5219 
       0.944975         181.012         54.7237 
       0.951105         179.627         53.9442 
       0.957225         179.051         53.1815 
       0.963368         177.404         52.4311 
       0.969511         175.472         51.6954 
       0.975621         174.385         50.9779 
       0.981748         173.092         50.2724 
       0.987916         172.336         49.5759 
        0.99406         171.175         48.8954 
        1.00019         169.945         48.2292 
        1.00632         169.187         47.5762 
        1.01246         167.834         46.9344 
        1.01859         166.509         46.3057 
        1.02471         165.282         45.6894 
        1.03085          164.22         45.0823 
        1.03698         162.992         44.4877 
        1.04314         162.434         43.9014 
        1.04929         161.677         43.3271 
        1.05541         160.464         42.7655 
        1.06154         159.416         42.2127 
        1.06769          157.98         41.6688 
        1.07382         157.253         41.1365 
        1.07993         156.248         40.6148 
        1.08607         154.956            40.1 
        1.09222         154.337         39.5938 
        1.09836          153.05         39.0971 
        1.10449         151.904         38.6095 
        1.11063         151.049         38.1298 
        1.11677         150.323         37.6585 
         1.1229         149.094          37.196 
        1.12903         148.573         36.7411 
        1.13518         147.546         36.2934 
        1.14131         146.656         35.8536 
        1.14745         145.597         35.4213 
        1.15359         144.157         34.9962 
        1.15973         143.769          34.578 
        1.16584         142.965         34.1686 
        1.17197         142.178         33.7653 
        1.17811         140.951         33.3673 
        1.18424         140.227          32.977 
        1.19038         139.648         32.5919 
        1.19652         138.505         32.2131 
        1.20267         137.703         31.8404 
        1.20881          136.83         31.4738 
        1.21495         136.435         31.1135 
        1.22108         135.346         30.7591 
         1.2272         134.353          30.411 
        1.23334         133.986         30.0676 
        1.23949         133.365         29.7287 
        1.24562         132.209         29.3961 
        1.25174         131.154         29.0691 
        1.25789         130.855         28.7461 
        1.26402          130.15         28.4287 
        1.27014         129.353         28.1168 
        1.27628         127.906         27.8088 
        1.28244         127.795         27.5048 
        1.28858         126.735         27.2058 
        1.29471             126          26.912 
        1.30084         125.301         26.6228 
        1.30697         124.962         26.3374 
        1.31312         124.003         26.0559 
        1.31925         123.086         25.7794 
        1.32537         122.637         25.5073 
        1.33151         122.217         25.2381 
        1.33765          120.92         24.9731 
        1.34378         120.904         24.7124 
        1.34992         120.314         24.4552 
        1.35606         119.325         24.2012 
         1.3622         119.075         23.9513 
        1.36833         117.724         23.7056 
        1.37445         117.366         23.4635 
        1.38059         116.849          23.224 
        1.38675         115.927         22.9874 
        1.39288         115.425          22.755 
        1.39901         114.399          22.526 
        1.40515         114.217         22.2996 
         1.4113         113.577         22.0765 
        1.41742         112.731         21.8573 
        1.42355         112.319         21.6407 
         1.4297         111.552         21.4264 
        1.43585         110.785         21.2152 
        1.44198         110.195         21.0076 
        1.44809         109.463         20.8032 
        1.45423         109.087         20.6008 
        1.46036         108.243         20.4015 
        1.46649         107.666         20.2047 
        1.47263         107.359         20.0104 
        1.47877         106.611         19.8188 
        1.48491         105.953         19.6294 
        1.49104         104.984          19.443 
        1.49718          104.98         19.2588 
        1.50333         104.322         19.0767 
        1.50947         103.931         18.8974 
         1.5156         103.336         18.7206 
        1.52172         102.602         18.5462 
        1.52787          101.98         18.3736 
          1.534          101.64         18.2035 
        1.54013         101.156         18.0357 
        1.54627         100.285         17.8697 
        1.55241         99.8245         17.7059 
        1.55855         99.3611         17.5443 
        1.56467         98.4594         17.3852 
         1.5708         98.2272         17.2276 
        1.57695         97.8145         17.0718 
        1.58308          97.237         16.9183 
        1.58922         96.9398         16.7666 
        1.59535         96.4244         16.6168 
         1.6015          95.881         16.4686 
        1.60764         95.2545         16.3224 
        1.61376         94.6611         16.1783 
        1.61989         94.0623         16.0359 
        1.62604         93.6983         15.8949 
        1.63218         93.3927         15.7556 
        1.63831         92.6902         15.6184 
        1.64444         92.3041         15.4828 
        1.65059         91.7482         15.3485 
        1.65673         91.1371         15.2159 
        1.66285         90.6012         15.0853 
        1.66898         90.1049         14.9562 
        1.67512         89.8315         14.8284 
        1.68127         89.3674         14.7019 
         1.6874         88.8118         14.5772 
        1.69353         88.2915         14.4541 
        1.69967         88.0494         14.3321 
        1.70581         87.5426         14.2115 
        1.71193         87.0174         14.0929 
        1.71806         86.3656         13.9753 
        1.72421         86.0886         13.8588 
        1.73035         85.8786         13.7439 
        1.73649         85.2182         13.6302 
        1.74262         84.5572          13.518 
        1.74876         84.2818         13.4069 
        1.75489         83.6709         13.2973 
        1.76101         83.2434          13.189 
        1.76715         83.0119         13.0818 
        1.77329         82.4299         12.9756 
        1.77943         82.1424         12.8706 
        1.78557         81.8053         12.7669 
        1.79171          81.285         12.6644 
        1.79785         80.7873         12.5629 
        1.80399          80.426         12.4626 
        1.81012         79.9267         12.3635 
        1.81625         79.7017         12.2656 
        1.82239         79.3817         12.1686 
        1.82853         78.7052         12.0727 
        1.83466         78.3666         11.9779 
        1.84078         77.9988         11.8843 
        1.84692         77.7248         11.7915 
        1.85306         77.2653         11.6995 
         1.8592         76.9067         11.6088 
        1.86533         76.4374          11.519 
        1.87147         75.9896         11.4301 
        1.87761         75.5452         11.3421 
        1.88375         75.1075         11.2551 
        1.88988         74.7746         11.1692 
        1.89601         74.3746         11.0841 
        1.90215         73.9512         10.9998 
        1.90829         73.7081         10.9165 
        1.91442         73.3174          10.834 
        1.92056         72.9453         10.7525 
         1.9267         72.5678         10.6717 
        1.93284         72.3241         10.5917 
        1.93897         71.9592         10.5127 
        1.94509         71.4766         10.4346 
        1.95123         71.1823         10.3572 
        1.95737         70.6639         10.2805 
        1.96349         70.4081         10.2048 
        1.96964          70.026         10.1296 
        1.97578         69.5965         10.0552 
        1.98192         69.2977         9.98163 
        1.98805         68.8843         9.90882 
        1.99419         68.5267         9.83674 
        2.00033         68.1619         9.76535 
        2.00647         67.9272         9.69469 
         2.0126         67.5179         9.62485 
        2.01874         67.2999          9.5556 
        2.02488         66.9453         9.48698 
        2.03101         66.5749         9.41916 
        2.03714          66.394         9.35207 
        2.04328         65.9263         9.28557 
        2.04941         65.4232         9.21977 
        2.05554         65.3465         9.15466 
        2.06167         65.1147          9.0901 
        2.06781         64.4926         9.02615 
        2.07396         64.2316         8.96273 
        2.08009         64.0217         8.90004 
        2.08622         63.6191         8.83802 
        2.09237         63.2592         8.77647 
        2.09851         62.9121         8.71551 
        2.10464         62.6763         8.65523 
        2.11077         62.4009         8.59559 
        2.11691         62.0403         8.53639 
        2.12305         61.6683         8.47775 
        2.12918         61.3698          8.4198 
        2.13531         61.1418          8.3624 
        2.14145         60.7181          8.3054 
         2.1476         60.5133         8.24886 
        2.15372         60.2696         8.19315 
        2.15985         59.8598         8.13789 
        2.16599         59.5471         8.08299 
        2.17213         59.3151         8.02866 
        2.17827         58.9946         7.97484 
         2.1844         58.7205         7.92157 
        2.19054         58.4252         7.86878 
        2.19666         58.0502         7.81654 
         2.2028         57.8672         7.76473 
        2.20893         57.4782         7.71337 
        2.21508         57.1805         7.66242 
        2.22122         56.9164         7.61192 
        2.22736         56.5971         7.56198 
        2.23349         56.4484          7.5125 
        2.23962         56.1307         7.46344 
        2.24577         55.8541         7.41478 
         2.2519         55.5634         7.36663 
        2.25802         55.3077         7.31898 
        2.26417         55.0132         7.27162 
        2.27031         54.7202         7.22465 
        2.27644         54.5145         7.17822 
        2.28257         54.1786         7.13221 
        2.28872         54.0812         7.08652 
        2.29486         53.7589         7.04124 
        2.30099         53.3496         6.99645 
        2.30712         53.2097         6.95203 
        2.31326         52.9017         6.90793 
         2.3194         52.5995         6.86423 
        2.32553         52.5068         6.82099 
        2.33166         52.0369         6.77815 
         2.3378          51.804         6.73561 
        2.34394         51.5607         6.69343 
        2.35007         51.3031         6.65168 
        2.35619          51.173         6.61033 
        2.36233         50.7542         6.56924 
        2.36848         50.5712         6.52841 
        2.37462         50.3052         6.48802 
        2.38075         50.1386         6.44802 
        2.38689         49.9117         6.40832 
        2.39303         49.6998         6.36896 
        2.39916         49.4611         6.32998 
        2.40529          49.158         6.29133 
        2.41143         48.9083         6.25297 
        2.41757          48.684         6.21492 
         2.4237         48.5381         6.17726 
        2.42983         48.1731         6.13992 
        2.43598         47.9055         6.10278 
        2.44211          47.772         6.06602 
        2.44823         47.5143         6.02965 
        2.45437         47.2855         5.99347 
        2.46052         46.9774         5.95756 
        2.46665         46.7931         5.92202 
        2.47279         46.5857         5.88677 
        2.47892         46.3368         5.85179 
        2.48507         46.1845         5.81707 
         2.4912         45.8724          5.7827 
