# k  (h/Mpc)    P(k)  (Mpc/h)^3    P_linear(k)  (Mpc/h)^3
     0.00783031         16432.6         16556.1 
       0.013688         20858.2         21517.1 
       0.019231         22221.1         22671.6 
      0.0249154           21692         21773.8 
      0.0312784         19257.7         19632.4 
      0.0375637         16828.8           17333 
      0.0433917         15231.7         15510.8 
      0.0492413         13707.4         14113.7 
      0.0555754         12697.6         13016.1 
      0.0619321         11452.1         12164.2 
       0.067871         10899.1         11421.2 
      0.0738098         10235.7         10622.3 
      0.0800417         9352.56         9697.75 
      0.0862327         8414.22          8742.8 
      0.0921407         7645.56         7878.61 
      0.0982031         7026.58         7112.51 
       0.104506          6332.3         6485.44 
       0.110769            5917         6027.93 
       0.116806         5693.75         5704.24 
       0.122832         5376.41         5442.44 
       0.129052         5088.15         5183.15 
       0.135211         4937.29         4901.64 
       0.141259         4571.81         4591.97 
       0.147318         4242.36         4262.24 
       0.153489         4008.38         3932.78 
       0.159709         3864.89         3634.37 
       0.165845         3547.98         3389.88 
       0.171974         3458.34         3198.18 
       0.178125         3370.86         3049.42 
       0.184229         3114.23         2928.78 
        0.19034         3080.82          2817.4 
       0.196428         3001.39          2702.2 
       0.202534         2838.33            2576 
       0.208729         2773.57         2438.46 
       0.214876         2656.75         2299.57 
       0.220989         2544.63         2168.02 
       0.227147         2476.18         2049.57 
        0.23329         2382.57         1949.07 
       0.239377         2376.64         1866.27 
       0.245482         2277.82         1796.19 
       0.251667         2196.57         1732.84 
       0.257832         2160.95          1671.9 
       0.263955         2076.33         1610.01 
       0.270079         2035.24         1545.49 
        0.27624         1951.17         1478.98 
       0.282372         1937.93         1413.65 
        0.28843         1893.53         1352.53 
       0.294538         1821.32         1296.38 
       0.300721         1796.03         1245.87 
        0.30691         1746.21         1201.25 
       0.313033         1691.73         1161.53 
       0.319153            1679          1124.5 
       0.325316         1657.65         1088.29 
        0.33145         1623.27         1052.39 
       0.337538         1578.06         1016.58 
       0.343633         1545.67         980.989 
       0.349808         1524.83         945.866 
       0.355968         1490.36         912.581 
       0.362074         1457.58         881.816 
       0.368217         1452.03         853.288 
       0.374374         1427.45         826.924 
       0.380519         1385.53         802.355 
       0.386598         1384.26         779.262 
       0.392688         1346.94         756.847 
        0.39888         1328.44         734.499 
       0.405048         1302.18         712.635 
       0.411186         1293.64         691.326 
       0.417313         1291.36         670.731 
       0.423458         1254.25         650.965 
       0.429607         1225.03          632.18 
       0.435692         1216.49         614.627 
       0.441815         1193.28         597.927 
       0.447964         1186.09         581.961 
       0.454126         1169.79          566.61 
       0.460267         1157.39         551.825 
       0.466387         1139.18         537.489 
        0.47254         1119.63         523.432 
       0.478662         1108.66         509.844 
       0.484765         1098.04         496.732 
       0.490885         1085.67         484.053 
       0.497035         1067.22         471.814 
       0.503198         1067.11         460.077 
       0.509342         1046.55         448.861 
       0.515458         1026.93         438.121 
       0.521598         1030.83          427.71 
       0.527764         1005.03         417.589 
       0.533884         994.102         407.846 
           0.54         988.718         398.384 
       0.546137         977.837         389.155 
       0.552299         967.964         380.168 
       0.558452         960.432         371.488 
       0.564573         956.733         363.146 
       0.570708         944.209         355.067 
       0.576825         926.609         347.278 
       0.582926         924.093          339.76 
       0.589034         915.756         332.466 
       0.595184          903.17         325.344 
       0.601379          889.78          318.38 
       0.607522         880.437         311.667 
       0.613639         878.484         305.166 
       0.619772         867.637          298.83 
       0.625918         861.171         292.664 
       0.632068         853.818         286.676 
       0.638161         841.155          280.92 
         0.6443         834.473          275.29 
       0.650464         828.995         269.799 
       0.656582         823.425           264.5 
       0.662703         811.325         259.343 
       0.668861          803.71         254.294 
       0.675024         798.983         249.376 
       0.681124         785.357         244.639 
       0.687237         785.901         240.017 
       0.693381         770.883         235.494 
       0.699536         774.532         231.083 
       0.705665         762.585         226.806 
       0.711789         759.462         222.643 
       0.717957         751.771         218.558 
        0.72409         745.181           214.6 
       0.730186         741.631         210.765 
       0.736317         733.643         207.005 
       0.742472         723.817         203.324 
       0.748622         722.786         199.738 
        0.75476         711.593         196.247 
       0.760888         709.087         192.846 
       0.767043         706.178         189.514 
       0.773185         700.532         186.268 
       0.779291          692.72         183.118 
       0.785407         686.885         180.037 
       0.791564         683.082         177.009 
       0.797719          672.12         174.053 
       0.803834         672.399         171.184 
       0.809972         663.589          168.37 
       0.816124         659.884         165.615 
       0.822261         654.889         162.929 
       0.828378         653.302         160.312 
       0.834502         642.716         157.751 
       0.840667         640.254          155.23 
       0.846816         636.496         152.772 
       0.852925         632.002         150.384 
       0.859047          625.73         148.042 
       0.865192         622.078         145.743 
       0.871341         616.389         143.493 
       0.877463         615.206           141.3 
       0.883569         608.945          139.16 
       0.889708         601.399         137.054 
       0.895864         596.304         134.986 
       0.902008         594.868         132.966 
       0.908149          588.92         130.989 
       0.914301         586.175          129.05 
       0.920448         579.931         127.152 
       0.926574         576.483           125.3 
       0.932687         573.383         123.489 
       0.938823         567.607         121.708 
       0.944975         564.187         119.958 
       0.951105         560.617         118.249 
       0.957225         553.383         116.577 
       0.963368         553.401         114.932 
       0.969511         547.359          113.32 
       0.975621         543.484         111.747 
       0.981748          539.93           110.2 
       0.987916         536.842         108.674 
        0.99406         531.833         107.182 
        1.00019         527.104         105.722 
        1.00632         523.389          104.29 
        1.01246         519.815         102.883 
        1.01859         516.277         101.505 
        1.02471         514.589         100.154 
        1.03085         508.839         98.8234 
        1.03698         507.384         97.5199 
        1.04314         501.562         96.2347 
        1.04929         500.362         94.9758 
        1.05541         493.778         93.7449 
        1.06154          491.78         92.5329 
        1.06769         488.043         91.3408 
        1.07382         483.224         90.1739 
        1.07993          483.44         89.0302 
        1.08607         479.462         87.9019 
        1.09222         475.126         86.7923 
        1.09836         470.825         85.7033 
        1.10449         466.432         84.6345 
        1.11063         464.931         83.5829 
        1.11677         460.549         82.5498 
         1.1229         457.693         81.5362 
        1.12903         453.296         80.5388 
        1.13518          453.09         79.5576 
        1.14131         449.226         78.5934 
        1.14745         444.693         77.6459 
        1.15359         441.911          76.714 
        1.15973         439.544         75.7973 
        1.16584          437.51         74.8998 
        1.17197          433.93         74.0157 
        1.17811         428.737         73.1433 
        1.18424         427.517         72.2877 
        1.19038         424.826         71.4435 
        1.19652         420.314         70.6132 
        1.20267         418.295         69.7963 
        1.20881         415.982         68.9925 
        1.21495         410.942         68.2029 
        1.22108         411.628         67.4259 
         1.2272         405.779         66.6629 
        1.23334         404.302         65.9101 
        1.23949         400.488         65.1673 
        1.24562         399.486         64.4381 
        1.25174         396.312         63.7213 
        1.25789         393.132         63.0133 
        1.26402           390.8         62.3175 
        1.27014         388.469         61.6339 
        1.27628         385.041         60.9587 
        1.28244         382.446         60.2923 
        1.28858         380.245         59.6369 
        1.29471         378.678         58.9928 
        1.30084          376.12         58.3589 
        1.30697         372.395         57.7334 
        1.31312         370.142         57.1163 
        1.31925         367.782         56.5102 
        1.32537         366.154         55.9136 
        1.33151         362.203         55.3236 
        1.33765         359.602         54.7426 
        1.34378         358.142         54.1711 
        1.34992         354.808         53.6074 
        1.35606         352.538         53.0507 
         1.3622         350.408         52.5029 
        1.36833         349.345         51.9642 
        1.37445         347.082         51.4335 
        1.38059         343.227         50.9086 
        1.38675         341.365         50.3899 
        1.39288         339.364         49.8805 
        1.39901         336.902         49.3784 
        1.40515         335.393         48.8822 
         1.4113         332.971         48.3931 
        1.41742          330.43         47.9127 
        1.42355         328.709         47.4379 
         1.4297         327.066         46.9681 
        1.43585         323.278          46.505 
        1.44198         322.342           46.05 
        1.44809         320.064         45.6019 
        1.45423         317.467         45.1582 
        1.46036         316.451         44.7213 
        1.46649         313.973           44.29 
        1.47263         311.011         43.8642 
        1.47877         310.094         43.4442 
        1.48491         306.938          43.029 
        1.49104         304.477         42.6202 
        1.49718         302.914         42.2165 
        1.50333         301.558         41.8173 
        1.50947         299.354         41.4242 
         1.5156         296.606         41.0368 
        1.52172         295.097         40.6544 
        1.52787         292.792         40.2762 
          1.534          292.14         39.9032 
        1.54013         289.391         39.5354 
        1.54627         287.491         39.1716 
        1.55241         286.439         38.8124 
        1.55855          283.57         38.4582 
        1.56467         281.779         38.1095 
         1.5708         280.304         37.7641 
        1.57695         278.963         37.4225 
        1.58308         277.491          37.086 
        1.58922         275.008         36.7534 
        1.59535         272.393         36.4251 
         1.6015         271.652         36.1003 
        1.60764         269.977         35.7797 
        1.61376         267.952         35.4639 
        1.61989         266.254         35.1517 
        1.62604         264.834         34.8426 
        1.63218         262.735         34.5374 
        1.63831         261.295         34.2366 
        1.64444         259.661         33.9393 
        1.65059         258.382         33.6449 
        1.65673          256.51         33.3543 
        1.66285         254.751          33.068 
        1.66898          253.02         32.7849 
        1.67512         250.927         32.5047 
        1.68127         249.499         32.2275 
         1.6874         247.864         31.9542 
        1.69353         247.539         31.6843 
        1.69967         245.378         31.4168 
        1.70581         243.016         31.1526 
        1.71193         242.298         30.8924 
        1.71806         240.314         30.6347 
        1.72421         239.035         30.3795 
        1.73035         237.269         30.1274 
        1.73649         235.972         29.8783 
        1.74262         234.539         29.6322 
        1.74876         232.623         29.3888 
        1.75489         231.758         29.1486 
        1.76101         229.922         28.9112 
        1.76715         228.511         28.6761 
        1.77329          226.78         28.4434 
        1.77943         225.386         28.2132 
        1.78557          224.38         27.9859 
        1.79171         222.968         27.7611 
        1.79785         220.938         27.5387 
        1.80399         220.264         27.3188 
        1.81012         218.782         27.1017 
        1.81625         217.502          26.887 
        1.82239         215.745         26.6743 
        1.82853         214.651         26.4641 
        1.83466         213.159         26.2563 
        1.84078         211.842          26.051 
        1.84692         210.745         25.8476 
        1.85306         209.259         25.6461 
         1.8592         208.283         25.4472 
        1.86533         206.532         25.2504 
        1.87147             206         25.0555 
        1.87761         204.225         24.8626 
        1.88375         203.018          24.672 
        1.88988         201.978         24.4836 
        1.89601          200.69         24.2971 
        1.90215         199.367         24.1124 
        1.90829         197.917         23.9297 
        1.91442         196.644         23.7489 
        1.92056         195.485         23.5701 
         1.9267         194.816          23.393 
        1.93284         193.342         23.2177 
        1.93897         191.923         23.0445 
        1.94509         190.839         22.8734 
        1.95123         189.835         22.7037 
        1.95737          188.79         22.5355 
        1.96349         187.238         22.3695 
        1.96964         186.217         22.2047 
        1.97578         185.171         22.0416 
        1.98192         184.626         21.8804 
        1.98805          183.37         21.7208 
        1.99419         181.956         21.5628 
        2.00033         181.329         21.4063 
        2.00647         179.592         21.2514 
         2.0126         178.766         21.0983 
        2.01874          177.57         20.9465 
        2.02488         176.323         20.7961 
        2.03101         175.346         20.6474 
        2.03714         174.827         20.5003 
        2.04328         173.553         20.3545 
        2.04941         172.509         20.2103 
        2.05554          171.54         20.0676 
        2.06167         170.219         19.9261 
        2.06781         169.579         19.7859 
        2.07396         167.936         19.6469 
        2.08009         167.374         19.5094 
        2.08622         166.602         19.3735 
        2.09237         165.135         19.2386 
        2.09851         164.436         19.1049 
        2.10464         163.649         18.9728 
        2.11077         162.611         18.8421 
        2.11691          161.52         18.7123 
        2.12305         160.601         18.5838 
        2.12918         159.517         18.4567 
        2.13531         158.749         18.3309 
        2.14145         157.709         18.2059 
         2.1476         156.561          18.082 
        2.15372         155.997         17.9599 
        2.15985          155.15         17.8388 
        2.16599         154.158         17.7184 
        2.17213         152.986         17.5993 
        2.17827         152.517         17.4814 
         2.1844         151.349         17.3646 
        2.19054         150.476         17.2488 
        2.19666         149.702         17.1343 
         2.2028          148.96         17.0208 
        2.20893         148.022         16.9082 
        2.21508         147.053         16.7965 
        2.22122         146.233         16.6858 
        2.22736         145.421         16.5763 
        2.23349          144.55         16.4679 
        2.23962         143.721         16.3603 
        2.24577         142.559         16.2537 
         2.2519         141.887         16.1481 
        2.25802         141.158         16.0437 
        2.26417         140.491         15.9399 
        2.27031         139.529         15.8369 
        2.27644         138.807         15.7351 
        2.28257         138.251         15.6343 
        2.28872         137.192         15.5341 
        2.29486         136.456         15.4348 
        2.30099         135.529         15.3367 
        2.30712         135.126         15.2393 
        2.31326         134.083         15.1426 
         2.3194         133.506         15.0468 
        2.32553         132.634          14.952 
        2.33166         132.023         14.8581 
         2.3378         131.029         14.7649 
        2.34394          130.36         14.6724 
        2.35007         129.434         14.5809 
        2.35619         128.782         14.4903 
        2.36233          128.53         14.4002 
        2.36848         127.643         14.3107 
        2.37462         126.802         14.2222 
        2.38075         126.081         14.1345 
        2.38689           125.1         14.0474 
        2.39303         124.867         13.9612 
        2.39916         124.157         13.8757 
        2.40529         123.192          13.791 
        2.41143         122.647         13.7069 
        2.41757         121.734         13.6235 
         2.4237         121.298         13.5409 
        2.42983         120.584         13.4591 
        2.43598         119.841         13.3777 
        2.44211         119.189         13.2971 
        2.44823         118.712         13.2174 
        2.45437         118.107         13.1381 
        2.46052          117.23         13.0593 
        2.46665         116.765         12.9814 
        2.47279         116.019         12.9042 
        2.47892         115.338         12.8275 
        2.48507         114.852         12.7514 
         2.4912          114.25          12.676 
