# k  (h/Mpc)    P(k)  (Mpc/h)^3    P_linear(k)  (Mpc/h)^3
     0.00783031         12624.4           12833 
       0.013688         16924.2         16820.3 
       0.019231         17877.2         17905.3 
      0.0249154         16941.8           17354 
      0.0312784         15499.6         15752.1 
      0.0375637         13830.3         13932.7 
      0.0433917           12110         12440.5 
      0.0492413         11086.5           11273 
      0.0555754         9932.05         10359.5 
      0.0619321         9573.64         9684.09 
       0.067871         8754.46         9135.16 
      0.0738098         8192.24         8564.04 
      0.0800417          7438.1         7892.58 
      0.0862327         6839.36         7167.58 
      0.0921407         6286.44         6475.89 
      0.0982031         5643.34         5829.41 
       0.104506         5277.13         5274.07 
       0.110769         4866.66          4856.6 
       0.116806         4561.67         4566.09 
       0.122832          4355.7         4351.17 
       0.129052         4070.47          4164.4 
       0.135211         3891.19         3975.88 
       0.141259         3747.95         3765.12 
       0.147318          3552.6         3525.74 
       0.153489         3269.64         3266.46 
       0.159709         3095.79         3011.86 
       0.165845          2979.3         2788.11 
       0.171974         2801.61         2604.37 
       0.178125         2663.84         2461.84 
       0.184229         2554.96         2354.69 
        0.19034         2422.77         2268.84 
       0.196428          2386.2         2190.52 
       0.202534         2303.83         2107.75 
       0.208729         2210.96         2013.35 
       0.214876         2123.44         1909.69 
       0.220989         2057.42         1802.09 
       0.227147         1966.98         1696.82 
        0.23329         1891.56         1601.88 
       0.239377         1866.21         1521.81 
       0.245482         1753.36         1456.06 
       0.251667         1746.11         1401.85 
       0.257832         1681.15         1355.71 
       0.263955         1629.16         1312.76 
       0.270079         1578.62         1268.78 
        0.27624         1563.54         1221.41 
       0.282372         1498.34         1171.23 
        0.28843         1493.81         1120.42 
       0.294538         1423.15         1070.38 
       0.300721         1416.52         1023.43 
        0.30691         1362.14         981.619 
       0.313033          1336.5          945.82 
       0.319153         1318.26         914.732 
       0.325316         1274.57         886.772 
        0.33145         1247.96         860.532 
       0.337538         1229.54          834.73 
       0.343633         1202.86         808.263 
       0.349808         1165.69         780.783 
       0.355968         1158.42         753.105 
       0.362074         1147.08          726.26 
       0.368217         1112.81         700.663 
       0.374374         1073.26         676.953 
       0.380519         1074.92          655.51 
       0.386598         1048.13          636.22 
       0.392688         1043.93         618.422 
        0.39888         1015.15         601.312 
       0.405048         1003.77         584.698 
       0.411186         989.681         568.302 
       0.417313         969.584         551.936 
       0.423458         954.848         535.607 
       0.429607         941.409         519.631 
       0.435692         923.889         504.426 
       0.441815          918.54          489.91 
       0.447964         898.406         476.274 
       0.454126         890.169         463.506 
       0.460267         871.197         451.518 
       0.466387         860.426         440.145 
        0.47254         853.878         429.108 
       0.478662         846.678         418.358 
       0.484765         825.438           407.8 
       0.490885         820.136         397.408 
       0.497035         802.745         387.203 
       0.503198          798.47         377.281 
       0.509342         789.161         367.767 
       0.515458         785.838         358.736 
       0.521598         768.165         350.105 
       0.527764         752.343          341.82 
       0.533884          752.87         333.922 
           0.54         744.505         326.303 
       0.546137          738.78         318.881 
       0.552299         728.885         311.608 
       0.558452         724.263         304.499 
       0.564573         713.692         297.595 
       0.570708         707.143          290.87 
       0.576825         687.844         284.385 
       0.582926         691.597         278.141 
       0.589034         685.192         272.107 
       0.595184         678.249         266.241 
       0.601379         669.734         260.539 
       0.607522         660.669         255.069 
       0.613639         661.968         249.784 
       0.619772         645.979         244.628 
       0.625918         642.713         239.584 
       0.632068          635.21         234.658 
       0.638161         633.166         229.904 
         0.6443         621.032         225.246 
       0.650464         619.695         220.709 
       0.656582         616.598         216.344 
       0.662703         612.597         212.107 
       0.668861         601.876         207.967 
       0.675024         597.435         203.939 
       0.681124         594.222         200.058 
       0.687237         589.181         196.269 
       0.693381         582.379         192.559 
       0.699536          572.76         188.938 
       0.705665         573.104         185.425 
       0.711789         568.485         182.005 
       0.717957         563.309         178.649 
        0.72409         560.243         175.396 
       0.730186         552.515         172.246 
       0.736317         549.264         169.157 
       0.742472         546.873         166.133 
       0.748622         540.701         163.188 
        0.75476         533.004         160.322 
       0.760888         528.311          157.53 
       0.767043         528.266         154.795 
       0.773185          522.54         152.132 
       0.779291         517.843         149.547 
       0.785407         513.491         147.019 
       0.791564         508.044         144.534 
       0.797719         505.684         142.109 
       0.803834         501.572         139.755 
       0.809972         498.744         137.446 
       0.816124         497.992         135.185 
       0.822261         490.326         132.981 
       0.828378         487.885         130.834 
       0.834502         483.024         128.733 
       0.840667          478.93         126.664 
       0.846816         476.757         124.648 
       0.852925         472.255         122.689 
       0.859047         472.059         120.768 
       0.865192         466.321         118.882 
       0.871341          462.36         117.036 
       0.877463         461.207         115.238 
       0.883569         456.651         113.483 
       0.889708         454.107         111.756 
       0.895864          450.86         110.061 
       0.902008         447.839         108.405 
       0.908149         443.603         106.784 
       0.914301         440.295         105.194 
       0.920448         437.682         103.639 
       0.926574         431.271          102.12 
       0.932687         431.539         100.636 
       0.938823         426.662         99.1761 
       0.944975         427.104         97.7421 
       0.951105         421.221         96.3419 
       0.957225         418.521         94.9717 
       0.963368         414.591         93.6238 
       0.969511         413.065         92.3023 
       0.975621         410.003         91.0136 
       0.981748         408.376         89.7465 
       0.987916         405.485         88.4957 
        0.99406         398.695         87.2737 
        1.00019         398.129         86.0774 
        1.00632         395.925         84.9047 
        1.01246         392.747         83.7524 
        1.01859         392.871         82.6235 
        1.02471          387.28          81.517 
        1.03085         385.312         80.4271 
        1.03698         384.058         79.3597 
        1.04314         380.338         78.3073 
        1.04929         376.272         77.2765 
        1.05541         376.679         76.2687 
        1.06154         371.215         75.2765 
        1.06769         369.126         74.3006 
        1.07382         367.236         73.3454 
        1.07993         364.912         72.4093 
        1.08607         363.787         71.4858 
        1.09222         360.421         70.5776 
        1.09836         358.066         69.6864 
        1.10449         354.487         68.8118 
        1.11063         351.235         67.9513 
        1.11677         351.405          67.106 
         1.1229         349.221         66.2767 
        1.12903         346.024         65.4608 
        1.13518           342.8         64.6581 
        1.14131         341.567         63.8694 
        1.14745         339.035         63.0944 
        1.15359         336.944         62.3322 
        1.15973         334.841         61.5825 
        1.16584         332.434         60.8485 
        1.17197         331.612         60.1255 
        1.17811         328.335         59.4122 
        1.18424         325.446         58.7126 
        1.19038         323.943         58.0223 
        1.19652          321.76         57.3435 
        1.20267         320.541         56.6756 
        1.20881          318.78         56.0186 
        1.21495         315.944         55.3731 
        1.22108         314.331          54.738 
         1.2272         312.001         54.1143 
        1.23334         309.889         53.4991 
        1.23949         308.372          52.892 
        1.24562         306.721          52.296 
        1.25174         303.809         51.7102 
        1.25789          301.38         51.1316 
        1.26402         299.808          50.563 
        1.27014         297.698         50.0045 
        1.27628         296.162         49.4528 
        1.28244         295.581         48.9085 
        1.28858         292.212         48.3731 
        1.29471         289.986          47.847 
        1.30084         288.899         47.3293 
        1.30697         286.824         46.8185 
        1.31312         284.102         46.3145 
        1.31925         283.875         45.8196 
        1.32537         282.461         45.3325 
        1.33151         279.322         44.8508 
        1.33765         277.507         44.3764 
        1.34378         276.445         43.9098 
        1.34992         274.572         43.4497 
        1.35606         273.681         42.9952 
         1.3622         271.556         42.5481 
        1.36833         269.358         42.1085 
        1.37445         268.065         41.6753 
        1.38059          265.44          41.247 
        1.38675         264.636         40.8237 
        1.39288         262.701          40.408 
        1.39901         261.891         39.9984 
        1.40515         259.822         39.5936 
         1.4113         258.391         39.1945 
        1.41742         256.529         38.8025 
        1.42355         254.624         38.4152 
         1.4297         253.068          38.032 
        1.43585         251.663         37.6543 
        1.44198         250.293         37.2831 
        1.44809         248.772         36.9177 
        1.45423         246.773         36.5558 
        1.46036         245.823         36.1995 
        1.46649          243.63         35.8478 
        1.47263         242.185         35.5006 
        1.47877         240.863         35.1581 
        1.48491         239.092         34.8196 
        1.49104         238.256         34.4864 
        1.49718         236.111         34.1573 
        1.50333         235.016         33.8319 
        1.50947         233.553         33.5115 
         1.5156         231.452         33.1958 
        1.52172         230.769         32.8841 
        1.52787         228.995         32.5759 
          1.534         228.076         32.2719 
        1.54013         225.886         31.9722 
        1.54627         225.236         31.6758 
        1.55241         223.495         31.3831 
        1.55855         222.109         31.0946 
        1.56467         220.658         30.8104 
         1.5708         220.386         30.5291 
        1.57695         218.104         30.2509 
        1.58308          217.07         29.9767 
        1.58922         214.714         29.7059 
        1.59535         213.469         29.4384 
         1.6015         213.168          29.174 
        1.60764         211.482         28.9129 
        1.61376         209.953         28.6557 
        1.61989         208.866         28.4015 
        1.62604         207.647         28.1499 
        1.63218         206.435         27.9014 
        1.63831         205.039         27.6565 
        1.64444         204.295         27.4145 
        1.65059         202.499         27.1749 
        1.65673         201.515         26.9383 
        1.66285         200.272         26.7053 
        1.66898         198.793         26.4749 
        1.67512         198.375         26.2469 
        1.68127         196.048         26.0213 
         1.6874         195.102         25.7989 
        1.69353         194.131         25.5792 
        1.69967         192.688         25.3616 
        1.70581         191.753         25.1467 
        1.71193         190.374          24.935 
        1.71806          189.77         24.7254 
        1.72421         188.126         24.5177 
        1.73035         187.464         24.3127 
        1.73649         186.269         24.1101 
        1.74262         185.014           23.91 
        1.74876         183.965          23.712 
        1.75489         182.572         23.5167 
        1.76101         181.524         23.3237 
        1.76715         180.792         23.1325 
        1.77329         179.812         22.9433 
        1.77943         178.758         22.7561 
        1.78557           177.6         22.5713 
        1.79171         176.459         22.3886 
        1.79785         175.125         22.2078 
        1.80399         174.271          22.029 
        1.81012         173.212         21.8525 
        1.81625         172.467          21.678 
        1.82239         171.143         21.5052 
        1.82853         170.606         21.3343 
        1.83466         169.223         21.1655 
        1.84078         168.529         20.9987 
        1.84692         166.831         20.8334 
        1.85306          166.56         20.6697 
         1.8592         165.243          20.508 
        1.86533         164.391         20.3482 
        1.87147          163.14         20.1899 
        1.87761         162.681         20.0332 
        1.88375         160.877         19.8783 
        1.88988         160.027         19.7253 
        1.89601         159.501         19.5738 
        1.90215         158.319         19.4238 
        1.90829         157.578         19.2754 
        1.91442         156.546         19.1286 
        1.92056          155.88         18.9834 
         1.9267         154.741         18.8396 
        1.93284          153.88         18.6973 
        1.93897         153.009         18.5566 
        1.94509         152.245         18.4177 
        1.95123         151.431         18.2799 
        1.95737         150.734         18.1435 
        1.96349         149.702         18.0087 
        1.96964         148.565          17.875 
        1.97578         147.723         17.7425 
        1.98192         146.935         17.6117 
        1.98805         145.908         17.4822 
        1.99419         145.133          17.354 
        2.00033         144.386          17.227 
        2.00647         143.716         17.1013 
         2.0126         142.359         16.9771 
        2.01874         142.053         16.8539 
        2.02488         141.272         16.7319 
        2.03101         139.994         16.6113 
        2.03714         139.392          16.492 
        2.04328         138.544         16.3738 
        2.04941         137.848         16.2568 
        2.05554         136.925          16.141 
        2.06167          136.55         16.0262 
        2.06781         135.639         15.9125 
        2.07396         134.582         15.7998 
        2.08009         134.126         15.6884 
        2.08622         133.123         15.5781 
        2.09237         132.316         15.4687 
        2.09851         131.657         15.3604 
        2.10464         131.217         15.2533 
        2.11077         130.317         15.1473 
        2.11691         129.615         15.0421 
        2.12305         128.464         14.9379 
        2.12918          127.95         14.8349 
        2.13531         127.421         14.7329 
        2.14145         126.372         14.6317 
         2.1476         125.538         14.5312 
        2.15372          125.24         14.4323 
        2.15985         124.823         14.3341 
        2.16599         123.589         14.2366 
        2.17213         123.007         14.1401 
        2.17827         122.383         14.0445 
         2.1844         121.597         13.9499 
        2.19054         121.037         13.8561 
        2.19666         120.271         13.7634 
         2.2028          119.52         13.6714 
        2.20893         119.057         13.5802 
        2.21508         118.276         13.4897 
        2.22122         117.613            13.4 
        2.22736         116.929         13.3114 
        2.23349         116.342         13.2235 
        2.23962         115.619         13.1364 
        2.24577         115.106           13.05 
         2.2519         114.524         12.9646 
        2.25802         113.672           12.88 
        2.26417         113.066         12.7959 
        2.27031         112.233         12.7126 
        2.27644         111.769         12.6302 
        2.28257         111.247         12.5485 
        2.28872         110.729         12.4674 
        2.29486         109.968         12.3871 
        2.30099         109.452         12.3076 
        2.30712         108.813         12.2288 
        2.31326         108.121         12.1506 
         2.3194         107.577         12.0731 
        2.32553         106.992         11.9963 
        2.33166         106.621         11.9203 
         2.3378         105.983         11.8449 
        2.34394         105.504         11.7701 
        2.35007         104.732          11.696 
        2.35619         104.132         11.6227 
        2.36233         103.639         11.5498 
        2.36848         103.013         11.4774 
        2.37462         102.664         11.4058 
        2.38075         102.034         11.3348 
        2.38689         101.362         11.2645 
        2.39303         100.723         11.1947 
        2.39916         100.321         11.1256 
        2.40529         99.9141          11.057 
        2.41143         99.3759          10.989 
        2.41757         98.7474         10.9216 
         2.4237         98.0759         10.8548 
        2.42983         97.4978         10.7886 
        2.43598         97.0138         10.7228 
        2.44211          96.703         10.6576 
        2.44823         96.2312         10.5932 
        2.45437         95.5676         10.5291 
        2.46052         94.9662         10.4654 
        2.46665         94.4596         10.4025 
        2.47279         94.0434           10.34 
        2.47892         93.5882          10.278 
        2.48507         92.9713         10.2165 
         2.4912         92.6076         10.1556 
