# k  (h/Mpc)    P(k)  (Mpc/h)^3    P_linear(k)  (Mpc/h)^3
     0.00783031         10103.5         10260.6 
       0.013688         13719.2         13647.3 
       0.019231         14731.2           14756 
      0.0249154         14224.4         14540.6 
      0.0312784         13225.9         13425.5 
      0.0375637         11936.2         12025.2 
      0.0433917           10532         10803.8 
      0.0492413         9643.73         9799.98 
      0.0555754         8641.62         8985.58 
      0.0619321         8296.22         8385.23 
       0.067871         7619.58         7925.71 
      0.0738098         7172.77          7480.1 
      0.0800417         6584.64         6971.34 
      0.0862327          6115.9          6412.2 
      0.0921407         5657.24         5854.03 
      0.0982031         5100.76         5300.61 
       0.104506         4752.47         4791.76 
       0.110769         4357.84         4381.87 
       0.116806          4049.5         4081.53 
       0.122832         3851.05         3859.61 
       0.129052         3598.56         3684.28 
       0.135211         3451.87         3532.55 
       0.141259         3340.91         3378.79 
       0.147318         3188.99         3205.39 
       0.153489         2956.97         3007.36 
       0.159709         2807.84         2796.21 
       0.165845         2694.63         2592.51 
       0.171974         2521.39         2408.89 
       0.178125         2386.58         2254.35 
       0.184229         2283.26         2132.97 
        0.19034         2151.08         2039.25 
       0.196428         2121.43          1964.9 
       0.202534         2055.28            1899 
       0.208729         1976.32         1831.51 
       0.214876         1898.06         1757.84 
       0.220989         1846.65         1676.47 
       0.227147         1760.57         1588.96 
        0.23329         1692.13         1501.28 
       0.239377         1665.26         1419.59 
       0.245482         1560.01         1347.02 
       0.251667         1550.22         1285.07 
       0.257832         1492.58         1234.44 
       0.263955         1446.72         1192.63 
       0.270079         1402.61         1155.75 
        0.27624         1391.38         1120.08 
       0.282372          1333.1         1083.31 
        0.28843         1324.43         1044.58 
       0.294538         1261.95          1003.3 
       0.300721         1257.76           960.7 
        0.30691         1205.83         919.149 
       0.313033         1183.58         880.935 
       0.319153         1162.73          846.74 
       0.325316         1124.84         816.668 
        0.33145         1100.11         790.579 
       0.337538         1086.17          767.44 
       0.343633         1059.21          745.76 
       0.349808         1026.69         724.218 
       0.355968         1021.46         702.322 
       0.362074         1008.82         680.073 
       0.368217         980.011         657.298 
       0.374374         943.455         634.688 
       0.380519         942.244         612.973 
       0.386598         920.822         592.834 
       0.392688         917.652         574.356 
        0.39888         891.212          557.24 
       0.405048         879.816         541.676 
       0.411186         866.681         527.245 
       0.417313         849.727         513.427 
       0.423458         837.327         499.833 
       0.429607         823.448         486.277 
       0.435692         807.413         472.833 
       0.441815          803.27         459.428 
       0.447964           785.8         446.264 
       0.454126         774.137         433.561 
       0.460267         760.234          421.57 
       0.466387         751.727         410.373 
        0.47254         741.618         399.805 
       0.478662         738.006         389.901 
       0.484765         719.033         380.506 
       0.490885         713.616         371.402 
       0.497035         699.067         362.438 
       0.503198           693.4         353.602 
       0.509342         686.138         344.938 
       0.515458         681.999         336.467 
       0.521598         667.691          328.18 
       0.527764         653.201         320.148 
       0.533884          653.48         312.523 
           0.54         645.124         305.247 
       0.546137         642.008         298.264 
       0.552299         631.544         291.547 
       0.558452         628.277         285.097 
       0.564573         618.299         278.877 
       0.570708         611.807         272.793 
       0.576825         596.418         266.847 
       0.582926         597.942         261.045 
       0.589034         592.377          255.38 
       0.595184         586.414         249.835 
       0.601379         579.681         244.421 
       0.607522         571.556         239.226 
       0.613639         571.857         234.229 
       0.619772         556.728         229.398 
       0.625918         555.253         224.724 
       0.632068         548.209         220.192 
       0.638161         546.277         215.827 
         0.6443          535.33         211.534 
       0.650464          533.56         207.322 
       0.656582         532.044         203.241 
       0.662703         527.653         199.262 
       0.668861         518.191         195.366 
       0.675024         514.602         191.577 
       0.681124         511.803         187.933 
       0.687237         506.984         184.383 
       0.693381         500.846         180.914 
       0.699536         493.928         177.532 
       0.705665         492.941         174.255 
       0.711789         488.388         171.067 
       0.717957         484.067         167.939 
        0.72409         480.545         164.906 
       0.730186         475.264         161.965 
       0.736317         471.542         159.077 
       0.742472         469.789         156.246 
       0.748622         464.367         153.486 
        0.75476         458.839         150.798 
       0.760888         453.908         148.178 
       0.767043         454.465         145.613 
       0.773185         448.293         143.116 
       0.779291         443.534         140.695 
       0.785407         440.641         138.329 
       0.791564         435.867         136.004 
       0.797719         433.512         133.735 
       0.803834         430.077         131.532 
       0.809972         427.466         129.371 
       0.816124         427.434         127.254 
       0.822261          420.22         125.189 
       0.828378         418.385         123.176 
       0.834502         414.932         121.206 
       0.840667         410.149         119.266 
       0.846816         408.682         117.374 
       0.852925         404.504         115.536 
       0.859047         404.203         113.734 
       0.865192         399.889         111.965 
       0.871341         396.563         110.233 
       0.877463         394.256         108.546 
       0.883569         391.199           106.9 
       0.889708         388.419          105.28 
       0.895864         384.277         103.689 
       0.902008         382.895         102.135 
       0.908149         380.325         100.614 
       0.914301         376.021          99.122 
       0.920448         373.224         97.6618 
       0.926574         369.501         96.2364 
       0.932687         369.794         94.8427 
       0.938823         364.937         93.4718 
       0.944975         364.743         92.1252 
       0.951105         360.612         90.8101 
       0.957225          357.85         89.5232 
       0.963368         354.101         88.2571 
       0.969511         352.225         87.0157 
       0.975621         349.518          85.805 
       0.981748         349.339         84.6145 
       0.987916         346.056         83.4393 
        0.99406         340.787          82.291 
        1.00019         340.862         81.1668 
        1.00632         338.456         80.0648 
        1.01246         335.398         78.9818 
        1.01859         335.595         77.9208 
        1.02471         331.033         76.8807 
        1.03085         328.314         75.8562 
        1.03698         327.493         74.8527 
        1.04314         324.412         73.8632 
        1.04929          321.65          72.894 
        1.05541         321.005         71.9463 
        1.06154         316.875         71.0133 
        1.06769         315.497         70.0955 
        1.07382         313.747         69.1971 
        1.07993         311.531         68.3166 
        1.08607         310.618         67.4479 
        1.09222         307.765         66.5936 
        1.09836         305.301         65.7552 
        1.10449         302.309         64.9323 
        1.11063          300.02         64.1227 
        1.11677          299.52         63.3273 
         1.1229         297.604         62.5469 
        1.12903         294.895          61.779 
        1.13518         292.755         61.0235 
        1.14131         291.091         60.2812 
        1.14745             290         59.5517 
        1.15359         287.248         58.8343 
        1.15973         286.169         58.1285 
        1.16584         283.362         57.4375 
        1.17197         282.818         56.7569 
        1.17811         280.126         56.0852 
        1.18424         278.109         55.4265 
        1.19038         276.809         54.7765 
        1.19652         274.631         54.1373 
        1.20267         273.879         53.5084 
        1.20881         271.763         52.8896 
        1.21495         269.387         52.2817 
        1.22108         268.245         51.6835 
         1.2272         266.316         51.0962 
        1.23334         264.429         50.5167 
        1.23949         263.181         49.9448 
        1.24562          261.52         49.3835 
        1.25174         258.629         48.8317 
        1.25789         257.083         48.2866 
        1.26402         256.057          47.751 
        1.27014         254.159         47.2248 
        1.27628         252.727          46.705 
        1.28244         251.962         46.1921 
        1.28858         249.504         45.6876 
        1.29471          247.18         45.1918 
        1.30084         246.205         44.7039 
        1.30697         244.475         44.2225 
        1.31312         242.578         43.7475 
        1.31925         242.442         43.2811 
        1.32537         240.842          42.822 
        1.33151         238.461         42.3679 
        1.33765         236.833         41.9207 
        1.34378          235.95         41.4809 
        1.34992         234.448         41.0472 
        1.35606         233.849         40.6187 
         1.3622         231.971         40.1972 
        1.36833          229.88         39.7827 
        1.37445         228.354         39.3743 
        1.38059         226.615         38.9704 
        1.38675         225.759         38.5712 
        1.39288         223.806         38.1793 
        1.39901         223.502          37.793 
        1.40515          221.66         37.4112 
         1.4113         219.909         37.0349 
        1.41742         219.103         36.6652 
        1.42355         216.788         36.2999 
         1.4297         215.858         35.9385 
        1.43585         214.258         35.5822 
        1.44198         213.073         35.2321 
        1.44809         212.225         34.8875 
        1.45423         210.205         34.5461 
        1.46036         209.685           34.21 
        1.46649         207.845         33.8783 
        1.47263         206.308         33.5507 
        1.47877         205.404         33.2276 
        1.48491         203.919         32.9083 
        1.49104         203.069         32.5939 
        1.49718          200.92         32.2833 
        1.50333         200.145         31.9764 
        1.50947         199.107         31.6741 
         1.5156          197.39         31.3761 
        1.52172         196.442          31.082 
        1.52787         194.996         30.7912 
          1.534         194.409         30.5044 
        1.54013         192.501         30.2215 
        1.54627         192.011         29.9418 
        1.55241         190.185         29.6656 
        1.55855         189.159         29.3933 
        1.56467         187.973         29.1251 
         1.5708         187.385         28.8596 
        1.57695         185.385          28.597 
        1.58308         184.988         28.3383 
        1.58922          183.31         28.0826 
        1.59535         182.046         27.8302 
         1.6015         181.603         27.5805 
        1.60764         180.061          27.334 
        1.61376         178.513         27.0913 
        1.61989         177.792         26.8513 
        1.62604         176.952         26.6137 
        1.63218         175.746         26.3791 
        1.63831         174.748          26.148 
        1.64444         173.722         25.9195 
        1.65059         172.382         25.6932 
        1.65673         171.527         25.4699 
        1.66285         170.614         25.2498 
        1.66898         169.565         25.0323 
        1.67512         168.887          24.817 
        1.68127         167.062          24.604 
         1.6874         165.947          24.394 
        1.69353         165.456         24.1866 
        1.69967         164.263         23.9811 
        1.70581         163.245         23.7781 
        1.71193         162.085         23.5782 
        1.71806         161.538         23.3802 
        1.72421          160.36         23.1841 
        1.73035         159.493         22.9905 
        1.73649         158.788         22.7991 
        1.74262         157.422         22.6101 
        1.74876         156.851         22.4231 
        1.75489         155.383         22.2386 
        1.76101         154.618         22.0563 
        1.76715         153.968         21.8758 
        1.77329         153.241          21.697 
        1.77943         151.973         21.5202 
        1.78557         151.115         21.3457 
        1.79171          150.14          21.173 
        1.79785         149.232         21.0023 
        1.80399          148.41         20.8334 
        1.81012          147.46         20.6667 
        1.81625         146.705         20.5018 
        1.82239         145.829         20.3386 
        1.82853         145.171         20.1771 
        1.83466          144.21         20.0176 
        1.84078          143.45           19.86 
        1.84692         142.251         19.7039 
        1.85306         141.776         19.5492 
         1.8592         140.506         19.3965 
        1.86533         139.725         19.2454 
        1.87147         138.901         19.0958 
        1.87761         138.506         18.9478 
        1.88375         136.892         18.8015 
        1.88988         136.372         18.6569 
        1.89601         135.401         18.5137 
        1.90215         134.687          18.372 
        1.90829         134.141         18.2318 
        1.91442         133.455          18.093 
        1.92056         132.551         17.9559 
         1.9267         131.801           17.82 
        1.93284         131.238         17.6854 
        1.93897         130.195         17.5525 
        1.94509         129.774         17.4213 
        1.95123         128.964         17.2911 
        1.95737         128.238         17.1621 
        1.96349         127.436         17.0347 
        1.96964         126.329         16.9083 
        1.97578         125.698         16.7831 
        1.98192          125.04         16.6595 
        1.98805         124.036         16.5371 
        1.99419         123.636         16.4159 
        2.00033         122.871         16.2959 
        2.00647         122.314         16.1771 
         2.0126         121.385         16.0597 
        2.01874         120.732         15.9433 
        2.02488         120.336         15.8279 
        2.03101          119.13         15.7139 
        2.03714         118.441         15.6011 
        2.04328         118.008         15.4894 
        2.04941         117.185         15.3788 
        2.05554          116.44         15.2694 
        2.06167         116.136         15.1608 
        2.06781         115.608         15.0534 
        2.07396         114.539         14.9468 
        2.08009         113.803         14.8415 
        2.08622         113.433         14.7373 
        2.09237         112.492         14.6338 
        2.09851         112.039         14.5314 
        2.10464         111.308         14.4301 
        2.11077         110.769         14.3299 
        2.11691         110.198         14.2305 
        2.12305         109.254          14.132 
        2.12918         108.762         14.0346 
        2.13531         108.161         13.9382 
        2.14145         107.448         13.8424 
         2.1476          106.94         13.7475 
        2.15372         106.369         13.6539 
        2.15985         105.892         13.5611 
        2.16599         105.229         13.4689 
        2.17213         104.369         13.3776 
        2.17827          104.18         13.2873 
         2.1844         103.376         13.1978 
        2.19054          102.89         13.1091 
        2.19666         102.361         13.0214 
         2.2028         101.759         12.9344 
        2.20893         100.994         12.8482 
        2.21508         100.349         12.7627 
        2.22122         99.9559         12.6779 
        2.22736         99.3369          12.594 
        2.23349         98.9745          12.511 
        2.23962         98.2845         12.4286 
        2.24577         97.8216         12.3469 
         2.2519         97.3431         12.2661 
        2.25802         96.4269         12.1861 
        2.26417         96.1425         12.1066 
        2.27031          95.535         12.0278 
        2.27644         95.0344         11.9499 
        2.28257         94.5668         11.8726 
        2.28872         93.9048          11.796 
        2.29486         93.5435           11.72 
        2.30099         92.9857         11.6448 
        2.30712         92.3124         11.5703 
        2.31326         91.9747         11.4963 
         2.3194         91.3321          11.423 
        2.32553         90.8659         11.3504 
        2.33166         90.3856         11.2785 
         2.3378         89.9145         11.2072 
        2.34394         89.5457         11.1364 
        2.35007         88.8839         11.0664 
        2.35619         88.3531          10.997 
        2.36233         87.9379         10.9281 
        2.36848         87.3782         10.8596 
        2.37462         86.9257         10.7919 
        2.38075         86.5658         10.7248 
        2.38689         85.8361         10.6582 
        2.39303         85.4029         10.5922 
        2.39916         84.9886         10.5268 
        2.40529         84.7649          10.462 
        2.41143         84.2635         10.3977 
        2.41757         83.5915         10.3339 
         2.4237         83.2809         10.2707 
        2.42983         82.8026         10.2081 
        2.43598         82.3208         10.1459 
        2.44211         81.9283         10.0842 
        2.44823         81.4648         10.0232 
        2.45437         80.9836          9.9626 
        2.46052         80.4322         9.90241 
        2.46665         80.0303         9.84282 
        2.47279         79.6336         9.78375 
        2.47892         79.2482         9.72512 
        2.48507         78.7782         9.66692 
         2.4912         78.3691         9.60931 
