# k  (h/Mpc)    P(k)  (Mpc/h)^3    P_linear(k)  (Mpc/h)^3
     0.00783031           26450         26548.6 
       0.013688         29552.9         30494.2 
       0.019231         28497.8         29038.2 
      0.0249154         25475.3         25340.4 
      0.0312784         20573.5         20790.6 
      0.0375637         16783.6         17096.8 
      0.0433917         14616.4         14686.5 
      0.0492413         12940.6         13098.3 
      0.0555754         11883.4         11951.8 
      0.0619321         10571.9         11006.1 
       0.067871         9828.91         10065.8 
      0.0738098         8950.48         9003.97 
      0.0800417         7864.04          7836.4 
      0.0862327         6817.31         6764.88 
      0.0921407         6097.56            5932 
      0.0982031         5573.22         5309.67 
       0.104506         5029.46         4882.46 
       0.110769         4760.44         4602.06 
       0.116806         4574.13         4381.49 
       0.122832         4304.07         4142.75 
       0.129052         3981.24         3844.83 
       0.135211         3802.06          3507.5 
       0.141259         3438.74         3170.78 
       0.147318          3159.9          2866.9 
       0.153489          2952.5         2617.87 
       0.159709         2849.34          2434.3 
       0.165845          2637.4         2306.81 
       0.171974         2571.19         2209.87 
       0.178125         2498.58         2119.23 
       0.184229         2292.42         2019.13 
        0.19034          2252.7          1903.3 
       0.196428         2171.42         1777.39 
       0.202534         2034.82          1651.6 
       0.208729         1982.57         1535.93 
       0.214876         1878.76         1440.07 
       0.220989         1800.68         1364.51 
       0.227147         1745.87         1304.36 
        0.23329         1678.14         1253.59 
       0.239377          1671.7         1205.65 
       0.245482          1593.4         1155.39 
       0.251667         1535.07         1100.83 
       0.257832         1500.83         1044.24 
       0.263955          1434.5         989.011 
       0.270079          1395.4         937.881 
        0.27624          1339.8         892.552 
       0.282372          1326.5         853.921 
        0.28843         1290.91         820.953 
       0.294538         1238.89          791.12 
       0.300721         1218.25         762.401 
        0.30691          1180.3         733.769 
       0.313033         1140.79         705.031 
       0.319153         1130.46         676.242 
       0.325316         1112.67         647.972 
        0.33145         1083.93         621.446 
       0.337538         1050.29         597.227 
       0.343633         1027.58         575.276 
       0.349808          1010.2         555.036 
       0.355968             988         536.356 
       0.362074         960.417         518.737 
       0.368217         953.834         501.485 
       0.374374         938.522         484.493 
       0.380519          907.71         467.831 
       0.386598         901.958         451.857 
       0.392688         878.018         436.566 
        0.39888         865.403         421.891 
       0.405048         844.546         408.235 
       0.411186          843.45         395.498 
       0.417313         831.552         383.487 
       0.423458         811.533         371.997 
       0.429607         791.553         360.903 
       0.435692         782.581         350.237 
       0.441815         767.665         339.821 
       0.447964         760.308         329.702 
       0.454126         748.993         319.944 
       0.460267         741.539         310.646 
       0.466387         724.508         301.829 
        0.47254          719.06         293.377 
       0.478662          705.02         285.338 
       0.484765         696.158         277.649 
       0.490885         691.838         270.222 
       0.497035          675.94         263.002 
       0.503198         674.663         255.993 
       0.509342         661.897         249.236 
       0.515458         650.723         242.747 
       0.521598         650.204         236.473 
       0.527764         635.081         230.408 
       0.533884         625.153         224.615 
           0.54         623.948         219.046 
       0.546137         614.249         213.659 
       0.552299         608.481         208.435 
       0.558452           601.1         203.389 
       0.564573          600.84         198.524 
       0.570708         590.793         193.801 
       0.576825         580.858         189.244 
       0.582926         578.589         184.847 
       0.589034         570.365          180.59 
       0.595184         564.046         176.444 
       0.601379         555.399         172.403 
       0.607522         548.294         168.523 
       0.613639          546.75         164.781 
       0.619772         541.311         161.144 
       0.625918         535.135         157.611 
       0.632068         532.561         154.182 
       0.638161         524.336         150.885 
         0.6443         519.053          147.66 
       0.650464         514.683         144.518 
       0.656582         510.077          141.49 
       0.662703         505.846         138.549 
       0.668861         499.269         135.677 
       0.675024         497.336         132.885 
       0.681124         486.364         130.201 
       0.687237         486.087         127.587 
       0.693381         479.763         125.033 
       0.699536         479.741         122.545 
       0.705665         471.876         120.135 
       0.711789         470.736         117.792 
       0.717957         465.059         115.496 
        0.72409         460.604         113.274 
       0.730186         460.451         111.125 
       0.736317         453.946          109.02 
       0.742472         449.286         106.962 
       0.748622         449.671         104.959 
        0.75476         439.916         103.013 
       0.760888         440.546         101.119 
       0.767043         437.116         99.2656 
       0.773185         432.929         97.4627 
       0.779291         429.029         95.7151 
       0.785407         426.106         94.0081 
       0.791564           424.3         92.3322 
       0.797719         417.632         90.6981 
       0.803834         416.683         89.1142 
       0.809972         411.402         87.5626 
       0.816124         409.063         86.0449 
       0.822261         405.992         84.5673 
       0.828378         404.277          83.129 
       0.834502         399.492         81.7232 
       0.840667         395.655         80.3409 
       0.846816         393.767         78.9946 
       0.852925         394.164         77.6879 
       0.859047         387.107         76.4081 
       0.865192         386.368         75.1531 
       0.871341         382.973         73.9256 
       0.877463         380.769         72.7312 
       0.883569         379.226         71.5664 
       0.889708         373.846         70.4212 
       0.895864         370.645         69.2983 
       0.902008         369.655         68.2024 
       0.908149         365.885         67.1309 
       0.914301         364.373         66.0809 
       0.920448         359.982         65.0544 
       0.926574         358.283         64.0534 
       0.932687         355.987         63.0757 
       0.938823         353.417          62.115 
       0.944975         352.455         61.1722 
       0.951105          349.93         60.2524 
       0.957225         345.975         59.3531 
       0.963368         345.233         58.4693 
       0.969511         342.105         57.6035 
       0.975621         339.154         56.7599 
       0.981748         337.771         55.9312 
       0.987916         335.382         55.1138 
        0.99406         332.133         54.3159 
        1.00019         328.852         53.5355 
        1.00632         327.942         52.7711 
        1.01246          325.38         52.0205 
        1.01859         323.763         51.2858 
        1.02471         322.136         50.5662 
        1.03085         319.967         49.8579 
        1.03698          316.63         49.1648 
        1.04314         315.365         48.4819 
        1.04929         314.147         47.8137 
        1.05541          312.08         47.1607 
        1.06154         308.066         46.5184 
        1.06769         306.724         45.8872 
        1.07382          304.66         45.2697 
        1.07993         304.582          44.665 
        1.08607         301.659          44.069 
        1.09222           299.7         43.4832 
        1.09836         297.892         42.9088 
        1.10449         295.771         42.3454 
        1.11063         294.389         41.7916 
        1.11677         291.908         41.2479 
         1.1229         290.286         40.7149 
        1.12903         287.988         40.1909 
        1.13518          286.58         39.6757 
        1.14131         284.209         39.1698 
        1.14745         282.608          38.673 
        1.15359           280.1         38.1849 
        1.15973         279.198         37.7049 
        1.16584         278.268         37.2354 
        1.17197         275.889         36.7732 
        1.17811         273.089         36.3175 
        1.18424         271.871         35.8709 
        1.19038         271.116         35.4305 
        1.19652         268.181         34.9976 
        1.20267         266.472         34.5721 
        1.20881         265.912         34.1537 
        1.21495         263.257         33.7429 
        1.22108         262.111         33.3389 
         1.2272         259.929         32.9425 
        1.23334         257.836         32.5517 
        1.23949         256.982         32.1662 
        1.24562         254.908         31.7881 
        1.25174         253.799         31.4167 
        1.25789         252.019           31.05 
        1.26402         250.533         30.6898 
        1.27014          249.29         30.3363 
        1.27628         247.426         29.9872 
        1.28244         245.308          29.643 
        1.28858         244.442         29.3047 
        1.29471          242.93         28.9724 
        1.30084         242.133         28.6456 
        1.30697         239.955         28.3233 
        1.31312         239.074         28.0055 
        1.31925         237.091         27.6936 
        1.32537         236.556         27.3868 
        1.33151         234.087         27.0835 
        1.33765         233.722         26.7851 
        1.34378         232.128         26.4917 
        1.34992         230.214         26.2025 
        1.35606         228.274          25.917 
         1.3622         226.961         25.6363 
        1.36833         226.337         25.3604 
        1.37445         225.349         25.0887 
        1.38059         223.045         24.8202 
        1.38675         221.222          24.555 
        1.39288         220.845         24.2947 
        1.39901         219.348         24.0383 
        1.40515         217.907          23.785 
         1.4113         216.571         23.5355 
        1.41742         215.328         23.2906 
        1.42355         213.546         23.0486 
         1.4297         212.815         22.8094 
        1.43585          211.24         22.5736 
        1.44198          210.03         22.3421 
        1.44809         209.461         22.1143 
        1.45423         207.536         21.8888 
        1.46036         207.131         21.6669 
        1.46649         205.514         21.4479 
        1.47263         204.473         21.2319 
        1.47877         202.782         21.0188 
        1.48491         202.051         20.8084 
        1.49104         200.328         20.6013 
        1.49718         198.791         20.3969 
        1.50333         197.983         20.1949 
        1.50947         196.382         19.9961 
         1.5156         195.865         19.8002 
        1.52172         194.282          19.607 
        1.52787         193.074         19.4159 
          1.534         192.349         19.2277 
        1.54013         191.356         19.0421 
        1.54627         189.878         18.8587 
        1.55241         189.275         18.6776 
        1.55855         187.667         18.4991 
        1.56467         186.705         18.3235 
         1.5708         185.922         18.1497 
        1.57695         184.895         17.9779 
        1.58308         183.592         17.8086 
        1.58922         182.213         17.6415 
        1.59535         181.493         17.4765 
         1.6015         180.411         17.3135 
        1.60764         179.214         17.1526 
        1.61376         178.094         16.9941 
        1.61989          177.17         16.8376 
        1.62604         176.421         16.6827 
        1.63218         175.132         16.5298 
        1.63831         174.194         16.3792 
        1.64444         173.348         16.2304 
        1.65059         172.049         16.0831 
        1.65673         171.012         15.9378 
        1.66285         170.322         15.7947 
        1.66898         168.873         15.6533 
        1.67512          168.15         15.5134 
        1.68127         167.151          15.375 
         1.6874         166.094         15.2387 
        1.69353          165.49          15.104 
        1.69967         164.211         14.9707 
        1.70581         163.149         14.8391 
        1.71193         162.411         14.7095 
        1.71806         161.505         14.5812 
        1.72421         160.636         14.4542 
        1.73035         159.836         14.3288 
        1.73649         158.485          14.205 
        1.74262          158.02         14.0827 
        1.74876         156.692         13.9617 
        1.75489         155.895         13.8425 
        1.76101         155.089         13.7246 
        1.76715         154.527          13.608 
        1.77329         153.655         13.4926 
        1.77943         152.643         13.3785 
        1.78557          151.55         13.2659 
        1.79171         150.579         13.1545 
        1.79785         149.566         13.0444 
        1.80399         149.015         12.9356 
        1.81012         148.354         12.8281 
        1.81625         147.191          12.722 
        1.82239         146.736         12.6168 
        1.82853         145.621          12.513 
        1.83466         144.828         12.4103 
        1.84078         144.341          12.309 
        1.84692         143.528         12.2086 
        1.85306         142.384         12.1092 
         1.8592         141.554         12.0111 
        1.86533         140.642         11.9141 
        1.87147         140.187          11.818 
        1.87761         139.538          11.723 
        1.88375         138.361         11.6292 
        1.88988         137.384         11.5364 
        1.89601         136.905         11.4446 
        1.90215         136.445         11.3538 
        1.90829         135.366          11.264 
        1.91442          134.49         11.1751 
        1.92056         133.897         11.0873 
         1.9267         133.059         11.0003 
        1.93284         132.453         10.9143 
        1.93897         131.659         10.8292 
        1.94509         130.811         10.7453 
        1.95123         130.094         10.6621 
        1.95737         129.318         10.5797 
        1.96349         128.685         10.4983 
        1.96964         128.156         10.4176 
        1.97578         127.332         10.3377 
        1.98192         126.607         10.2588 
        1.98805         126.001         10.1807 
        1.99419         125.211         10.1034 
        2.00033         124.607         10.0269 
        2.00647         123.865          9.9512 
         2.0126         123.112         9.87641 
        2.01874         122.483         9.80226 
        2.02488         121.865         9.72882 
        2.03101         121.268         9.65626 
        2.03714         120.581         9.58451 
        2.04328          119.63          9.5134 
        2.04941         118.995         9.44308 
        2.05554         118.508         9.37351 
        2.06167          117.91         9.30455 
        2.06781         116.999         9.23628 
        2.07396         116.465         9.16859 
        2.08009         115.883         9.10169 
        2.08622         115.267         9.03554 
        2.09237         114.669         8.96992 
        2.09851         114.093         8.90493 
        2.10464         113.499          8.8407 
        2.11077         112.919         8.77717 
        2.11691         112.135         8.71413 
        2.12305         111.556         8.65171 
        2.12918         111.177         8.59004 
        2.13531         110.454         8.52897 
        2.14145         109.824         8.46836 
         2.1476         109.002         8.40826 
        2.15372         108.352         8.34905 
        2.15985         107.858         8.29034 
        2.16599         107.304         8.23204 
        2.17213         107.005         8.17435 
        2.17827         106.301         8.11724 
         2.1844          105.67         8.06071 
        2.19054         105.104         8.00471 
        2.19666         104.644         7.94932 
         2.2028          103.96          7.8944 
        2.20893         103.314         7.83997 
        2.21508         102.812         7.78599 
        2.22122         102.383         7.73251 
        2.22736          101.92         7.67963 
        2.23349         101.322         7.62726 
        2.23962         100.712         7.57535 
        2.24577         100.295         7.52388 
         2.2519         99.5412         7.47296 
        2.25802         98.7953         7.42259 
        2.26417         98.6529         7.37254 
        2.27031         97.9318         7.32291 
        2.27644         97.4524         7.27388 
        2.28257         97.3083          7.2253 
        2.28872         96.5413         7.17707 
        2.29486         96.1447         7.12929 
        2.30099         95.5911         7.08204 
        2.30712         95.0925          7.0352 
        2.31326         94.3844          6.9887 
         2.3194         93.9491         6.94265 
        2.32553         93.5017         6.89709 
        2.33166         92.9863         6.85196 
         2.3378         92.4419         6.80717 
        2.34394         92.0415         6.76277 
        2.35007         91.7011         6.71883 
        2.35619         91.1089         6.67533 
        2.36233         90.4764         6.63211 
        2.36848         90.2553         6.58918 
        2.37462         89.6244         6.54672 
        2.38075         89.2369         6.50468 
        2.38689         88.7657         6.46297 
        2.39303         88.3568         6.42163 
        2.39916         87.9391          6.3807 
        2.40529         87.2433         6.34013 
        2.41143         86.9284         6.29987 
        2.41757          86.362         6.25995 
         2.4237          86.065         6.22045 
        2.42983         85.5761         6.18129 
        2.43598         85.1268         6.14237 
        2.44211         84.7336         6.10384 
        2.44823         84.1989         6.06574 
        2.45437         83.8672         6.02785 
        2.46052         83.4301         5.99025 
        2.46665         83.1174         5.95304 
        2.47279         82.5838         5.91616 
        2.47892         82.0097         5.87956 
        2.48507         81.8578         5.84324 
         2.4912         81.1186          5.8073 
