# k  (h/Mpc)    Pcb(k)  (Mpc/h)^3    Pcb_linear(k)  (Mpc/h)^3
     0.00783031         2788.45         2803.41 
       0.013688         3659.26         3711.28 
       0.019231         3944.87         3972.86 
      0.0249154         3862.55         3862.59 
      0.0312784         3494.48         3509.24 
      0.0375637         3076.89         3100.02 
      0.0433917          2759.5          2761.7 
      0.0492413         2482.21         2496.72 
      0.0555754         2290.48          2291.3 
      0.0619321          2106.4         2143.24 
       0.067871          2009.3         2026.43 
      0.0738098          1893.6         1906.02 
      0.0800417         1755.68         1762.69 
      0.0862327         1592.43         1604.56 
      0.0921407         1440.29         1450.42 
      0.0982031         1303.91         1303.63 
       0.104506         1166.26         1175.62 
       0.110769         1072.92         1078.64 
       0.116806          1018.6         1011.62 
       0.122832         960.743         963.602 
       0.129052         924.381         924.052 
       0.135211         892.016         885.548 
       0.141259         841.626          842.26 
       0.147318         783.922         791.678 
       0.153489         734.205         735.011 
       0.159709         685.961         677.563 
       0.165845         624.946          625.71 
       0.171974         597.317          582.31 
       0.178125         565.614         548.432 
       0.184229         532.389         523.388 
        0.19034         519.414         504.269 
       0.196428         502.924         487.888 
       0.202534         476.693         471.152 
       0.208729         465.013         451.891 
       0.214876         446.958         430.032 
       0.220989         415.904          406.46 
       0.227147         402.524         382.566 
        0.23329         383.627          360.38 
       0.239377         369.117         341.307 
       0.245482         350.342         325.595 
       0.251667         335.819         312.898 
       0.257832         331.298          302.57 
       0.263955         315.617         293.455 
       0.270079         305.975         284.409 
        0.27624         293.523         274.637 
       0.282372         284.911         264.022 
        0.28843         280.912         252.897 
       0.294538          267.43         241.573 
       0.300721         255.488         230.648 
        0.30691         250.244         220.753 
       0.313033         239.895          212.26 
       0.319153         235.628         205.003 
       0.325316         227.207         198.692 
        0.33145         221.076         192.992 
       0.337538           214.8         187.532 
       0.343633         208.751         181.962 
       0.349808         202.634         176.091 
       0.355968         197.184         170.034 
       0.362074         193.115         163.996 
       0.368217         188.386         158.107 
       0.374374         184.118         152.571 
       0.380519         176.246         147.547 
       0.386598         172.349         143.074 
       0.392688         167.918         139.027 
        0.39888         164.858         135.238 
       0.405048         161.478         131.631 
       0.411186         158.468         128.097 
       0.417313         154.532         124.557 
       0.423458         150.668         120.969 
       0.429607         148.042         117.396 
       0.435692         145.389         113.939 
       0.441815         140.898         110.598 
       0.447964         136.968         107.443 
       0.454126         134.478         104.506 
       0.460267         133.508         101.776 
       0.466387         130.367         99.2251 
        0.47254         128.909         96.7831 
       0.478662         124.696         94.4244 
       0.484765         122.792         92.1056 
       0.490885         119.942         89.8089 
       0.497035         119.053         87.5323 
       0.503198         116.134         85.2938 
       0.509342          113.32         83.1277 
       0.515458         112.151          81.062 
       0.521598         109.483           79.09 
       0.527764         108.291         77.2069 
       0.533884         107.129          75.424 
           0.54         104.534         73.7184 
       0.546137          101.92         72.0666 
       0.552299         100.552         70.4519 
       0.558452          98.722         68.8705 
       0.564573         98.3252         67.3258 
       0.570708          95.428         65.8134 
       0.576825         94.4984         64.3472 
       0.582926         93.3737         62.9309 
       0.589034         91.8173         61.5602 
       0.595184         90.6598         60.2293 
       0.601379          88.337         58.9394 
       0.607522         87.2455         57.7079 
       0.613639         86.3624         56.5226 
       0.619772         84.9316          55.368 
       0.625918         83.7375          54.239 
       0.632068         82.8063         53.1338 
       0.638161         81.2693         52.0639 
         0.6443         80.5956         51.0135 
       0.650464          78.946         49.9884 
       0.656582         78.5749         49.0011 
       0.662703         77.6722          48.043 
       0.668861         75.9189         47.1072 
       0.675024         75.6162         46.1975 
       0.681124         74.6236         45.3222 
       0.687237         73.1456         44.4687 
       0.693381         72.4896         43.6337 
       0.699536         71.9109         42.8188 
       0.705665         70.6932         42.0282 
       0.711789         69.7165         41.2578 
       0.717957         68.7469         40.5008 
        0.72409         68.1812         39.7665 
       0.730186         67.7736         39.0545 
       0.736317         66.5667         38.3561 
       0.742472         65.8759         37.6725 
       0.748622         64.9144         37.0069 
        0.75476         63.8997         36.3596 
       0.760888         63.7686         35.7294 
       0.767043         62.6676         35.1124 
       0.773185         62.1564         34.5116 
       0.779291         61.4098         33.9286 
       0.785407         60.4967         33.3583 
       0.791564         60.5062         32.7974 
       0.797719         59.5943         32.2497 
       0.803834         59.0492         31.7178 
       0.809972         58.3335         31.1961 
       0.816124         57.7776          30.685 
       0.822261         57.1134         30.1868 
       0.828378         56.7833         29.7013 
       0.834502         56.1385         29.2262 
       0.840667         55.6989         28.7587 
       0.846816         54.7691         28.3028 
       0.852925         54.6209         27.8599 
       0.859047         54.2102         27.4258 
       0.865192         53.3934         26.9996 
       0.871341          52.845         26.5823 
       0.877463         52.4783         26.1758 
       0.883569         52.2555          25.779 
       0.889708          51.667         25.3885 
       0.895864         51.1029         25.0052 
       0.902008         50.5594         24.6306 
       0.908149          50.218         24.2641 
       0.914301         49.8929         23.9045 
       0.920448         49.3982         23.5526 
       0.926574         48.6747         23.2092 
       0.932687         48.3961         22.8733 
       0.938823         47.9004          22.543 
       0.944975         47.5093         22.2185 
       0.951105         47.1061         21.9017 
       0.957225         46.9113         21.5916 
       0.963368         46.3529         21.2865 
       0.969511          45.999         20.9874 
       0.975621         45.6119         20.6957 
       0.981748         45.1465         20.4088 
       0.987916         44.8853         20.1257 
        0.99406         44.4289          19.849 
        1.00019         44.1428         19.5781 
        1.00632         43.8096         19.3126 
        1.01246         43.4927         19.0517 
        1.01859         43.0703          18.796 
        1.02471         42.6887         18.5454 
        1.03085         42.5769         18.2986 
        1.03698         42.2132         18.0568 
        1.04314         41.8785         17.8184 
        1.04929         41.4482         17.5849 
        1.05541         41.2953         17.3565 
        1.06154         41.0787         17.1318 
        1.06769         40.5246         16.9106 
        1.07382         40.3156         16.6942 
        1.07993         39.9564         16.4821 
        1.08607         39.7315         16.2728 
        1.09222         39.4589          16.067 
        1.09836         39.1298          15.865 
        1.10449         38.9382         15.6668 
        1.11063         38.6294         15.4717 
        1.11677         38.5787         15.2801 
         1.1229         38.1762         15.0921 
        1.12903         37.9517         14.9071 
        1.13518         37.7462         14.7252 
        1.14131         37.4362         14.5463 
        1.14745         37.0188         14.3706 
        1.15359         36.7581         14.1978 
        1.15973         36.5267         14.0278 
        1.16584         36.3143         13.8613 
        1.17197         35.9413         13.6973 
        1.17811         35.7948         13.5355 
        1.18424         35.4657         13.3769 
        1.19038         35.3368         13.2203 
        1.19652         35.0934         13.0663 
        1.20267         34.9056         12.9148 
        1.20881         34.6677         12.7657 
        1.21495         34.4334         12.6193 
        1.22108         34.3778         12.4751 
         1.2272         34.1398         12.3336 
        1.23334         33.8984          12.194 
        1.23949         33.6502         12.0563 
        1.24562         33.3334          11.921 
        1.25174         33.2146         11.7881 
        1.25789         33.0887         11.6567 
        1.26402         32.9001         11.5277 
        1.27014         32.6792         11.4009 
        1.27628         32.3738         11.2757 
        1.28244         32.3668         11.1521 
        1.28858         32.0271         11.0305 
        1.29471         31.8394         10.9111 
        1.30084         31.6263         10.7935 
        1.30697         31.5179         10.6776 
        1.31312         31.2469         10.5631 
        1.31925          31.083         10.4508 
        1.32537         30.8953         10.3401 
        1.33151         30.7142         10.2307 
        1.33765         30.6426          10.123 
        1.34378         30.4393          10.017 
        1.34992         30.2847         9.91252 
        1.35606         30.0668         9.80929 
         1.3622         29.8264         9.70773 
        1.36833         29.7379         9.60786 
        1.37445         29.5999         9.50945 
        1.38059         29.4124         9.41214 
        1.38675         29.1755         9.31596 
        1.39288         29.0528         9.22153 
        1.39901          28.904         9.12845 
        1.40515         28.7712         9.03646 
         1.4113         28.6541         8.94578 
        1.41742         28.5046          8.8567 
        1.42355         28.2783         8.76868 
         1.4297         28.1212         8.68159 
        1.43585         27.9841         8.59573 
        1.44198         27.8809         8.51137 
        1.44809         27.7279          8.4283 
        1.45423         27.5734         8.34605 
        1.46036         27.4363         8.26505 
        1.46649         27.2672          8.1851 
        1.47263         27.1539         8.10615 
        1.47877         27.0662         8.02829 
        1.48491         26.8957         7.95134 
        1.49104         26.7214         7.87556 
        1.49718         26.6126         7.80072 
        1.50333          26.519         7.72675 
        1.50947          26.374         7.65388 
         1.5156         26.2142         7.58208 
        1.52172          26.053          7.5112 
        1.52787         25.9261         7.44109 
          1.534         25.8652         7.37197 
        1.54013         25.7454          7.3038 
        1.54627         25.5567         7.23638 
        1.55241         25.4281          7.1698 
        1.55855         25.3239         7.10416 
        1.56467          25.271         7.03952 
         1.5708         25.1397         6.97552 
        1.57695         24.9745         6.91222 
        1.58308         24.7896         6.84985 
        1.58922          24.703         6.78822 
        1.59535         24.5744         6.72738 
         1.6015         24.4415          6.6672 
        1.60764         24.3675         6.60779 
        1.61376         24.2997         6.54927 
        1.61989         24.1165         6.49142 
        1.62604         24.0395         6.43414 
        1.63218         23.9121          6.3776 
        1.63831         23.7854         6.32187 
        1.64444         23.6889         6.26678 
        1.65059         23.5676         6.21223 
        1.65673         23.5023         6.15839 
        1.66285         23.3291         6.10534 
        1.66898         23.2852          6.0529 
        1.67512           23.21         6.00098 
        1.68127         23.0413         5.94963 
         1.6874         22.9755           5.899 
        1.69353         22.8085         5.84899 
        1.69967         22.7223         5.79944 
        1.70581          22.665         5.75049 
        1.71193         22.4738          5.7023 
        1.71806         22.4433         5.65456 
        1.72421          22.356         5.60728 
        1.73035         22.2074         5.56059 
        1.73649         22.1351         5.51445 
        1.74262         21.9959         5.46887 
        1.74876         21.9295         5.42378 
        1.75489         21.8586         5.37929 
        1.76101         21.7462         5.33532 
        1.76715         21.6432         5.29179 
        1.77329          21.555         5.24868 
        1.77943         21.4329         5.20605 
        1.78557         21.3845         5.16395 
        1.79171         21.2494         5.12231 
        1.79785         21.1987         5.08113 
        1.80399         21.0804         5.04041 
        1.81012          21.025         5.00019 
        1.81625         20.8734         4.96043 
        1.82239         20.8019         4.92105 
        1.82853         20.7307         4.88212 
        1.83466         20.6049         4.84365 
        1.84078         20.5757         4.80563 
        1.84692         20.5205         4.76797 
        1.85306         20.4072         4.73066 
         1.8592         20.3141         4.69382 
        1.86533         20.1642         4.65739 
        1.87147         20.1151          4.6213 
        1.87761         20.0181         4.58559 
        1.88375           19.98          4.5503 
        1.88988         19.8273         4.51542 
        1.89601           19.78         4.48088 
        1.90215         19.6705         4.44669 
        1.90829         19.5929         4.41286 
        1.91442         19.4694         4.37939 
        1.92056         19.4945          4.3463 
         1.9267         19.3883         4.31352 
        1.93284         19.3518         4.28105 
        1.93897         19.2218         4.24899 
        1.94509         19.1553         4.21732 
        1.95123         19.0603          4.1859 
        1.95737         19.0265         4.15478 
        1.96349         18.8886         4.12406 
        1.96964         18.8481         4.09355 
        1.97578         18.7911         4.06335 
        1.98192         18.6836         4.03352 
        1.98805         18.5988         4.00398 
        1.99419         18.5417         3.97473 
        2.00033         18.4874         3.94577 
        2.00647         18.3915         3.91711 
         2.0126         18.3332         3.88878 
        2.01874         18.2134         3.86069 
        2.02488         18.1658         3.83285 
        2.03101         18.0869         3.80534 
        2.03714          18.028         3.77813 
        2.04328         17.9235         3.75115 
        2.04941         17.8404         3.72446 
        2.05554           17.84         3.69805 
        2.06167         17.7612         3.67186 
        2.06781         17.6662         3.64593 
        2.07396         17.6639         3.62021 
        2.08009         17.5142         3.59478 
        2.08622         17.4755         3.56962 
        2.09237         17.4272         3.54466 
        2.09851         17.3127         3.51994 
        2.10464         17.2897         3.49549 
        2.11077         17.2009         3.47131 
        2.11691         17.1633          3.4473 
        2.12305         17.0757         3.42352 
        2.12918         16.9547         3.40002 
        2.13531         16.9546         3.37674 
        2.14145         16.8629         3.35363 
         2.1476         16.7727         3.33071 
        2.15372         16.7515         3.30812 
        2.15985         16.6917         3.28571 
        2.16599         16.6229         3.26345 
        2.17213         16.5886         3.24143 
        2.17827         16.4839         3.21961 
         2.1844         16.4305         3.19801 
        2.19054         16.4018          3.1766 
        2.19666         16.3223         3.15542 
         2.2028         16.2525         3.13442 
        2.20893         16.1824          3.1136 
        2.21508         16.1305         3.09294 
        2.22122          16.056         3.07247 
        2.22736         16.0268         3.05222 
        2.23349         15.9681         3.03217 
        2.23962         15.9213         3.01228 
        2.24577         15.8507         2.99255 
         2.2519         15.7845         2.97303 
        2.25802         15.6725         2.95372 
        2.26417          15.703         2.93453 
        2.27031         15.6189         2.91548 
        2.27644         15.5743         2.89667 
        2.28257         15.4651         2.87802 
        2.28872         15.4723          2.8595 
        2.29486         15.4007         2.84115 
        2.30099         15.3435           2.823 
        2.30712         15.2383           2.805 
        2.31326         15.1805         2.78712 
         2.3194         15.1656         2.76942 
        2.32553         15.0755          2.7519 
        2.33166         15.0367         2.73453 
         2.3378         14.9843          2.7173 
        2.34394         14.9423         2.70021 
        2.35007         14.8792         2.68329 
        2.35619         14.8204         2.66653 
        2.36233         14.7347         2.64988 
        2.36848         14.7132         2.63334 
        2.37462         14.6608         2.61698 
        2.38075         14.6232         2.60077 
        2.38689         14.5735         2.58468 
        2.39303         14.4796         2.56874 
        2.39916         14.4704         2.55294 
        2.40529         14.4244         2.53728 
        2.41143         14.3525         2.52174 
        2.41757         14.2872         2.50633 
         2.4237         14.2604         2.49107 
        2.42983         14.1906         2.47594 
        2.43598         14.1554          2.4609 
        2.44211         14.1044         2.44601 
        2.44823         14.0555         2.43128 
        2.45437         14.0107         2.41662 
        2.46052         13.9762         2.40208 
        2.46665         13.9192         2.38768 
        2.47279         13.8603         2.37341 
        2.47892         13.7989         2.35924 
        2.48507         13.7701         2.34518 
         2.4912         13.7191         2.33126 
