# k  (h/Mpc)    Pcb(k)  (Mpc/h)^3    Pcb_linear(k)  (Mpc/h)^3
     0.00783031         2432.74         2455.03 
       0.013688          2587.2         2619.02 
       0.019231          2296.7         2307.57 
      0.0249154         1842.65          1834.1 
      0.0312784         1343.77         1337.95 
      0.0375637         985.928          983.93 
      0.0433917         788.991         783.614 
      0.0492413         677.992          676.22 
      0.0555754         626.836         622.301 
      0.0619321         586.396         590.744 
       0.067871         553.288         553.131 
      0.0738098         496.625         495.996 
      0.0800417         422.289         419.811 
      0.0862327         344.419         342.642 
      0.0921407         283.414         281.002 
      0.0982031         240.698         236.709 
       0.104506         212.209         210.752 
       0.110769         201.675         200.041 
       0.116806         199.242          196.91 
       0.122832         194.685         193.892 
       0.129052         187.057         185.591 
       0.135211         172.865         170.525 
       0.141259         152.881         151.131 
       0.147318         132.506         131.023 
       0.153489         115.844         113.526 
       0.159709         103.907         100.989 
       0.165845         95.4252         93.7749 
       0.171974         93.4148         90.4652 
       0.178125         91.4346         89.1271 
       0.184229         89.3618         87.7612 
        0.19034         86.9377         84.8795 
       0.196428          82.119         79.9966 
       0.202534         74.7762         73.5614 
       0.208729         68.9165         66.5621 
       0.214876         63.1688          60.279 
       0.220989         57.7028         55.4072 
       0.227147         54.9412         52.0793 
        0.23329         52.8067         50.0751 
       0.239377         51.6501         48.8557 
       0.245482         50.2576          47.791 
       0.251667         48.3458         46.3704 
       0.257832         46.9978         44.3793 
       0.263955         43.9948         41.8943 
       0.270079         41.2725         39.1718 
        0.27624         38.6632         36.5399 
       0.282372         36.5408         34.2871 
        0.28843         35.2222         32.5466 
       0.294538         33.7156           31.25 
       0.300721         32.4191         30.2699 
        0.30691         31.7895         29.4335 
       0.313033         30.7499         28.5772 
       0.319153         30.0196         27.5895 
       0.325316         28.5548         26.4434 
        0.33145         27.2296         25.2089 
       0.337538         26.0531         23.9848 
       0.343633         25.1017         22.8486 
       0.349808         24.0315         21.8524 
       0.355968         23.1403         21.0209 
       0.362074         22.6204         20.3366 
       0.368217         21.8976         19.7318 
       0.374374         21.3762         19.1551 
       0.380519         20.5713         18.5679 
       0.386598         19.8847         17.9515 
       0.392688         19.1636         17.3097 
        0.39888         18.6614         16.6514 
       0.405048         18.0855         16.0179 
       0.411186         17.4465         15.4365 
       0.417313         16.8868         14.9129 
       0.423458         16.3007          14.443 
       0.429607         16.0097         14.0187 
       0.435692         15.6796         13.6252 
       0.441815         15.0931          13.239 
       0.447964         14.6031         12.8534 
       0.454126         14.3027         12.4656 
       0.460267         14.0402         12.0788 
       0.466387         13.5748         11.7022 
        0.47254         13.2945          11.341 
       0.478662         12.8528         11.0028 
       0.484765         12.5235         10.6874 
       0.490885          12.126         10.3929 
       0.497035         11.8496         10.1145 
       0.503198         11.6327         9.84721 
       0.509342         11.2648         9.58719 
       0.515458         11.0545         9.33307 
       0.521598         10.7945         9.08326 
       0.527764          10.585         8.83823 
       0.533884         10.2634         8.60201 
           0.54         10.0677         8.37468 
       0.546137         9.75696          8.1571 
       0.552299         9.55549         7.94969 
       0.558452         9.30787         7.75241 
       0.564573         9.16543         7.56378 
       0.570708         8.95816         7.38067 
       0.576825         8.78511         7.20319 
       0.582926         8.58336         7.03105 
       0.589034         8.40118         6.86355 
       0.595184         8.28487         6.69975 
       0.601379         8.05632         6.53975 
       0.607522          7.8663         6.38618 
       0.613639         7.71807         6.23848 
       0.619772         7.57249         6.09575 
       0.625918         7.41617         5.95798 
       0.632068         7.29962         5.82494 
       0.638161         7.14629         5.69734 
         0.6443         7.00358         5.57252 
       0.650464         6.83272         5.45059 
       0.656582         6.76136          5.3327 
       0.662703         6.63623         5.21797 
       0.668861         6.46256         5.10585 
       0.675024         6.34029         4.99699 
       0.681124         6.32322          4.8926 
       0.687237         6.17132         4.79124 
       0.693381         6.00802         4.69249 
       0.699536          5.9602         4.59647 
       0.705665         5.82966         4.50358 
       0.711789         5.71595         4.41332 
       0.717957         5.59414         4.32482 
        0.72409          5.5234         4.23914 
       0.730186          5.4803         4.15623 
       0.736317         5.34231         4.07504 
       0.742472            5.28         3.99572 
       0.748622         5.18576         3.91859 
        0.75476         5.05028         3.84371 
       0.760888         5.01008         3.77095 
       0.767043         4.89479         3.69984 
       0.773185         4.82782         3.63073 
       0.779291         4.79367         3.56382 
       0.785407         4.69321          3.4985 
       0.791564         4.62119         3.43442 
       0.797719         4.53068         3.37197 
       0.803834         4.49233         3.31145 
       0.809972          4.3973          3.2522 
       0.816124         4.34887         3.19426 
       0.822261         4.28288         3.13789 
       0.828378         4.22213         3.08304 
       0.834502          4.1604         3.02945 
       0.840667         4.10653          2.9768 
       0.846816         4.01515         2.92555 
       0.852925         3.98241         2.87583 
       0.859047         3.91528         2.82717 
       0.865192         3.85819         2.77948 
       0.871341         3.80765         2.73286 
       0.877463         3.74603         2.68752 
       0.883569         3.71007         2.64333 
       0.889708         3.64997         2.59991 
       0.895864          3.6008         2.55736 
       0.902008         3.54497         2.51585 
       0.908149         3.49405         2.47529 
       0.914301         3.44868         2.43555 
       0.920448         3.41623         2.39673 
       0.926574         3.38303         2.35889 
       0.932687         3.32202         2.32195 
       0.938823         3.26274         2.28568 
       0.944975         3.24777         2.25009 
       0.951105         3.17953         2.21539 
       0.957225         3.16347         2.18148 
       0.963368         3.11399         2.14817 
       0.969511         3.07401         2.11556 
       0.975621         3.03291          2.0838 
       0.981748         2.98723         2.05261 
       0.987916          2.9559         2.02186 
        0.99406         2.92577         1.99186 
        1.00019         2.89084         1.96253 
        1.00632         2.86379         1.93382 
        1.01246         2.82001         1.90564 
        1.01859         2.78892         1.87807 
        1.02471         2.74539         1.85107 
        1.03085         2.72022         1.82452 
        1.03698         2.68855         1.79854 
        1.04314         2.65572         1.77296 
        1.04929         2.62487         1.74793 
        1.05541         2.58941         1.72349 
        1.06154         2.56721         1.69946 
        1.06769         2.54871         1.67585 
        1.07382         2.50348         1.65276 
        1.07993         2.47509         1.63016 
        1.08607         2.45682         1.60789 
        1.09222         2.42358         1.58602 
        1.09836         2.41056         1.56458 
        1.10449         2.36209         1.54355 
        1.11063         2.34522          1.5229 
        1.11677         2.32439         1.50262 
         1.1229         2.29708         1.48275 
        1.12903         2.27672         1.46323 
        1.13518         2.24409         1.44403 
        1.14131         2.22282          1.4252 
        1.14745         2.19534         1.40671 
        1.15359         2.16842         1.38854 
        1.15973         2.14616         1.37069 
        1.16584         2.13121         1.35323 
        1.17197         2.10047         1.33605 
        1.17811         2.07954         1.31912 
        1.18424         2.05908         1.30253 
        1.19038         2.04421         1.28617 
        1.19652         2.02083         1.27011 
        1.20267          2.0041         1.25432 
        1.20881         1.98189          1.2388 
        1.21495         1.96131         1.22357 
        1.22108         1.94148         1.20859 
         1.2272         1.91811          1.1939 
        1.23334         1.90741         1.17943 
        1.23949         1.88086         1.16516 
        1.24562         1.86783         1.15116 
        1.25174         1.85658         1.13741 
        1.25789         1.82632         1.12385 
        1.26402         1.81241         1.11053 
        1.27014         1.79478         1.09746 
        1.27628         1.77595         1.08457 
        1.28244         1.76077         1.07185 
        1.28858         1.74705         1.05935 
        1.29471         1.72391         1.04708 
        1.30084          1.7101         1.03502 
        1.30697         1.69882         1.02313 
        1.31312         1.68137          1.0114 
        1.31925         1.66438        0.999902 
        1.32537         1.65319        0.988589 
        1.33151         1.63315        0.977411 
        1.33765         1.61919        0.966413 
        1.34378         1.61108        0.955605 
        1.34992         1.59537        0.944954 
        1.35606         1.58024        0.934443 
         1.3622         1.56671         0.92411 
        1.36833         1.54922        0.913958 
        1.37445         1.53206        0.903963 
        1.38059         1.51953        0.894087 
        1.38675         1.50662        0.884335 
        1.39288         1.50127        0.874766 
        1.39901         1.48121        0.865344 
        1.40515         1.47242        0.856039 
         1.4113         1.45943        0.846874 
        1.41742         1.44573        0.837878 
        1.42355         1.43363        0.828996 
         1.4297         1.42074        0.820216 
        1.43585         1.41208        0.811566 
        1.44198         1.39772        0.803074 
        1.44809         1.38778        0.794719 
        1.45423         1.37576        0.786453 
        1.46036         1.36648        0.778318 
        1.46649         1.35154        0.770296 
        1.47263         1.34529         0.76238 
        1.47877         1.33519        0.754578 
        1.48491         1.31852        0.746874 
        1.49104            1.31        0.739293 
        1.49718          1.3011        0.731811 
        1.50333         1.28729        0.724421 
        1.50947         1.27883        0.717148 
         1.5156         1.27036        0.709985 
        1.52172         1.25783         0.70292 
        1.52787         1.25038        0.695937 
          1.534         1.24144        0.689057 
        1.54013         1.23212        0.682277 
        1.54627         1.21794        0.675576 
        1.55241         1.21009        0.668964 
        1.55855         1.20196        0.662449 
        1.56467          1.1949        0.656039 
         1.5708         1.18274        0.649695 
        1.57695         1.17237        0.643425 
        1.58308         1.16218        0.637252 
        1.58922         1.15829        0.631156 
        1.59535         1.14692        0.625142 
         1.6015         1.13774        0.619197 
        1.60764         1.13302        0.613332 
        1.61376         1.11975        0.607559 
        1.61989         1.11194        0.601856 
        1.62604         1.10341        0.596212 
        1.63218         1.09717        0.590645 
        1.63831         1.08998        0.585161 
        1.64444         1.07993        0.579745 
        1.65059         1.07584        0.574384 
        1.65673         1.06346        0.569097 
        1.66285         1.05698        0.563891 
        1.66898         1.04936        0.558748 
        1.67512         1.04044        0.553659 
        1.68127         1.03535        0.548629 
         1.6874         1.02922        0.543673 
        1.69353         1.02037         0.53878 
        1.69967           1.011        0.533937 
        1.70581          1.0085        0.529154 
        1.71193        0.994616        0.524448 
        1.71806        0.993509        0.519789 
        1.72421        0.987333        0.515178 
        1.73035        0.976701        0.510627 
        1.73649        0.972079        0.506133 
        1.74262        0.964915        0.501696 
        1.74876        0.958557        0.497309 
        1.75489        0.951267        0.492983 
        1.76101        0.942894         0.48871 
        1.76715        0.939609        0.484482 
        1.77329        0.932541        0.480299 
        1.77943        0.926204        0.476163 
        1.78557        0.920745        0.472081 
        1.79171        0.914489        0.468047 
        1.79785        0.909256        0.464059 
        1.80399        0.902077        0.460118 
        1.81012        0.897091        0.456228 
        1.81625        0.887923        0.452385 
        1.82239        0.884446         0.44858 
        1.82853        0.879601         0.44482 
        1.83466        0.871908        0.441107 
        1.84078        0.866293         0.43744 
        1.84692        0.859803        0.433809 
        1.85306        0.856295        0.430215 
         1.8592        0.848946        0.426666 
        1.86533        0.846281         0.42316 
        1.87147        0.840526        0.419688 
        1.87761        0.834815        0.416255 
        1.88375        0.828317        0.412863 
        1.88988        0.822826        0.409513 
        1.89601        0.817483        0.406198 
        1.90215        0.812574        0.402917 
        1.90829        0.808758        0.399673 
        1.91442        0.802841        0.396465 
        1.92056          0.7985        0.393295 
         1.9267        0.793315        0.390157 
        1.93284        0.788353         0.38705 
        1.93897        0.783027        0.383984 
        1.94509         0.77633        0.380957 
        1.95123        0.773915        0.377954 
        1.95737        0.770765        0.374982 
        1.96349        0.764478         0.37205 
        1.96964        0.761172         0.36914 
        1.97578        0.755294         0.36626 
        1.98192        0.749184        0.363416 
        1.98805        0.745266        0.360603 
        1.99419        0.740377        0.357818 
        2.00033        0.736545        0.355062 
        2.00647        0.734261        0.352335 
         2.0126        0.729433        0.349642 
        2.01874        0.723139        0.346973 
        2.02488        0.720828        0.344329 
        2.03101        0.715428        0.341717 
        2.03714        0.711992        0.339135 
        2.04328        0.708147        0.336576 
        2.04941        0.703865        0.334046 
        2.05554        0.698156        0.331544 
        2.06167        0.695564        0.329064 
        2.06781        0.690558        0.326609 
        2.07396        0.687705        0.324175 
        2.08009         0.68389        0.321771 
        2.08622        0.679315        0.319393 
        2.09237          0.6763        0.317034 
        2.09851        0.671955        0.314699 
        2.10464        0.667435        0.312392 
        2.11077        0.663755         0.31011 
        2.11691        0.659984        0.307845 
        2.12305        0.656657        0.305604 
        2.12918        0.652698        0.303389 
        2.13531        0.649865        0.301197 
        2.14145        0.646082        0.299021 
         2.1476        0.640483        0.296864 
        2.15372        0.638185        0.294739 
        2.15985        0.634391        0.292632 
        2.16599        0.631627         0.29054 
        2.17213        0.627778        0.288471 
        2.17827        0.624912        0.286422 
         2.1844        0.620901        0.284395 
        2.19054        0.617204        0.282387 
        2.19666         0.61409        0.280401 
         2.2028        0.610212        0.278432 
        2.20893         0.60837        0.276481 
        2.21508        0.604982        0.274547 
        2.22122        0.601119         0.27263 
        2.22736        0.597125        0.270736 
        2.23349        0.594361         0.26886 
        2.23962        0.592715        0.267001 
        2.24577        0.589305        0.265157 
         2.2519        0.585709        0.263334 
        2.25802        0.583366        0.261531 
        2.26417        0.578657        0.259739 
        2.27031         0.57673        0.257962 
        2.27644        0.573342        0.256207 
        2.28257        0.570514        0.254469 
        2.28872        0.567585        0.252743 
        2.29486        0.564201        0.251034 
        2.30099        0.561824        0.249344 
        2.30712        0.559172        0.247668 
        2.31326        0.555552        0.246005 
         2.3194        0.552569        0.244359 
        2.32553        0.550368         0.24273 
        2.33166        0.547112        0.241116 
         2.3378        0.545489        0.239515 
        2.34394        0.540976        0.237928 
        2.35007        0.538653        0.236358 
        2.35619        0.536587        0.234803 
        2.36233        0.533865        0.233259 
        2.36848        0.531582        0.231725 
        2.37462        0.528235        0.230209 
        2.38075        0.526365        0.228707 
        2.38689        0.524446        0.227218 
        2.39303        0.519936        0.225742 
        2.39916        0.518886        0.224281 
        2.40529        0.515572        0.222832 
        2.41143        0.512403        0.221396 
        2.41757        0.510505        0.219971 
         2.4237        0.507866        0.218561 
        2.42983        0.505609        0.217164 
        2.43598        0.503022        0.215775 
        2.44211        0.500169        0.214401 
        2.44823        0.497449        0.213042 
        2.45437        0.496306        0.211691 
        2.46052        0.494173         0.21035 
        2.46665        0.491687        0.209023 
        2.47279        0.489268        0.207708 
        2.47892        0.486918        0.206404 
        2.48507        0.485002        0.205109 
         2.4912        0.482196        0.203828 
