# k  (h/Mpc)    P(k)  (Mpc/h)^3    P_linear(k)  (Mpc/h)^3
     0.00783031         4687.61         4745.34 
       0.013688         6295.12         6278.09 
       0.019231         6774.76         6778.33 
      0.0249154         6603.05         6694.28 
      0.0312784         6175.13         6223.13 
      0.0375637         5618.58         5631.59 
      0.0433917         5043.91         5115.06 
      0.0492413         4651.17         4686.14 
      0.0555754         4233.47         4327.56 
      0.0619321         4038.47         4046.49 
       0.067871          3736.6         3815.32 
      0.0738098         3502.47         3582.93 
      0.0800417         3216.39          3321.1 
      0.0862327         2970.57         3045.18 
      0.0921407         2734.29         2782.38 
      0.0982031         2477.23         2532.53 
       0.104506         2304.89         2310.34 
       0.110769         2128.49         2134.35 
       0.116806         1982.86         2003.77 
       0.122832         1894.33         1901.62 
       0.129052         1779.04         1812.16 
       0.135211         1696.35          1726.8 
       0.141259         1626.09         1638.03 
       0.147318         1541.36         1541.95 
       0.153489         1428.26         1439.72 
       0.159709          1345.8         1338.54 
       0.165845         1282.11         1247.08 
       0.171974         1196.71         1168.51 
       0.178125         1135.95         1103.87 
       0.184229         1091.58         1052.24 
        0.19034         1025.26         1009.42 
       0.196428         1007.64         971.223 
       0.202534          978.82         933.511 
       0.208729          934.12         893.386 
       0.214876         886.053         851.147 
       0.220989          861.53         807.832 
       0.227147         810.746         764.931 
        0.23329         777.284         725.009 
       0.239377          757.65         689.796 
       0.245482         709.643         659.345 
       0.251667         701.194         633.036 
       0.257832         677.881         610.214 
       0.263955         656.193         589.459 
       0.270079         636.064         569.295 
        0.27624         627.761         548.756 
       0.282372         601.905         527.762 
        0.28843         584.719         506.764 
       0.294538         559.667         485.909 
       0.300721         554.695         465.828 
        0.30691         529.513         447.292 
       0.313033          517.94         430.754 
       0.319153         499.976         415.939 
       0.325316         487.042         402.424 
        0.33145         473.343         389.921 
       0.337538         468.031         378.014 
       0.343633         453.479          366.26 
       0.349808         440.327         354.397 
       0.355968         434.453         342.609 
       0.362074         424.144         331.148 
       0.368217         413.396         320.028 
       0.374374         399.947         309.487 
       0.380519         393.444         299.674 
       0.386598          384.65         290.656 
       0.392688          380.95          282.25 
        0.39888         370.849         274.193 
       0.405048         363.967         266.516 
       0.411186         356.387         259.106 
       0.417313         349.928         251.847 
       0.423458         343.775         244.704 
       0.429607         335.878         237.719 
       0.435692         327.122         231.014 
       0.441815         325.287         224.534 
       0.447964         319.832          218.34 
       0.454126         307.402         212.446 
       0.460267         304.349         206.875 
       0.466387         300.661         201.588 
        0.47254         294.978         196.486 
       0.478662         292.663         191.575 
       0.484765          285.46          186.82 
       0.490885         281.467         182.174 
       0.497035           277.7         177.619 
       0.503198          270.92         173.187 
       0.509342         268.074         168.915 
       0.515458         264.666         164.819 
       0.521598         261.602         160.863 
       0.527764         257.287         157.046 
       0.533884         253.525         153.407 
           0.54         250.301         149.901 
       0.546137         248.995         146.497 
       0.552299         244.769         143.178 
       0.558452         240.749         139.957 
       0.564573         236.637         136.842 
       0.570708         233.542         133.807 
       0.576825         230.636         130.868 
       0.582926         227.831         128.024 
       0.589034         224.106         125.266 
       0.595184         222.422         122.581 
       0.601379         220.538         119.966 
       0.607522         215.651         117.454 
       0.613639         215.323         115.026 
       0.619772         210.426         112.661 
       0.625918         208.828         110.356 
       0.632068         206.548         108.113 
       0.638161         205.124         105.951 
         0.6443         202.047         103.832 
       0.650464         200.041         101.761 
       0.656582         198.392         99.7628 
       0.662703         195.164         97.8185 
       0.668861         193.275         95.9173 
       0.675024         191.179          94.068 
       0.681124         189.933         92.2885 
       0.687237         186.698          90.553 
       0.693381         184.579         88.8546 
       0.699536         183.104         87.1966 
       0.705665         183.694         85.5873 
       0.711789         179.251         84.0195 
       0.717957          178.62         82.4799 
        0.72409         176.274         80.9878 
       0.730186         173.463         79.5422 
       0.736317         173.115          78.125 
       0.742472          171.68         76.7382 
       0.748622         170.624         75.3872 
        0.75476         168.927         74.0722 
       0.760888         166.801         72.7911 
       0.767043         165.331         71.5356 
       0.773185         163.778         70.3123 
       0.779291         162.058         69.1247 
       0.785407         161.139         67.9629 
       0.791564         159.377         66.8207 
       0.797719         157.583         65.7055 
       0.803834         156.998         64.6231 
       0.809972         154.714         63.5615 
       0.816124         154.409         62.5219 
       0.822261         152.807         61.5086 
       0.828378         151.427         60.5212 
       0.834502         150.591          59.555 
       0.840667         148.997         58.6039 
       0.846816          147.93         57.6764 
       0.852925          146.22         56.7751 
       0.859047         144.884         55.8914 
       0.865192         144.587         55.0237 
       0.871341         143.053          54.174 
       0.877463         141.653         53.3462 
       0.883569         140.623          52.538 
       0.889708         139.947         51.7426 
       0.895864         138.649         50.9618 
       0.902008         137.783         50.1988 
       0.908149          136.93         49.4521 
       0.914301         135.363         48.7196 
       0.920448         134.677         48.0027 
       0.926574         133.895         47.3029 
       0.932687         132.956         46.6186 
       0.938823         131.351         45.9456 
       0.944975         130.858         45.2845 
       0.951105         129.722         44.6389 
       0.957225         128.185         44.0071 
       0.963368         127.758         43.3855 
       0.969511         127.062          42.776 
       0.975621         126.511         42.1816 
       0.981748         125.386         41.5971 
       0.987916          124.42         41.0201 
        0.99406         123.949         40.4562 
        1.00019         122.392         39.9043 
        1.00632         122.025         39.3632 
        1.01246         120.855         38.8314 
        1.01859         119.594         38.3104 
        1.02471         120.171         37.7997 
        1.03085         118.879         37.2966 
        1.03698         117.649         36.8038 
        1.04314         116.709         36.3179 
        1.04929         116.311         35.8419 
        1.05541         115.496         35.3765 
        1.06154         114.871         34.9183 
        1.06769         114.128         34.4675 
        1.07382         113.675         34.0263 
        1.07993         113.083         33.5939 
        1.08607         112.071         33.1672 
        1.09222         111.516         32.7476 
        1.09836         110.693         32.3358 
        1.10449         110.055         31.9316 
        1.11063         109.251         31.5339 
        1.11677         108.656         31.1432 
         1.1229         108.052         30.7599 
        1.12903         106.866         30.3827 
        1.13518          107.02         30.0116 
        1.14131         106.304         29.6469 
        1.14745         105.067         29.2886 
        1.15359         104.736         28.9361 
        1.15973         104.186         28.5894 
        1.16584         103.464         28.2499 
        1.17197         102.843         27.9155 
        1.17811         102.309         27.5855 
        1.18424         101.335         27.2619 
        1.19038         101.075         26.9426 
        1.19652         100.572         26.6285 
        1.20267         99.7782         26.3195 
        1.20881         99.2054         26.0155 
        1.21495         98.5535         25.7168 
        1.22108         97.9841         25.4229 
         1.2272         97.4459         25.1343 
        1.23334         96.9447         24.8495 
        1.23949         96.3809         24.5685 
        1.24562         96.1356         24.2927 
        1.25174         95.4194         24.0216 
        1.25789         94.9075         23.7538 
        1.26402         94.3332         23.4905 
        1.27014         93.5291          23.232 
        1.27628         93.3108         22.9765 
        1.28244          92.462         22.7245 
        1.28858         92.0802         22.4766 
        1.29471         91.7392         22.2329 
        1.30084         91.1423         21.9932 
        1.30697         90.3714         21.7566 
        1.31312         90.0065         21.5232 
        1.31925         89.8389         21.2939 
        1.32537          89.222         21.0683 
        1.33151         88.6294         20.8451 
        1.33765         88.2287         20.6253 
        1.34378          87.697         20.4092 
        1.34992         87.0186          20.196 
        1.35606         86.6414         19.9854 
         1.3622         85.9585         19.7782 
        1.36833         85.8858         19.5745 
        1.37445         85.2994         19.3737 
        1.38059         84.7435         19.1752 
        1.38675         84.4069          18.979 
        1.39288         83.7928         18.7863 
        1.39901         83.5924         18.5964 
        1.40515          83.175         18.4088 
         1.4113         82.6143         18.2238 
        1.41742         82.0913         18.0421 
        1.42355         81.8371         17.8625 
         1.4297         81.3113         17.6848 
        1.43585         80.9061         17.5097 
        1.44198          80.614         17.3376 
        1.44809         79.9386         17.1681 
        1.45423         79.7735         17.0003 
        1.46036         79.2456         16.8351 
        1.46649         78.8718          16.672 
        1.47263         78.5166          16.511 
        1.47877         78.1872         16.3521 
        1.48491         77.6781         16.1951 
        1.49104         77.2667         16.0406 
        1.49718         76.8031         15.8879 
        1.50333         76.4899          15.737 
        1.50947         75.9513         15.5883 
         1.5156         75.6957         15.4419 
        1.52172         75.4113         15.2973 
        1.52787         75.0465         15.1542 
          1.534          74.762         15.0132 
        1.54013         74.2118         14.8742 
        1.54627         74.0289         14.7366 
        1.55241         73.4606         14.6008 
        1.55855         72.9748         14.4669 
        1.56467         72.5427         14.3351 
         1.5708         72.4169         14.2045 
        1.57695          71.995         14.0754 
        1.58308         71.8371         13.9482 
        1.58922         71.4143         13.8224 
        1.59535         71.0702         13.6983 
         1.6015         70.6073         13.5756 
        1.60764         70.5166         13.4544 
        1.61376         70.0783          13.335 
        1.61989         69.4574          13.217 
        1.62604         69.2692         13.1001 
        1.63218         68.9947         12.9848 
        1.63831         68.6295         12.8711 
        1.64444         68.4575         12.7587 
        1.65059         67.7626         12.6474 
        1.65673         67.6174         12.5376 
        1.66285         67.3801         12.4294 
        1.66898          66.883         12.3224 
        1.67512         66.5373         12.2165 
        1.68127         66.1911         12.1118 
         1.6874         66.0317         12.0085 
        1.69353         65.6168         11.9065 
        1.69967         65.3848         11.8054 
        1.70581         65.1647         11.7056 
        1.71193         64.6948         11.6073 
        1.71806         64.2715         11.5099 
        1.72421         64.0796         11.4135 
        1.73035         63.7385         11.3182 
        1.73649         63.4277         11.2241 
        1.74262         63.1557         11.1311 
        1.74876         63.0725         11.0392 
        1.75489         62.4712         10.9484 
        1.76101         62.3368         10.8588 
        1.76715         61.9371           10.77 
        1.77329         61.6765          10.682 
        1.77943         61.4974         10.5951 
        1.78557         61.2422         10.5092 
        1.79171         60.7779         10.4243 
        1.79785         60.5426         10.3403 
        1.80399         60.1823         10.2573 
        1.81012         60.0155         10.1752 
        1.81625          59.564         10.0942 
        1.82239         59.3866         10.0138 
        1.82853         58.9728         9.93443 
        1.83466         58.7777         9.85597 
        1.84078         58.3392         9.77844 
        1.84692         58.2067         9.70162 
        1.85306         57.8954         9.62554 
         1.8592         57.6536          9.5504 
        1.86533          57.285          9.4761 
        1.87147         57.1207         9.40251 
        1.87761         56.9494         9.32968 
        1.88375         56.6933          9.2577 
        1.88988          56.536         9.18657 
        1.89601         56.0917         9.11614 
        1.90215         55.8842         9.04641 
        1.90829         55.6627         8.97743 
        1.91442         55.3345         8.90918 
        1.92056         55.1529          8.8417 
         1.9267         54.7344         8.77485 
        1.93284         54.4572         8.70865 
        1.93897         54.2882         8.64327 
        1.94509         54.0693         8.57869 
        1.95123         53.8346         8.51462 
        1.95737         53.5528         8.45116 
        1.96349         53.2454         8.38851 
        1.96964         52.9288         8.32632 
        1.97578         52.7917         8.26473 
        1.98192         52.5694          8.2039 
        1.98805         52.4121         8.14366 
        1.99419          51.999         8.08404 
        2.00033         51.7183         8.02498 
        2.00647         51.5897         7.96653 
         2.0126         51.3353         7.90877 
        2.01874         51.1319         7.85149 
        2.02488         50.9092         7.79473 
        2.03101         50.6405         7.73864 
        2.03714         50.3152         7.68316 
        2.04328         50.1056         7.62816 
        2.04941         49.8691         7.57374 
        2.05554         49.6211          7.5199 
        2.06167         49.4329         7.46651 
        2.06781         49.1928         7.41363 
        2.07396         48.9081         7.36119 
        2.08009         48.7866         7.30935 
        2.08622         48.4562         7.25808 
        2.09237         48.3223         7.20719 
        2.09851         47.9902         7.15678 
        2.10464          47.824         7.10695 
        2.11077         47.6285         7.05764 
        2.11691         47.4473          7.0087 
        2.12305         47.1498         6.96022 
        2.12918         46.9813         6.91232 
        2.13531         46.8174         6.86487 
        2.14145         46.5648         6.81775 
         2.1476         46.3549         6.77102 
        2.15372         46.1254         6.72497 
        2.15985         45.9973          6.6793 
        2.16599         45.7642         6.63392 
        2.17213         45.7062         6.58902 
        2.17827         45.2087         6.54455 
         2.1844         45.0769         6.50052 
        2.19054         44.9088         6.45689 
        2.19666         44.6922         6.41372 
         2.2028         44.5564         6.37091 
        2.20893         44.3127         6.32847 
        2.21508         44.1515         6.28637 
        2.22122         43.8813         6.24464 
        2.22736         43.6449         6.20338 
        2.23349         43.5128          6.1625 
        2.23962         43.2876         6.12197 
        2.24577         43.0495         6.08177 
         2.2519         42.8303         6.04199 
        2.25802         42.8112         6.00263 
        2.26417         42.5053         5.96351 
        2.27031         42.3203          5.9247 
        2.27644         42.1098         5.88636 
        2.28257         41.9948         5.84835 
        2.28872         41.7275         5.81061 
        2.29486         41.5412         5.77321 
        2.30099         41.4278         5.73622 
        2.30712         41.1966         5.69954 
        2.31326         41.0522         5.66311 
         2.3194         40.8572         5.62703 
        2.32553         40.6803         5.59132 
        2.33166          40.486         5.55594 
         2.3378         40.3332         5.52082 
        2.34394         40.0974         5.48599 
        2.35007         39.9354         5.45151 
        2.35619         39.8242         5.41737 
        2.36233         39.5665         5.38345 
        2.36848         39.3821         5.34974 
        2.37462         39.2412          5.3164 
        2.38075         38.9813         5.28337 
        2.38689         38.8436          5.2506 
        2.39303         38.7241         5.21811 
        2.39916         38.5219         5.18593 
        2.40529         38.3458         5.15403 
        2.41143         38.1955         5.12237 
        2.41757         37.9982         5.09096 
         2.4237         37.8778         5.05988 
        2.42983         37.7027         5.02906 
        2.43598         37.5182         4.99841 
        2.44211         37.4349         4.96807 
        2.44823         37.2133         4.93805 
        2.45437         37.0291          4.9082 
        2.46052         36.8556         4.87857 
        2.46665         36.7172         4.84924 
        2.47279         36.5327         4.82016 
        2.47892         36.3535          4.7913 
        2.48507         36.1824         4.76265 
         2.4912          36.022         4.73429 
