#  k  (h/Mpc)          P(k)  (Mpc/h)^3     P_linear(k) (Mpc/h)^3
     0.00783031         2071.02         2090.27 
       0.013688         2845.95          2843.4 
       0.019231         3121.27         3121.94 
      0.0249154         3089.86         3118.26 
      0.0312784         2907.82         2920.49 
      0.0375637         2651.72          2652.1 
      0.0433917         2393.64         2411.83 
      0.0492413            2205         2211.48 
      0.0555754         2021.96         2046.42 
      0.0619321         1924.42          1921.4 
       0.067871            1802         1821.89 
      0.0738098         1700.53         1722.18 
      0.0800417            1577         1606.91 
      0.0862327          1460.1         1480.79 
      0.0921407         1342.92         1356.36 
      0.0982031         1218.04         1234.61 
       0.104506         1123.48         1124.06 
       0.110769         1035.14         1035.77 
       0.116806         963.177         971.046 
       0.122832         920.611         922.338 
       0.129052         871.702         882.122 
       0.135211         834.331         845.379 
       0.141259         801.842         807.087 
       0.147318         762.995         764.161 
       0.153489         710.905         716.322 
       0.159709         666.355         666.815 
       0.165845         629.846         620.402 
       0.171974         584.559         579.555 
       0.178125         552.867         545.731 
       0.184229         529.551         519.221 
        0.19034         499.911         498.299 
       0.196428         489.239         480.829 
       0.202534         476.856         464.359 
       0.208729         456.331         446.861 
       0.214876         433.493         427.803 
       0.220989         420.887         407.302 
       0.227147         394.282         386.016 
        0.23329         376.185         365.424 
       0.239377           362.5         346.802 
       0.245482         341.102           330.6 
       0.251667         333.965         316.854 
       0.257832           322.7         305.436 
       0.263955         312.283         295.618 
       0.270079         303.306         286.477 
        0.27624         297.934         277.263 
       0.282372          286.89         267.644 
        0.28843         276.255          257.65 
       0.294538         265.771         247.302 
       0.300721         260.264         236.968 
        0.30691         248.356         227.194 
       0.313033         241.071         218.405 
       0.319153         230.509         210.625 
       0.325316         226.355         203.734 
        0.33145          219.25         197.607 
       0.337538         215.522         191.966 
       0.343633         209.146         186.487 
       0.349808         203.587         180.921 
       0.355968          198.81         175.261 
       0.362074         193.111         169.589 
       0.368217         188.188         163.921 
       0.374374         182.706         158.434 
       0.380519          178.24         153.273 
       0.386598         173.742         148.551 
       0.392688          170.78         144.221 
        0.39888         166.418         140.167 
       0.405048         163.196           136.4 
       0.411186          159.97         132.816 
       0.417313         155.474         129.315 
       0.423458         152.382         125.837 
       0.429607         148.553         122.373 
       0.435692         144.031         118.981 
       0.441815         142.747         115.651 
       0.447964         140.626         112.434 
       0.454126         135.011         109.368 
       0.460267         133.078         106.491 
       0.466387          130.31         103.796 
        0.47254         128.588         101.229 
       0.478662         126.628         98.7879 
       0.484765         123.607          96.438 
       0.490885         121.246         94.1359 
       0.497035         119.761         91.8605 
       0.503198         116.847         89.6232 
       0.509342          114.26         87.4443 
       0.515458          112.59         85.3357 
       0.521598         111.233         83.2908 
       0.527764         109.345         81.3218 
       0.533884         107.441         79.4548 
           0.54         105.806         77.6686 
       0.546137         104.565         75.9441 
       0.552299         103.187         74.2713 
       0.558452         100.382         72.6516 
       0.564573         98.8183         71.0819 
       0.570708         97.9044         69.5436 
       0.576825         95.8731         68.0434 
       0.582926         94.3936         66.5851 
       0.589034          92.189         65.1672 
       0.595184         91.3143         63.7855 
       0.601379         90.3581         62.4406 
       0.607522         88.2986         61.1508 
       0.613639         88.1273          59.908 
       0.619772         85.9261         58.7013 
       0.625918         85.6321         57.5283 
       0.632068         84.3564         56.3873 
       0.638161         83.0926         55.2854 
         0.6443         81.8287         54.2015 
       0.650464          80.662         53.1389 
       0.656582         80.1188         52.1107 
       0.662703         78.5806         51.1095 
       0.668861         77.7307         50.1306 
       0.675024           76.66         49.1795 
       0.681124         75.4941         48.2652 
       0.687237         74.3712         47.3738 
       0.693381         73.8025         46.5017 
       0.699536         72.4382         45.6501 
       0.705665         72.6513         44.8231 
       0.711789         70.9797          44.017 
       0.717957          70.407         43.2251 
        0.72409         69.3936         42.4571 
       0.730186         68.4656         41.7126 
       0.736317         68.1354         40.9822 
       0.742472         66.9788         40.2669 
       0.748622         66.5625         39.5698 
        0.75476         65.6793          38.891 
       0.760888         64.8852         38.2294 
       0.767043         64.2631         37.5809 
       0.773185         63.3639          36.949 
       0.779291         63.0719         36.3355 
       0.785407         62.4369         35.7353 
       0.791564         61.4112         35.1451 
       0.797719         60.5402         34.5688 
       0.803834         60.4568         34.0092 
       0.809972         59.6839         33.4603 
       0.816124         58.5767         32.9224 
       0.822261         58.4902         32.3979 
       0.828378         57.8804         31.8867 
       0.834502         57.2044         31.3862 
       0.840667         56.7831         30.8933 
       0.846816         56.0426         30.4126 
       0.852925         55.6005         29.9453 
       0.859047         54.8971         29.4869 
       0.865192         54.6649         29.0367 
       0.871341         54.3402         28.5958 
       0.877463         53.3243         28.1661 
       0.883569         52.9493         27.7465 
       0.889708         52.5804         27.3334 
       0.895864         52.1622         26.9278 
       0.902008         51.7577         26.5314 
       0.908149         51.3318         26.1433 
       0.914301         51.0812         25.7624 
       0.920448         50.1144         25.3897 
       0.926574         50.0004         25.0257 
       0.932687         49.4921         24.6697 
       0.938823         48.9131         24.3195 
       0.944975         48.6339         23.9753 
       0.951105         48.2963         23.6392 
       0.957225         47.7359         23.3101 
       0.963368          47.437         22.9863 
       0.969511         47.1458         22.6687 
       0.975621          46.833         22.3589 
       0.981748         46.2479         22.0542 
       0.987916         46.0363         21.7532 
        0.99406         45.6432         21.4591 
        1.00019         45.0805         21.1711 
        1.00632         45.0142         20.8887 
        1.01246          44.571         20.6111 
        1.01859         44.1058         20.3391 
        1.02471         44.0635         20.0724 
        1.03085         43.6322         19.8095 
        1.03698         43.0457          19.552 
        1.04314         42.7744         19.2981 
        1.04929         42.4939         19.0493 
        1.05541          42.108         18.8059 
        1.06154         41.8985         18.5663 
        1.06769          41.636         18.3305 
        1.07382         41.2871         18.0996 
        1.07993         41.1301         17.8733 
        1.08607         40.6812         17.6499 
        1.09222         40.4636         17.4302 
        1.09836         40.0092         17.2146 
        1.10449          39.951         17.0029 
        1.11063         39.4704         16.7945 
        1.11677         39.3534         16.5898 
         1.1229         39.1986         16.3889 
        1.12903         38.7239         16.1911 
        1.13518         38.4234         15.9965 
        1.14131         38.3488         15.8053 
        1.14745         38.0865         15.6173 
        1.15359         37.8439         15.4324 
        1.15973         37.4717         15.2504 
        1.16584         37.1567         15.0722 
        1.17197         37.1896         14.8966 
        1.17811         36.7424         14.7234 
        1.18424         36.4458         14.5534 
        1.19038         36.3696         14.3856 
        1.19652         36.0881         14.2206 
        1.20267         35.8539         14.0582 
        1.20881         35.7309         13.8984 
        1.21495          35.439         13.7414 
        1.22108         35.1682         13.5868 
         1.2272         34.8513          13.435 
        1.23334         34.6855         13.2852 
        1.23949          34.434         13.1373 
        1.24562         34.4168         12.9922 
        1.25174         34.1735         12.8494 
        1.25789         34.0287         12.7084 
        1.26402           33.81         12.5698 
        1.27014         33.5317         12.4336 
        1.27628         33.2394         12.2991 
        1.28244         33.1956         12.1663 
        1.28858         33.0169         12.0356 
        1.29471         32.7241         11.9072 
        1.30084         32.5359         11.7808 
        1.30697         32.3661         11.6561 
        1.31312         32.0878          11.533 
        1.31925         31.9498         11.4121 
        1.32537         31.8731          11.293 
        1.33151         31.5856         11.1753 
        1.33765         31.4518         11.0593 
        1.34378         31.3553         10.9452 
        1.34992         30.9622         10.8326 
        1.35606         30.9379         10.7214 
         1.3622         30.8039          10.612 
        1.36833         30.5924         10.5044 
        1.37445         30.4683         10.3984 
        1.38059         30.3472         10.2935 
        1.38675         30.0486         10.1898 
        1.39288         29.9482         10.0879 
        1.39901         29.7023         9.98756 
        1.40515         29.6058         9.88834 
         1.4113         29.4719         9.79051 
        1.41742         29.2596          9.6944 
        1.42355         29.1755         9.59941 
         1.4297         28.9681         9.50541 
        1.43585         28.8985         9.41273 
        1.44198         28.6157         9.32165 
        1.44809         28.5805         9.23195 
        1.45423         28.4206         9.14311 
        1.46036         28.3261         9.05562 
        1.46649         28.1618         8.96924 
        1.47263         27.9505         8.88394 
        1.47877         27.8474         8.79979 
        1.48491         27.6962          8.7166 
        1.49104         27.6298         8.63468 
        1.49718         27.4049         8.55376 
        1.50333         27.2773         8.47376 
        1.50947          27.192         8.39495 
         1.5156          27.007         8.31727 
        1.52172         26.8002         8.24058 
        1.52787         26.7349         8.16471 
          1.534         26.6292          8.0899 
        1.54013          26.458         8.01612 
        1.54627         26.3318         7.94313 
        1.55241         26.1737         7.87104 
        1.55855         26.1242         7.79996 
        1.56467         25.9984         7.72996 
         1.5708         25.9014         7.66063 
        1.57695         25.6634         7.59205 
        1.58308          25.617         7.52447 
        1.58922         25.4929         7.45768 
        1.59535         25.3591         7.39173 
         1.6015         25.2039          7.3265 
        1.60764         25.1668         7.26209 
        1.61376         25.0822         7.19864 
        1.61989         24.8309          7.1359 
        1.62604         24.8466         7.07377 
        1.63218          24.669         7.01244 
        1.63831         24.5727         6.95197 
        1.64444          24.423          6.8922 
        1.65059         24.3389           6.833 
        1.65673         24.2266         6.77457 
        1.66285         24.0824         6.71699 
        1.66898         24.0203         6.66006 
        1.67512         23.9062         6.60369 
        1.68127         23.7252         6.54792 
         1.6874         23.6734         6.49293 
        1.69353         23.6335          6.4386 
        1.69967         23.4285         6.38478 
        1.70581         23.2747          6.3316 
        1.71193         23.2211         6.27923 
        1.71806         23.1785         6.22734 
        1.72421         23.0366         6.17594 
        1.73035         22.9768         6.12519 
        1.73649         22.8463         6.07502 
        1.74262         22.7658         6.02546 
        1.74876         22.6529         5.97642 
        1.75489         22.5603         5.92804 
        1.76101         22.4326         5.88021 
        1.76715         22.4304         5.83284 
        1.77329         22.3088         5.78594 
        1.77943         22.1489         5.73955 
        1.78557         22.0568         5.69373 
        1.79171         22.0065         5.64841 
        1.79785         21.9171         5.60358 
        1.80399         21.8294         5.55925 
        1.81012         21.7013         5.51546 
        1.81625          21.601         5.47217 
        1.82239         21.5426         5.42928 
        1.82853         21.3739         5.38687 
        1.83466          21.345         5.34496 
        1.84078         21.2082         5.30354 
        1.84692         21.1566          5.2625 
        1.85306         21.0705         5.22185 
         1.8592         20.9957         5.18169 
        1.86533          20.914         5.14199 
        1.87147         20.8041         5.10265 
        1.87761         20.7215         5.06371 
        1.88375         20.6354         5.02523 
        1.88988         20.5579         4.98719 
        1.89601         20.4935         4.94953 
        1.90215         20.3792         4.91223 
        1.90829         20.3241         4.87534 
        1.91442         20.2169         4.83882 
        1.92056         20.1694         4.80272 
         1.9267         20.0769         4.76695 
        1.93284         19.9875         4.73152 
        1.93897         19.8682         4.69652 
        1.94509         19.8292         4.66196 
        1.95123         19.7572         4.62766 
        1.95737         19.6515         4.59368 
        1.96349         19.5642         4.56013 
        1.96964         19.5052         4.52682 
        1.97578         19.4182         4.49383 
        1.98192         19.3458         4.46124 
        1.98805         19.2694         4.42898 
        1.99419         19.1778         4.39703 
        2.00033         19.1197         4.36538 
        2.00647         19.0721         4.33406 
         2.0126         18.9256          4.3031 
        2.01874         18.8793         4.27239 
        2.02488         18.7832         4.24196 
        2.03101         18.7528         4.21189 
        2.03714         18.6681         4.18214 
        2.04328         18.5877         4.15264 
        2.04941         18.5263         4.12345 
        2.05554         18.4713         4.09457 
        2.06167         18.3929         4.06593 
        2.06781         18.3203         4.03756 
        2.07396         18.2331         4.00942 
        2.08009         18.1576          3.9816 
        2.08622         18.0752         3.95408 
        2.09237         18.0319         3.92676 
        2.09851          17.989          3.8997 
        2.10464         17.9078         3.87295 
        2.11077         17.8313         3.84647 
        2.11691         17.7289         3.82019 
        2.12305         17.7004         3.79415 
        2.12918           17.66         3.76842 
        2.13531         17.5474         3.74293 
        2.14145         17.5063         3.71762 
         2.1476         17.4188         3.69251 
        2.15372          17.376         3.66777 
        2.15985         17.3094         3.64322 
        2.16599         17.2284         3.61884 
        2.17213         17.1997          3.5947 
        2.17827         17.1317         3.57079 
         2.1844         17.0581         3.54713 
        2.19054         16.9632         3.52367 
        2.19666         16.9197         3.50045 
         2.2028         16.8348         3.47743 
        2.20893         16.8151          3.4546 
        2.21508         16.7387         3.43196 
        2.22122         16.6415         3.40951 
        2.22736         16.6132         3.38731 
        2.23349         16.5451         3.36531 
        2.23962         16.5181          3.3435 
        2.24577         16.4151         3.32187 
         2.2519         16.3569         3.30046 
        2.25802         16.3037         3.27927 
        2.26417         16.2322         3.25821 
        2.27031         16.1998         3.23731 
        2.27644         16.1607         3.21667 
        2.28257         16.0935          3.1962 
        2.28872         16.0085         3.17588 
        2.29486         15.9764         3.15573 
        2.30099         15.9353         3.13581 
        2.30712         15.8838         3.11604 
        2.31326         15.7795         3.09642 
         2.3194         15.6971         3.07698 
        2.32553         15.7002         3.05774 
        2.33166         15.6242         3.03867 
         2.3378         15.5866         3.01974 
        2.34394         15.5084         3.00097 
        2.35007         15.4247         2.98238 
        2.35619         15.3944         2.96397 
        2.36233         15.3371         2.94568 
        2.36848          15.304         2.92751 
        2.37462         15.2152         2.90952 
        2.38075         15.1719         2.89171 
        2.38689         15.1222         2.87403 
        2.39303         15.0718         2.85651 
        2.39916          15.021         2.83915 
        2.40529         14.9851         2.82193 
        2.41143         14.9057         2.80485 
        2.41757         14.8698          2.7879 
         2.4237         14.8078         2.77113 
        2.42983         14.7873         2.75449 
        2.43598         14.7142         2.73795 
        2.44211         14.6463         2.72157 
        2.44823         14.6306         2.70536 
        2.45437         14.5566         2.68924 
        2.46052         14.5118         2.67324 
        2.46665         14.4576          2.6574 
        2.47279         14.4126          2.6417 
        2.47892         14.3606         2.62611 
        2.48507         14.3009         2.61063 
         2.4912         14.2629         2.59531 
