#  k  (h/Mpc)          P(k)  (Mpc/h)^3     P_linear(k) (Mpc/h)^3
     0.00783031         19575.4           19868 
       0.013688         23239.4         22990.9 
       0.019231         22068.4         21987.6 
      0.0249154         18762.8         19155.6 
      0.0312784         15364.3         15497.9 
      0.0375637         12462.4         12390.2 
      0.0433917         10183.5         10290.6 
      0.0492413         8921.17         8906.49 
      0.0555754         7817.17         8003.74 
      0.0619321         7513.99          7432.4 
       0.067871         6824.37         6969.22 
      0.0738098         6305.52         6432.23 
      0.0800417         5589.38         5747.28 
      0.0862327         4949.68          4997.1 
      0.0921407         4389.81         4308.35 
      0.0982031         3786.75         3711.53 
       0.104506         3459.74         3253.71 
       0.110769         3153.66          2959.9 
       0.116806         2970.16         2792.67 
       0.122832         2843.59         2688.46 
       0.129052         2662.61         2592.68 
       0.135211         2537.55         2469.08 
       0.141259         2423.03         2304.19 
       0.147318         2258.42         2104.47 
       0.153489         2038.71         1890.46 
       0.159709            1893         1692.43 
       0.165845         1785.63         1534.23 
       0.171974         1676.27         1419.99 
       0.178125          1590.2         1344.59 
       0.184229         1518.83         1296.29 
        0.19034         1441.75         1258.95 
       0.196428         1413.56         1218.82 
       0.202534          1362.4         1166.86 
       0.208729         1293.07          1100.4 
       0.214876         1231.71         1025.38 
       0.220989         1178.71         949.756 
       0.227147         1124.02         880.384 
        0.23329         1071.44         823.138 
       0.239377         1047.36         779.686 
       0.245482         978.679         747.567 
       0.251667         973.124         722.701 
       0.257832         933.846         700.879 
       0.263955         903.203         678.093 
       0.270079         868.488         651.887 
        0.27624         857.301          621.91 
       0.282372         821.791         589.893 
        0.28843         808.338         558.458 
       0.294538          765.41         529.143 
       0.300721         759.094         503.423 
        0.30691         728.027         482.069 
       0.313033         712.779         464.694 
       0.319153         695.002         449.868 
       0.325316         674.214         436.069 
        0.33145         656.479         422.276 
       0.337538         643.842         407.864 
       0.343633         627.222         392.621 
       0.349808         603.893         376.782 
       0.355968         598.891         361.213 
       0.362074          591.47         346.712 
       0.368217         572.927         333.452 
       0.374374         549.272         321.677 
       0.380519         548.066         311.265 
       0.386598         532.076          301.92 
       0.392688         529.347         293.132 
        0.39888         513.385         284.378 
       0.405048         505.017         275.631 
       0.411186         497.218         266.865 
       0.417313         486.898         258.109 
       0.423458         476.341         249.535 
       0.429607         470.391         241.349 
       0.435692         458.717         233.745 
       0.441815         453.775         226.658 
       0.447964         444.316         220.083 
       0.454126         437.789         213.912 
       0.460267          427.65         208.063 
       0.466387         421.998         202.432 
        0.47254         417.345         196.878 
       0.478662         413.812         191.422 
       0.484765         399.127         186.087 
       0.490885         395.897         180.882 
       0.497035         388.017         175.836 
       0.503198         384.329         171.002 
       0.509342         381.562         166.434 
       0.515458         377.281         162.128 
       0.521598         366.835         158.008 
       0.527764         362.293         154.034 
       0.533884         359.114         150.226 
           0.54         354.352         146.532 
       0.546137         352.398         142.919 
       0.552299         346.059         139.373 
       0.558452         343.729         135.931 
       0.564573         339.194         132.616 
       0.570708         333.285         129.417 
       0.576825          326.47          126.35 
       0.582926         324.888         123.406 
       0.589034         321.584         120.566 
       0.595184         319.381         117.807 
       0.601379         313.164          115.12 
       0.607522         309.491         112.538 
       0.613639         307.824         110.039 
       0.619772         302.403         107.598 
       0.625918         300.722         105.217 
       0.632068         295.639         102.904 
       0.638161          294.31         100.681 
         0.6443         289.892         98.5143 
       0.650464         287.371           96.41 
       0.656582         283.746         94.3869 
       0.662703         283.738         92.4236 
       0.668861         279.268         90.5055 
       0.675024         276.084          88.639 
       0.681124         273.668         86.8425 
       0.687237         271.209         85.0912 
       0.693381             267         83.3794 
       0.699536         264.147         81.7118 
       0.705665          262.23         80.0973 
       0.711789         261.112         78.5284 
       0.717957         259.226         76.9912 
        0.72409         256.843         75.5042 
       0.730186         253.508         74.0659 
       0.736317         251.099         72.6575 
       0.742472         249.111         71.2809 
       0.748622         247.357         69.9416 
        0.75476         244.435         68.6397 
       0.760888         241.928         67.3733 
       0.767043         241.646          66.134 
       0.773185         239.267         64.9287 
       0.779291         235.486         63.7605 
       0.785407         235.006         62.6195 
       0.791564         232.495         61.4994 
       0.797719         229.919         60.4075 
       0.803834         227.758         59.3491 
       0.809972         227.254         58.3124 
       0.816124         226.194         57.2983 
       0.822261         224.335         56.3111 
       0.828378         221.969         55.3502 
       0.834502         220.032          54.411 
       0.840667         218.396         53.4877 
       0.846816         217.154         52.5884 
       0.852925         215.832         51.7156 
       0.859047         214.048         50.8608 
       0.865192         211.244         50.0227 
       0.871341          209.69         49.2029 
       0.877463         209.283         48.4054 
       0.883569         207.905         47.6277 
       0.889708         205.346         46.8631 
       0.895864         204.452         46.1135 
       0.902008         202.638         45.3819 
       0.908149          201.49         44.6666 
       0.914301          199.18         43.9657 
       0.920448         198.247         43.2805 
       0.926574         196.392         42.6124 
       0.932687         196.436         41.9598 
       0.938823         193.972         41.3185 
       0.944975         193.225         40.6893 
       0.951105          191.89         40.0754 
       0.957225         190.905         39.4753 
       0.963368          188.09         38.8855 
       0.969511         187.451         38.3078 
       0.975621         185.821          37.745 
       0.981748         185.387         37.1921 
       0.987916         184.012         36.6468 
        0.99406         182.477         36.1145 
        1.00019          181.76         35.5939 
        1.00632         180.458         35.0841 
        1.01246         179.042         34.5836 
        1.01859         179.136         34.0937 
        1.02471         176.352         33.6139 
        1.03085         175.387         33.1418 
        1.03698         174.402         32.6797 
        1.04314         172.899         32.2245 
        1.04929         172.286         31.7791 
        1.05541          171.82         31.3439 
        1.06154         169.899         30.9159 
        1.06769         169.578         30.4951 
        1.07382         168.121         30.0837 
        1.07993         167.075         29.6807 
        1.08607         166.699         29.2836 
        1.09222           165.3         28.8932 
        1.09836         164.008         28.5105 
        1.10449         162.583         28.1352 
        1.11063         161.575         27.7663 
        1.11677         160.918          27.404 
         1.1229         159.587         27.0489 
        1.12903         159.132         26.6998 
        1.13518         158.226         26.3566 
        1.14131         156.801         26.0196 
        1.14745         156.744         25.6886 
        1.15359         155.228         25.3634 
        1.15973         154.081         25.0437 
        1.16584         153.355         24.7309 
        1.17197         153.043         24.4231 
        1.17811         151.259         24.1195 
        1.18424         150.921          23.822 
        1.19038         150.546         23.5287 
        1.19652         149.201         23.2404 
        1.20267         148.536          22.957 
        1.20881         147.556         22.6783 
        1.21495         146.452         22.4048 
        1.22108         145.692         22.1358 
         1.2272         144.675         21.8718 
        1.23334         144.489         21.6116 
        1.23949         143.089          21.355 
        1.24562         142.365         21.1033 
        1.25174         141.892          20.856 
        1.25789         140.976         20.6119 
        1.26402         139.449         20.3722 
        1.27014         138.687          20.137 
        1.27628         138.334         19.9047 
        1.28244         138.106         19.6756 
        1.28858         136.793         19.4505 
        1.29471         135.838         19.2294 
        1.30084         135.579         19.0119 
        1.30697         134.099         18.7975 
        1.31312         133.527         18.5861 
        1.31925         132.748         18.3786 
        1.32537         132.565         18.1745 
        1.33151         131.488         17.9727 
        1.33765         130.526         17.7741 
        1.34378         130.105          17.579 
        1.34992         129.562         17.3866 
        1.35606         129.224         17.1967 
         1.3622         127.839           17.01 
        1.36833          127.11         16.8265 
        1.37445         126.751         16.6458 
        1.38059         125.659         16.4672 
        1.38675          125.22         16.2907 
        1.39288         124.629         16.1176 
        1.39901         124.316         15.9471 
        1.40515         123.031         15.7786 
         1.4113         122.829         15.6127 
        1.41742         121.725         15.4497 
        1.42355         121.292         15.2888 
         1.4297         120.582         15.1297 
        1.43585          119.87         14.9729 
        1.44198         119.476          14.819 
        1.44809         118.945         14.6675 
        1.45423         118.473         14.5175 
        1.46036         117.432           14.37 
        1.46649         116.812         14.2244 
        1.47263         116.095         14.0807 
        1.47877         115.363         13.9391 
        1.48491         114.614         13.7992 
        1.49104         114.484         13.6615 
        1.49718         113.609         13.5256 
        1.50333         112.888         13.3914 
        1.50947         112.434         13.2592 
         1.5156         111.984          13.129 
        1.52172         111.431         13.0006 
        1.52787         110.631         12.8736 
          1.534         110.227         12.7485 
        1.54013         109.755         12.6252 
        1.54627         109.213         12.5032 
        1.55241          108.48         12.3829 
        1.55855         107.827         12.2643 
        1.56467         107.283         12.1477 
         1.5708         106.519         12.0321 
        1.57695         106.293          11.918 
        1.58308         105.839         11.8055 
        1.58922         105.315         11.6945 
        1.59535         104.664         11.5849 
         1.6015         104.462         11.4766 
        1.60764         103.729         11.3697 
        1.61376         103.164         11.2644 
        1.61989         102.612         11.1604 
        1.62604         101.924         11.0575 
        1.63218         101.905         10.9559 
        1.63831         101.083         10.8559 
        1.64444         100.537          10.757 
        1.65059         99.8647         10.6592 
        1.65673          99.489         10.5626 
        1.66285         99.1496         10.4676 
        1.66898         98.5945         10.3736 
        1.67512          97.821         10.2807 
        1.68127         97.5708         10.1888 
         1.6874         96.9879         10.0982 
        1.69353         96.6931         10.0088 
        1.69967         96.2581         9.92023 
        1.70581         95.5375         9.83279 
        1.71193         95.0354         9.74674 
        1.71806         94.8585         9.66153 
        1.72421         94.2218         9.57717 
        1.73035         93.8833         9.49392 
        1.73649         93.3892         9.41167 
        1.74262         92.7578         9.33046 
        1.74876         92.4423         9.25016 
        1.75489          91.849         9.17096 
        1.76101         91.3237         9.09272 
        1.76715         90.8839         9.01528 
        1.77329         90.5434         8.93865 
        1.77943         89.9673         8.86288 
        1.78557         89.7693          8.7881 
        1.79171         88.9036         8.71417 
        1.79785         88.5125         8.64107 
        1.80399          88.101         8.56883 
        1.81012         87.7218         8.49751 
        1.81625         87.4172         8.42703 
        1.82239         86.8884         8.35725 
        1.82853         86.4509         8.28829 
        1.83466         86.0562         8.22017 
        1.84078         85.6231         8.15289 
        1.84692         85.0974         8.08626 
        1.85306         84.8105         8.02028 
         1.8592         84.4661         7.95515 
        1.86533         83.9098         7.89077 
        1.87147         83.3965         7.82703 
        1.87761         83.0528         7.76396 
        1.88375         82.7232         7.70166 
        1.88988         82.3009         7.64011 
        1.89601         81.8218          7.5792 
        1.90215         81.2805         7.51891 
        1.90829         81.1387          7.4593 
        1.91442         80.7212         7.40032 
        1.92056         80.1765         7.34204 
         1.9267         79.9109         7.28433 
        1.93284         79.5651          7.2272 
        1.93897         79.0097         7.17079 
        1.94509         78.8411          7.1151 
        1.95123         78.3283         7.05987 
        1.95737         77.9609         7.00518 
        1.96349         77.5568         6.95121 
        1.96964         77.0373         6.89765 
        1.97578         76.7408         6.84463 
        1.98192         76.6355         6.79228 
        1.98805         76.0547         6.74046 
        1.99419         75.7412         6.68919 
        2.00033         75.4256         6.63842 
        2.00647         75.0029         6.58819 
         2.0126          74.647         6.53857 
        2.01874         74.1396         6.48938 
        2.02488         74.0534         6.44066 
        2.03101         73.4932         6.39252 
        2.03714           73.01         6.34492 
        2.04328         72.7815         6.29775 
        2.04941         72.4256          6.2511 
        2.05554          72.133         6.20495 
        2.06167         71.7898         6.15921 
        2.06781         71.3291         6.11392 
        2.07396          71.026         6.06903 
        2.08009         70.8036         6.02465 
        2.08622         70.3354         5.98078 
        2.09237         70.1261         5.93725 
        2.09851         69.8063         5.89415 
        2.10464         69.4189         5.85155 
        2.11077         69.0596         5.80942 
        2.11691          68.762         5.76762 
        2.12305         68.3873         5.72622 
        2.12918         68.0712         5.68532 
        2.13531         67.6221         5.64482 
        2.14145         67.3856         5.60462 
         2.1476         67.0207         5.56477 
        2.15372         66.7972          5.5255 
        2.15985         66.3935         5.48657 
        2.16599         66.1007          5.4479 
        2.17213         65.7383         5.40965 
        2.17827         65.4329         5.37178 
         2.1844           65.16         5.33429 
        2.19054         64.9009         5.29716 
        2.19666         64.6314         5.26042 
         2.2028         64.3483         5.22401 
        2.20893          63.915         5.18792 
        2.21508          63.715         5.15213 
        2.22122         63.3024         5.11666 
        2.22736         63.1277          5.0816 
        2.23349         62.7647         5.04688 
        2.23962         62.4807         5.01247 
        2.24577         62.1716         4.97834 
         2.2519          61.935         4.94458 
        2.25802         61.5869         4.91119 
        2.26417         61.3243         4.87801 
        2.27031         61.0464          4.8451 
        2.27644         60.6392          4.8126 
        2.28257         60.4615         4.78039 
        2.28872         60.1634         4.74842 
        2.29486         59.8001         4.71675 
        2.30099         59.3662         4.68543 
        2.30712         59.2575         4.65438 
        2.31326         58.9213         4.62355 
         2.3194          58.741         4.59303 
        2.32553         58.4387         4.56283 
        2.33166         58.1108         4.53291 
         2.3378         57.8672         4.50323 
        2.34394         57.4901         4.47379 
        2.35007         57.2918         4.44466 
        2.35619         57.0745         4.41583 
        2.36233         56.7923         4.38718 
        2.36848         56.4991         4.35873 
        2.37462         56.2551         4.33059 
        2.38075         55.9833         4.30273 
        2.38689         55.7317         4.27508 
        2.39303         55.4346         4.24769 
        2.39916         55.1361         4.22056 
        2.40529         55.0234         4.19367 
        2.41143         54.6118           4.167 
        2.41757         54.4624         4.14054 
         2.4237         54.1775         4.11436 
        2.42983         53.9399         4.08842 
        2.43598         53.6147         4.06262 
        2.44211         53.3453         4.03709 
        2.44823         53.1793         4.01184 
        2.45437          52.949         3.98673 
        2.46052         52.7469         3.96182 
        2.46665         52.4677         3.93717 
        2.47279         52.1495         3.91273 
        2.47892         52.0268         3.88848 
        2.48507         51.6233         3.86441 
         2.4912         51.4206          3.8406 
