# k  (h/Mpc)    P(k)  (Mpc/h)^3    P_linear(k)  (Mpc/h)^3
     0.00783031         12892.8         13092.6 
       0.013688         15372.2         15262.3 
       0.019231           14689         14650.3 
      0.0249154         12603.4         12817.2 
      0.0312784         10392.6         10456.3 
      0.0375637         8517.99         8474.94 
      0.0433917         7093.63         7155.66 
      0.0492413         6294.64         6293.58 
      0.0555754         5606.01         5719.56 
      0.0619321         5362.59         5318.32 
       0.067871         4868.31         4951.85 
      0.0738098         4446.48          4518.1 
      0.0800417         3903.71         3990.62 
      0.0862327         3428.25         3450.83 
      0.0921407         3030.88         2987.66 
      0.0982031         2641.76         2611.39 
       0.104506         2440.86         2340.01 
       0.110769         2258.44         2172.85 
       0.116806         2138.38         2072.84 
       0.122832         2055.54         1993.49 
       0.129052         1917.37         1899.32 
       0.135211         1803.24         1776.65 
       0.141259         1694.79         1630.21 
       0.147318         1561.71         1473.74 
       0.153489         1407.01          1324.7 
       0.159709         1308.34         1200.89 
       0.165845         1240.55         1110.86 
       0.171974         1170.39         1049.81 
       0.178125         1119.89         1008.32 
       0.184229         1077.53          975.22 
        0.19034         1013.56          939.95 
       0.196428         990.042         896.708 
       0.202534         949.992         844.543 
       0.208729         893.331         786.476 
       0.214876         841.785         729.676 
       0.220989         805.206         679.317 
       0.227147          764.82         637.866 
        0.23329         731.791         606.107 
       0.239377         715.454         582.125 
       0.245482         668.195         562.371 
       0.251667         663.056         543.425 
       0.257832         637.628         523.117 
       0.263955         614.887         500.582 
       0.270079         589.237         476.199 
        0.27624         579.645         451.235 
       0.282372         555.414         427.668 
        0.28843         540.426         406.878 
       0.294538         512.647         388.985 
       0.300721         508.674         373.814 
        0.30691          485.69         360.787 
       0.313033         475.625         349.045 
       0.319153         460.558          337.54 
       0.325316          447.37         325.649 
        0.33145         433.374          313.37 
       0.337538         426.179         301.004 
       0.343633         412.268         288.871 
       0.349808         397.486         277.273 
       0.355968         393.091         266.724 
       0.362074         385.789         257.322 
       0.368217         374.736         248.837 
       0.374374         358.829         241.026 
       0.380519         356.194         233.642 
       0.386598         346.738         226.517 
       0.392688         343.514         219.406 
        0.39888         333.838         212.221 
       0.405048         326.092         205.174 
       0.411186         320.032          198.39 
       0.417313          313.66         191.971 
       0.423458         307.019         185.941 
       0.429607         301.408         180.315 
       0.435692         293.335         175.117 
       0.441815         290.559         170.168 
       0.447964         284.382         165.392 
       0.454126          275.94         160.749 
       0.460267         271.476          156.23 
       0.466387         268.092         151.819 
        0.47254         262.373         147.507 
       0.478662         261.583         143.373 
       0.484765         252.251         139.428 
       0.490885         249.385         135.652 
       0.497035         245.072         132.042 
       0.503198          240.44         128.597 
       0.509342         238.297         125.304 
       0.515458         234.932         122.137 
       0.521598         229.635         119.054 
       0.527764         226.553         116.049 
       0.533884         223.957         113.153 
           0.54         220.493         110.345 
       0.546137         219.211         107.618 
       0.552299         214.543         104.978 
       0.558452         212.852         102.445 
       0.564573         209.588         100.021 
       0.570708         205.131         97.6776 
       0.576825         202.244         95.4197 
       0.582926         199.571         93.2386 
       0.589034         197.581         91.1213 
       0.595184         195.452         89.0535 
       0.601379         192.729         87.0326 
       0.607522         189.497         85.0872 
       0.613639         188.174         83.2078 
       0.619772         184.237         81.3813 
       0.625918         182.924         79.6088 
       0.632068          180.22         77.8922 
       0.638161         179.153          76.245 
         0.6443         176.373         74.6355 
       0.650464         174.555         73.0673 
       0.656582         172.472         71.5546 
       0.662703         171.524         70.0829 
       0.668861         168.418         68.6432 
       0.675024         166.226         67.2426 
       0.681124         165.383         65.8954 
       0.687237         162.985         64.5833 
       0.693381         160.426         63.3019 
       0.699536         159.323         62.0541 
       0.705665         158.238         60.8459 
       0.711789         155.925         59.6716 
       0.717957         155.564         58.5204 
        0.72409          153.32         57.4061 
       0.730186         151.303         56.3274 
       0.736317         149.714         55.2707 
       0.742472         148.808         54.2374 
       0.748622          147.42         53.2316 
        0.75476         146.107         52.2538 
       0.760888         144.279         51.3024 
       0.767043          143.83         50.3712 
       0.773185         142.339         49.4655 
       0.779291         139.654         48.5874 
       0.785407         139.229         47.7297 
       0.791564         138.094         46.8875 
       0.797719          135.69         46.0662 
       0.803834         135.093         45.2699 
       0.809972         134.134         44.4897 
       0.816124         133.507         43.7263 
       0.822261         132.129         42.9829 
       0.828378         130.844         42.2592 
       0.834502         130.473         41.5517 
       0.840667         128.478         40.8559 
       0.846816         127.177         40.1782 
       0.852925         126.667         39.5202 
       0.859047         125.238         38.8757 
       0.865192         124.106         38.2436 
       0.871341         123.097         37.6252 
       0.877463         121.917         37.0234 
       0.883569         121.616         36.4364 
       0.889708         120.374         35.8592 
       0.895864         119.045         35.2932 
       0.902008         118.323         34.7406 
       0.908149         117.873         34.2003 
       0.914301         116.511         33.6707 
       0.920448         115.603         33.1528 
       0.926574         114.845         32.6477 
       0.932687          114.76         32.1544 
       0.938823          113.01         31.6695 
       0.944975         111.914         31.1935 
       0.951105         111.425         30.7292 
       0.957225         110.371         30.2751 
       0.963368         109.084         29.8288 
       0.969511         108.996         29.3915 
       0.975621         108.276         28.9654 
       0.981748         107.739         28.5467 
       0.987916         106.573         28.1337 
        0.99406         105.741         27.7305 
        1.00019         105.532          27.336 
        1.00632         104.362         26.9497 
        1.01246         103.864         26.5703 
        1.01859         103.011         26.1989 
        1.02471         102.059          25.835 
        1.03085         101.186         25.4769 
        1.03698         100.945         25.1264 
        1.04314         99.8904          24.781 
        1.04929         99.3774          24.443 
        1.05541          98.633         24.1126 
        1.06154         98.1972         23.7876 
        1.06769         97.9106         23.4681 
        1.07382         97.0392         23.1556 
        1.07993         96.3426         22.8495 
        1.08607         95.6188         22.5478 
        1.09222          95.425         22.2512 
        1.09836         94.5449         21.9603 
        1.10449         93.8291         21.6749 
        1.11063         93.1784         21.3944 
        1.11677         92.7759         21.1189 
         1.1229         91.9594         20.8488 
        1.12903         91.3976         20.5832 
        1.13518         91.3271          20.322 
        1.14131         90.5044         20.0655 
        1.14745         89.9343         19.8136 
        1.15359         89.3902         19.5661 
        1.15973          88.994         19.3226 
        1.16584         88.1194         19.0845 
        1.17197         87.6984           18.85 
        1.17811         87.2691         18.6188 
        1.18424         86.7293         18.3921 
        1.19038         86.4253         18.1686 
        1.19652         85.8386         17.9489 
        1.20267         85.0327         17.7328 
        1.20881         84.6268         17.5204 
        1.21495         84.0624         17.3118 
        1.22108         83.7772         17.1067 
         1.2272         82.8847         16.9054 
        1.23334         82.6177         16.7069 
        1.23949         82.1163         16.5111 
        1.24562         81.5966          16.319 
        1.25174         81.1669         16.1303 
        1.25789         80.8338          15.944 
        1.26402         80.1122          15.761 
        1.27014         79.8232         15.5813 
        1.27628         79.4316         15.4039 
        1.28244         78.9162         15.2289 
        1.28858         78.7399         15.0569 
        1.29471         78.0757          14.888 
        1.30084         77.7552         14.7218 
        1.30697         77.1745         14.5579 
        1.31312         76.7771         14.3963 
        1.31925         76.2669         14.2376 
        1.32537         75.9911         14.0815 
        1.33151         75.3006         13.9273 
        1.33765          75.046         13.7754 
        1.34378         74.6552         13.6261 
        1.34992         74.3133         13.4789 
        1.35606          73.881         13.3335 
         1.3622         73.2561         13.1906 
        1.36833         73.1434         13.0502 
        1.37445         72.6483         12.9118 
        1.38059         72.1035          12.775 
        1.38675         71.7275         12.6399 
        1.39288         71.4657         12.5073 
        1.39901         71.1265         12.3767 
        1.40515         70.6316         12.2476 
         1.4113         70.2945         12.1205 
        1.41742         70.1533         11.9956 
        1.42355         69.5882         11.8723 
         1.4297         69.4144         11.7503 
        1.43585         68.8321         11.6301 
        1.44198         68.4361         11.5121 
        1.44809         68.1687         11.3959 
        1.45423         67.8723         11.2809 
        1.46036         67.5998         11.1677 
        1.46649         67.1006          11.056 
        1.47263          66.715         10.9458 
        1.47877         66.5653         10.8372 
        1.48491         66.0825         10.7298 
        1.49104         65.8399         10.6241 
        1.49718         65.4091         10.5198 
        1.50333         65.1469         10.4167 
        1.50947         64.8287         10.3152 
         1.5156          64.473         10.2153 
        1.52172           64.14         10.1166 
        1.52787         63.9729         10.0191 
          1.534           63.45         9.92296 
        1.54013         63.0784          9.8282 
        1.54627         62.9657         9.73451 
        1.55241         62.4272         9.64203 
        1.55855         62.2741         9.55089 
        1.56467           61.95         9.46118 
         1.5708         61.6867         9.37237 
        1.57695         61.5381         9.28457 
        1.58308         60.9697          9.1981 
        1.58922         60.7483         9.11267 
        1.59535         60.6095         9.02836 
         1.6015         60.0263         8.94501 
        1.60764         59.9048         8.86274 
        1.61376         59.5649         8.78174 
        1.61989          59.291         8.70169 
        1.62604          59.055         8.62247 
        1.63218         58.8323         8.54428 
        1.63831         58.2674         8.46724 
        1.64444         58.1299         8.39112 
        1.65059         57.8948         8.31577 
        1.65673         57.5582         8.24142 
        1.66285         57.2259          8.1682 
        1.66898         57.0494         8.09584 
        1.67512         56.6061         8.02422 
        1.68127         56.4863         7.95341 
         1.6874         56.2031         7.88361 
        1.69353         55.9324          7.8147 
        1.69967         55.6107         7.74644 
        1.70581         55.4751         7.67904 
        1.71193         55.2835         7.61269 
        1.71806         54.7621         7.54699 
        1.72421         54.6415         7.48194 
        1.73035         54.3919         7.41773 
        1.73649         54.0862         7.35429 
        1.74262         53.8758         7.29164 
        1.74876         53.5887         7.22969 
        1.75489         53.3448         7.16859 
        1.76101         53.1666         7.10821 
        1.76715          52.775         7.04845 
        1.77329         52.5727          6.9893 
        1.77943         52.2479         6.93081 
        1.78557         52.0913         6.87308 
        1.79171         51.8254         6.81599 
        1.79785         51.5284         6.75955 
        1.80399         51.4673         6.70376 
        1.81012          51.137         6.64867 
        1.81625         50.7929         6.59423 
        1.82239         50.6296         6.54031 
        1.82853         50.3583         6.48703 
        1.83466         50.1314         6.43439 
        1.84078          49.882          6.3824 
        1.84692         49.5969         6.33089 
        1.85306         49.3951         6.27989 
         1.8592         49.1346         6.22953 
        1.86533         48.9617         6.17976 
        1.87147         48.6717         6.13047 
        1.87761          48.528          6.0817 
        1.88375         48.2829         6.03352 
        1.88988         48.1057         5.98591 
        1.89601         47.8501          5.9388 
        1.90215          47.598         5.89215 
        1.90829         47.4555         5.84603 
        1.91442         47.2307          5.8004 
        1.92056         46.9175          5.7553 
         1.9267         46.7503         5.71063 
        1.93284         46.4624         5.66641 
        1.93897         46.3444         5.62275 
        1.94509         46.0985         5.57964 
        1.95123         45.8841         5.53687 
        1.95737         45.6894         5.49453 
        1.96349         45.3915         5.45273 
        1.96964          45.301         5.41125 
        1.97578         45.0362         5.37019 
        1.98192          44.845         5.32963 
        1.98805         44.7413         5.28949 
        1.99419         44.4181         5.24976 
        2.00033         44.2389         5.21043 
        2.00647         44.0732          5.1715 
         2.0126         43.7045         5.13304 
        2.01874         43.6807         5.09492 
        2.02488         43.4786         5.05715 
        2.03101         43.2467         5.01983 
        2.03714         43.0684         4.98293 
        2.04328         42.8547         4.94635 
        2.04941         42.6317         4.91018 
        2.05554         42.4189         4.87439 
        2.06167         42.2835         4.83891 
        2.06781         42.0375         4.80379 
        2.07396         41.9076         4.76896 
        2.08009          41.753         4.73453 
        2.08622         41.4526         4.70049 
        2.09237         41.3182         4.66671 
        2.09851         41.1878         4.63326 
        2.10464         40.9891          4.6002 
        2.11077         40.7703          4.5675 
        2.11691         40.5361         4.53504 
        2.12305         40.4059          4.5029 
        2.12918          40.243         4.47115 
        2.13531          39.988          4.4397 
        2.14145         39.7983         4.40848 
         2.1476         39.6321         4.37752 
        2.15372          39.417         4.34702 
        2.15985         39.3173         4.31678 
        2.16599         39.1318         4.28674 
        2.17213         39.0136         4.25702 
        2.17827         38.7812         4.22759 
         2.1844         38.6053         4.19847 
        2.19054         38.3949         4.16961 
        2.19666         38.2214         4.14106 
         2.2028         38.0731         4.11275 
        2.20893         37.9589          4.0847 
        2.21508         37.8194         4.05687 
        2.22122         37.6135          4.0293 
        2.22736         37.4807         4.00204 
        2.23349         37.2945         3.97504 
        2.23962         37.0253         3.94828 
        2.24577         36.8712         3.92174 
         2.2519          36.707         3.89548 
        2.25802         36.6817          3.8695 
        2.26417         36.4179         3.84369 
        2.27031         36.2543         3.81809 
        2.27644          36.123         3.79279 
        2.28257         35.9538         3.76773 
        2.28872         35.7449         3.74285 
        2.29486         35.6661          3.7182 
        2.30099         35.5168         3.69382 
        2.30712         35.3657         3.66965 
        2.31326         35.1359         3.64565 
         2.3194         34.9756         3.62189 
        2.32553         34.8385         3.59837 
        2.33166         34.7185         3.57508 
         2.3378         34.5043         3.55196 
        2.34394         34.4394         3.52904 
        2.35007         34.2318         3.50635 
        2.35619         34.0584         3.48389 
        2.36233         33.9652         3.46157 
        2.36848         33.8435         3.43941 
        2.37462          33.605         3.41748 
        2.38075         33.5589         3.39577 
        2.38689         33.3988         3.37423 
        2.39303          33.219         3.35288 
        2.39916         33.0263         3.33173 
        2.40529         32.9143         3.31077 
        2.41143         32.8186         3.28998 
        2.41757         32.6541         3.26936 
         2.4237         32.5673         3.24895 
        2.42983         32.3606         3.22871 
        2.43598         32.2499          3.2086 
        2.44211         32.0861         3.18869 
        2.44823         31.9931           3.169 
        2.45437         31.7957         3.14941 
        2.46052         31.6287         3.12998 
        2.46665         31.5337         3.11074 
        2.47279         31.4028         3.09168 
        2.47892         31.2771         3.07276 
        2.48507         31.1265         3.05398 
         2.4912         31.0215         3.03539 
