# k  (h/Mpc)    Pcb(k)  (Mpc/h)^3    Pcb_linear(k)  (Mpc/h)^3
     0.00783031         5364.57         5430.33 
       0.013688         6285.37         6266.31 
       0.019231         5922.16         5908.56 
      0.0249154         4991.19         5037.52 
      0.0312784         3975.62         3977.66 
      0.0375637         3158.14         3137.03 
      0.0433917         2609.45          2613.1 
      0.0492413         2304.69         2297.64 
      0.0555754          2087.1          2106.6 
      0.0619321         1990.46         1974.63 
       0.067871         1823.99         1837.64 
      0.0738098          1647.4          1659.1 
      0.0800417          1422.8         1436.94 
      0.0862327         1215.59         1215.27 
      0.0921407         1047.12         1035.04 
      0.0982031         906.542         899.671 
       0.104506         833.879         812.699 
       0.110769         783.478         767.265 
       0.116806         751.409         743.128 
       0.122832         729.753         719.675 
       0.129052         683.594         682.539 
       0.135211         632.252         628.993 
       0.141259         578.024         565.759 
       0.147318         519.602          502.03 
       0.153489         462.394         446.388 
       0.159709         424.678         405.218 
       0.165845         402.532         379.488 
       0.171974         382.578         364.872 
       0.178125         372.136           355.6 
       0.184229         361.386         346.003 
        0.19034         340.006         332.037 
       0.196428         326.572         312.702 
       0.202534          308.48          289.52 
       0.208729         283.989         265.379 
       0.214876         262.348         243.996 
       0.220989         248.667         227.219 
       0.227147         234.652         215.233 
        0.23329          225.72         207.222 
       0.239377          220.75          201.42 
       0.245482         209.004         195.861 
       0.251667         205.479         189.078 
       0.257832         197.342         180.595 
       0.263955         187.885         170.813 
       0.270079         178.129         160.617 
        0.27624         171.929         150.985 
       0.282372         164.282         142.801 
        0.28843         156.937         136.364 
       0.294538         150.332         131.348 
       0.300721         147.921         127.272 
        0.30691          141.66         123.546 
       0.313033         137.763         119.693 
       0.319153          131.47         115.384 
       0.325316         128.559         110.613 
        0.33145         122.955         105.661 
       0.337538          119.78         100.881 
       0.343633         114.921         96.5139 
       0.349808         111.078         92.6706 
       0.355968         108.434         89.4316 
       0.362074         105.146         86.6594 
       0.368217         102.002         84.1315 
       0.374374         98.9057         81.6542 
       0.380519         96.7147         79.1102 
       0.386598         93.9061         76.4957 
       0.392688         91.8744         73.8059 
        0.39888         89.0995          71.108 
       0.405048          86.591          68.558 
       0.411186         84.4238          66.218 
       0.417313         82.0113         64.1176 
       0.423458          79.935         62.2156 
       0.429607         77.9426          60.455 
       0.435692         75.2681         58.7975 
       0.441815          74.382         57.1613 
       0.447964         72.9753         55.5113 
       0.454126         69.6466         53.8574 
       0.460267         68.7161         52.2348 
       0.466387         67.1557         50.6671 
        0.47254         65.7591         49.1652 
       0.478662         64.8408         47.7664 
       0.484765         62.7817         46.4687 
       0.490885          61.506         45.2437 
       0.497035         60.6935          44.069 
       0.503198         58.9027         42.9329 
       0.509342         57.5053         41.8288 
       0.515458         56.4512         40.7474 
       0.521598         55.5101         39.6787 
       0.527764         54.4852         38.6328 
       0.533884         53.6091          37.633 
           0.54         52.3114         36.6793 
       0.546137         51.6737         35.7654 
       0.552299         50.8244         34.8877 
       0.558452         49.3982         34.0477 
       0.564573         48.4972         33.2434 
       0.570708         47.7686         32.4635 
       0.576825         46.9162         31.7071 
       0.582926         45.8416         30.9699 
       0.589034         44.8392         30.2489 
       0.595184         44.2427         29.5433 
       0.601379         43.4759          28.856 
       0.607522         42.4769            28.2 
       0.613639         42.2369         27.5716 
       0.619772         41.2231         26.9638 
       0.625918         40.7968         26.3744 
       0.632068         40.2359          25.802 
       0.638161         39.5442         25.2503 
         0.6443         38.8655         24.7095 
       0.650464         38.2416         24.1817 
       0.656582         37.8371         23.6729 
       0.662703         37.0591         23.1787 
       0.668861         36.4953         22.6963 
       0.675024         35.9621         22.2279 
       0.681124         35.3411         21.7777 
       0.687237         34.6927         21.3393 
       0.693381         34.3996         20.9111 
       0.699536         33.6707         20.4938 
       0.705665         33.7254         20.0897 
       0.711789         32.8202         19.6969 
       0.717957         32.4148         19.3119 
        0.72409         31.9815         18.9395 
       0.730186         31.4694         18.5792 
       0.736317         31.2479         18.2265 
       0.742472         30.7134         17.8818 
       0.748622         30.3903         17.5464 
        0.75476         29.9578         17.2204 
       0.760888          29.462         16.9033 
       0.767043         29.0964         16.5929 
       0.773185          28.682          16.291 
       0.779291         28.5298         15.9982 
       0.785407         28.2484         15.7123 
       0.791564         27.7717         15.4315 
       0.797719         27.1571         15.1577 
       0.803834            27.1         14.8924 
       0.809972          26.708         14.6324 
       0.816124         26.2769         14.3782 
       0.822261         26.0194         14.1307 
       0.828378          25.854         13.8899 
       0.834502         25.5298         13.6545 
       0.840667         25.2203         13.4231 
       0.846816         24.7821         13.1978 
       0.852925          24.577         12.9791 
       0.859047         24.2719          12.765 
       0.865192         24.0169          12.555 
       0.871341         23.9034         12.3496 
       0.877463         23.4318         12.1498 
       0.883569         23.1969         11.9549 
       0.889708         22.9544         11.7634 
       0.895864         22.7078         11.5755 
       0.902008         22.5097         11.3922 
       0.908149         22.2729          11.213 
       0.914301         22.1933         11.0373 
       0.920448         21.8366         10.8656 
       0.926574         21.6037         10.6982 
       0.932687          21.377         10.5347 
       0.938823         21.0798          10.374 
       0.944975         20.9463         10.2163 
       0.951105         20.7246         10.0625 
       0.957225         20.4674         9.91212 
       0.963368           20.44         9.76431 
       0.969511         20.1855         9.61952 
       0.975621         20.0308         9.47847 
       0.981748         19.7171         9.33989 
       0.987916         19.5967         9.20321 
        0.99406         19.4081          9.0698 
        1.00019          19.176          8.9393 
        1.00632         19.0453          8.8115 
        1.01246         18.9587         8.68601 
        1.01859         18.6212         8.56318 
        1.02471         18.5775         8.44288 
        1.03085         18.4068         8.32448 
        1.03698         18.0998         8.20862 
        1.04314         18.0024         8.09448 
        1.04929         17.8154         7.98279 
        1.05541         17.6269         7.87366 
        1.06154         17.5488         7.76631 
        1.06769         17.4276         7.66081 
        1.07382         17.2398         7.55762 
        1.07993         17.1272         7.45658 
        1.08607          16.911         7.35697 
        1.09222         16.8332         7.25909 
        1.09836         16.6406         7.16311 
        1.10449         16.5236         7.06899 
        1.11063         16.3066         6.97647 
        1.11677         16.2579         6.88563 
         1.1229         16.1559         6.79658 
        1.12903         15.9597         6.70904 
        1.13518          15.824         6.62297 
        1.14131         15.7686         6.53846 
        1.14745         15.5928         6.45548 
        1.15359         15.5405         6.37393 
        1.15973         15.3487         6.29375 
        1.16584         15.1754         6.21532 
        1.17197         15.1734         6.13812 
        1.17811         14.9742           6.062 
        1.18424         14.8609         5.98739 
        1.19038         14.8068         5.91383 
        1.19652         14.7016         5.84153 
        1.20267         14.5807         5.77045 
        1.20881         14.4508         5.70057 
        1.21495         14.3701         5.63195 
        1.22108         14.2391         5.56448 
         1.2272         14.1111         5.49827 
        1.23334         14.0563           5.433 
        1.23949         13.9206         5.36862 
        1.24562         13.8393         5.30547 
        1.25174         13.7585         5.24343 
        1.25789         13.6281          5.1822 
        1.26402         13.5793         5.12205 
        1.27014         13.4176         5.06301 
        1.27628         13.3253         5.00473 
        1.28244         13.2644         4.94725 
        1.28858         13.2044         4.89075 
        1.29471         13.0909         4.83527 
        1.30084         12.9871         4.78069 
        1.30697          12.907         4.72689 
        1.31312         12.7696         4.67383 
        1.31925         12.6928         4.62176 
        1.32537         12.6508         4.57053 
        1.33151         12.5502          4.5199 
        1.33765         12.4856         4.47007 
        1.34378         12.3957         4.42109 
        1.34992         12.2599         4.37281 
        1.35606         12.2441         4.32515 
         1.3622         12.1664         4.27829 
        1.36833         12.0439         4.23224 
        1.37445         12.0265         4.18689 
        1.38059         11.9097         4.14206 
        1.38675         11.7717         4.09779 
        1.39288          11.762         4.05434 
        1.39901         11.6713         4.01154 
        1.40515         11.6266         3.96927 
         1.4113          11.533         3.92762 
        1.41742          11.435         3.88673 
        1.42355         11.3943         3.84634 
         1.4297         11.3559         3.80641 
        1.43585         11.2801         3.76706 
        1.44198          11.199         3.72841 
        1.44809          11.117         3.69038 
        1.45423         11.0594         3.65275 
        1.46036         10.9999          3.6157 
        1.46649         10.9484         3.57916 
        1.47263         10.8464         3.54309 
        1.47877         10.7948         3.50753 
        1.48491         10.7707         3.47241 
        1.49104         10.7048         3.43785 
        1.49718         10.6136         3.40372 
        1.50333         10.5687         3.37001 
        1.50947         10.5012         3.33683 
         1.5156         10.4294         3.30414 
        1.52172         10.3815         3.27189 
        1.52787         10.3365         3.24001 
          1.534         10.2523         3.20859 
        1.54013         10.1751         3.17762 
        1.54627         10.1244           3.147 
        1.55241         10.0751         3.11678 
        1.55855         10.0111           3.087 
        1.56467         9.96087          3.0577 
         1.5708          9.9524         3.02869 
        1.57695         9.85599         3.00001 
        1.58308         9.82581         2.97178 
        1.58922          9.7754         2.94389 
        1.59535         9.70325         2.91636 
         1.6015         9.64205         2.88915 
        1.60764         9.60852          2.8623 
        1.61376         9.54512         2.83587 
        1.61989         9.48465         2.80975 
        1.62604         9.47292          2.7839 
        1.63218         9.40829         2.75839 
        1.63831         9.36986         2.73326 
        1.64444         9.28444         2.70843 
        1.65059         9.24065         2.68385 
        1.65673         9.22145         2.65961 
        1.66285         9.13945         2.63573 
        1.66898         9.13429         2.61214 
        1.67512         9.08007         2.58879 
        1.68127         9.03773          2.5657 
         1.6874          8.9708         2.54295 
        1.69353         8.90584         2.52048 
        1.69967         8.88609         2.49824 
        1.70581         8.85358         2.47627 
        1.71193         8.79395         2.45465 
        1.71806         8.74917         2.43325 
        1.72421         8.70699         2.41205 
        1.73035         8.65424         2.39113 
        1.73649         8.62948         2.37047 
        1.74262         8.60836         2.35007 
        1.74876         8.55789         2.32989 
        1.75489         8.51177         2.30999 
        1.76101         8.44685         2.29033 
        1.76715         8.43576         2.27087 
        1.77329         8.36596         2.25162 
        1.77943         8.33289         2.23258 
        1.78557         8.31439         2.21378 
        1.79171         8.27646          2.1952 
        1.79785         8.20539         2.17683 
        1.80399         8.18553         2.15868 
        1.81012         8.16952         2.14075 
        1.81625          8.1108         2.12304 
        1.82239         8.07163          2.1055 
        1.82853         8.01932         2.08817 
        1.83466         7.97662         2.07105 
        1.84078         7.94679         2.05414 
        1.84692         7.92643         2.03739 
        1.85306         7.87454         2.02081 
         1.8592           7.847         2.00444 
        1.86533         7.82592         1.98826 
        1.87147         7.78041         1.97224 
        1.87761         7.75669         1.95639 
        1.88375         7.68684         1.94073 
        1.88988         7.67559         1.92526 
        1.89601         7.64764         1.90995 
        1.90215         7.60435         1.89479 
        1.90829         7.56899         1.87981 
        1.91442         7.53968         1.86498 
        1.92056         7.50554         1.85033 
         1.9267         7.47223         1.83583 
        1.93284         7.43118         1.82146 
        1.93897         7.40165         1.80728 
        1.94509         7.36372         1.79328 
        1.95123         7.34804          1.7794 
        1.95737         7.31955         1.76565 
        1.96349          7.2852         1.75208 
        1.96964         7.23726         1.73861 
        1.97578         7.20871         1.72528 
        1.98192         7.18312         1.71212 
        1.98805         7.16514         1.69909 
        1.99419         7.11634          1.6862 
        2.00033         7.09136         1.67343 
        2.00647         7.06174         1.66081 
         2.0126         7.03931         1.64833 
        2.01874         6.99692         1.63596 
        2.02488         6.95709         1.62371 
        2.03101         6.95389          1.6116 
        2.03714         6.91946         1.59963 
        2.04328         6.88979         1.58777 
        2.04941          6.8435         1.57604 
        2.05554         6.83539         1.56443 
        2.06167         6.79507         1.55293 
        2.06781         6.78418         1.54154 
        2.07396         6.76447         1.53025 
        2.08009         6.73628         1.51909 
        2.08622         6.66893         1.50805 
        2.09237         6.67957         1.49711 
        2.09851         6.64365         1.48627 
        2.10464         6.60976         1.47555 
        2.11077         6.57212         1.46495 
        2.11691         6.55441         1.45444 
        2.12305         6.53998         1.44402 
        2.12918         6.50234         1.43374 
        2.13531         6.48362         1.42355 
        2.14145         6.45449         1.41344 
         2.1476         6.44768         1.40341 
        2.15372         6.41002         1.39354 
        2.15985         6.37423         1.38374 
        2.16599         6.36765         1.37402 
        2.17213          6.3322          1.3644 
        2.17827         6.31561         1.35487 
         2.1844         6.28549         1.34544 
        2.19054          6.2561          1.3361 
        2.19666         6.24403         1.32686 
         2.2028         6.21517         1.31769 
        2.20893         6.19587         1.30861 
        2.21508         6.16145         1.29961 
        2.22122         6.13625         1.29069 
        2.22736         6.12172         1.28187 
        2.23349         6.08749         1.27313 
        2.23962         6.07486         1.26447 
        2.24577         6.04941         1.25589 
         2.2519         6.03197         1.24739 
        2.25802         6.00241         1.23899 
        2.26417         5.98652         1.23064 
        2.27031          5.9453         1.22236 
        2.27644         5.93562         1.21418 
        2.28257         5.91244         1.20608 
        2.28872         5.89571         1.19803 
        2.29486         5.87123         1.19006 
        2.30099         5.86827         1.18218 
        2.30712         5.82767         1.17437 
        2.31326         5.80774         1.16661 
         2.3194         5.78734         1.15893 
        2.32553         5.76352         1.15133 
        2.33166         5.73918          1.1438 
         2.3378         5.72399         1.13633 
        2.34394         5.70702         1.12892 
        2.35007          5.6776         1.12159 
        2.35619         5.65176         1.11434 
        2.36233         5.63736         1.10713 
        2.36848         5.62876         1.09997 
        2.37462         5.60523         1.09288 
        2.38075         5.57405         1.08587 
        2.38689         5.55654         1.07891 
        2.39303         5.53749         1.07202 
        2.39916         5.52948         1.06519 
        2.40529         5.50203         1.05842 
        2.41143          5.4837          1.0517 
        2.41757         5.46994         1.04505 
         2.4237         5.45166         1.03846 
        2.42983         5.42106         1.03192 
        2.43598         5.42199         1.02543 
        2.44211          5.3925           1.019 
        2.44823         5.36903         1.01265 
        2.45437         5.36251         1.00633 
        2.46052         5.33143         1.00005 
        2.46665         5.31312        0.993848 
        2.47279         5.29298        0.987695 
        2.47892         5.28224        0.981591 
        2.48507          5.2543        0.975532 
         2.4912         5.24415        0.969536 
