# k  (h/Mpc)    P(k)  (Mpc/h)^3    P_linear(k)  (Mpc/h)^3
     0.00783031         12538.6         12716.3 
       0.013688         16470.3           16345 
       0.019231         17168.1         17167.7 
      0.0249154         16096.4         16455.7 
      0.0312784         14583.2         14788.7 
      0.0375637         12918.9         12984.3 
      0.0433917         11269.3         11538.9 
      0.0492413         10281.9           10423 
      0.0555754         9198.39         9553.65 
      0.0619321         8838.94         8905.46 
       0.067871         8064.18         8370.85 
      0.0738098         7516.28         7812.12 
      0.0800417          6798.6         7161.35 
      0.0862327         6222.18         6470.67 
      0.0921407         5699.27         5824.15 
      0.0982031         5104.08         5231.16 
       0.104506         4768.54         4730.82 
       0.110769         4398.15          4359.9 
       0.116806         4123.94         4102.51 
       0.122832         3937.25         3908.66 
       0.129052         3675.64         3733.77 
       0.135211          3505.5         3552.13 
       0.141259         3365.77         3348.89 
       0.147318         3179.89         3121.94 
       0.153489         2920.21         2882.01 
       0.159709         2759.32         2652.46 
       0.165845         2649.79         2455.65 
       0.171974          2492.5          2297.3 
       0.178125         2370.44         2175.81 
       0.184229          2274.3         2083.69 
        0.19034         2152.33         2007.22 
       0.196428          2118.1         1934.13 
       0.202534         2044.15         1854.88 
       0.208729         1956.28         1764.82 
       0.214876         1873.79            1668 
       0.220989         1813.15         1570.25 
       0.227147         1730.81          1477.3 
        0.23329         1663.09         1395.55 
       0.239377         1638.13         1327.88 
       0.245482          1537.3         1272.63 
       0.251667         1530.08         1226.37 
       0.257832         1472.63         1185.61 
       0.263955         1426.54         1146.16 
       0.270079         1380.53         1104.87 
        0.27624         1366.82         1060.54 
       0.282372         1308.94         1014.36 
        0.28843          1300.7          968.75 
       0.294538         1237.55         924.972 
       0.300721         1232.05         884.794 
        0.30691         1182.64         849.557 
       0.313033         1160.55         819.405 
       0.319153         1141.37         792.913 
       0.325316         1104.06         768.435 
        0.33145         1079.83         744.843 
       0.337538         1063.83         721.238 
       0.343633         1038.79         697.004 
       0.349808         1005.44         672.111 
       0.355968         999.314         647.495 
       0.362074         988.397         624.107 
       0.368217         958.936         602.154 
       0.374374         922.891         582.074 
       0.380519         923.505         563.912 
       0.386598         900.131         547.442 
       0.392688         897.121         532.014 
        0.39888         871.346         516.899 
       0.405048           860.1         502.056 
       0.411186         847.892         487.366 
       0.417313         830.628         472.754 
       0.423458         817.593         458.368 
       0.429607         805.567         444.473 
       0.435692         789.298         431.388 
       0.441815         784.321         419.013 
       0.447964         767.353         407.414 
       0.454126         758.336         396.486 
       0.460267         742.333         386.149 
       0.466387         733.888          376.25 
        0.47254         725.957         366.557 
       0.478662         721.184         357.073 
       0.484765         701.285         347.797 
       0.490885         696.569         338.715 
       0.497035         682.325         329.853 
       0.503198         677.487         321.303 
       0.509342         670.381         313.161 
       0.515458         666.557         305.451 
       0.521598         651.227         298.059 
       0.527764         638.053         290.935 
       0.533884         637.666         284.116 
           0.54         629.998         277.513 
       0.546137         626.227         271.059 
       0.552299          616.48         264.724 
       0.558452         613.045         258.553 
       0.564573         604.001          252.59 
       0.570708         597.612         246.809 
       0.576825         581.559         241.249 
       0.582926         583.834         235.899 
       0.589034          578.54         230.729 
       0.595184         572.818         225.703 
       0.601379         565.462         220.809 
       0.607522         557.652         216.104 
       0.613639         557.984         211.549 
       0.619772         544.137         207.097 
       0.625918         542.248         202.746 
       0.632068         535.094         198.508 
       0.638161         533.304         194.428 
         0.6443         523.133         190.439 
       0.650464         521.173          186.56 
       0.656582         518.747         182.827 
       0.662703         515.567         179.201 
       0.668861         506.428         175.656 
       0.675024         502.684         172.203 
       0.681124         499.585         168.877 
       0.687237         495.159          165.63 
       0.693381         489.077         162.452 
       0.699536         481.894         159.352 
       0.705665         481.038         156.347 
       0.711789          477.54         153.422 
       0.717957         473.229         150.554 
        0.72409         470.242         147.775 
       0.730186         464.186         145.085 
       0.736317         460.863         142.447 
       0.742472         459.045         139.867 
       0.748622         453.599         137.353 
        0.75476         447.856         134.908 
       0.760888          443.37         132.526 
       0.767043         444.044         130.193 
       0.773185         438.537         127.922 
       0.779291         433.762         125.718 
       0.785407         431.107         123.564 
       0.791564         426.117         121.446 
       0.797719         423.858          119.38 
       0.803834         420.315         117.375 
       0.809972         418.417          115.41 
       0.816124         417.813         113.485 
       0.822261         411.348          111.61 
       0.828378         409.267         109.783 
       0.834502         405.524         107.996 
       0.840667         401.613         106.238 
       0.846816         399.992         104.523 
       0.852925         396.424         102.858 
       0.859047         395.441         101.226 
       0.865192         390.886         99.6244 
       0.871341         387.788         98.0566 
       0.877463         386.303         96.5299 
       0.883569         383.292         95.0399 
       0.889708         380.406         93.5741 
       0.895864         377.237         92.1357 
       0.902008         375.008         90.7308 
       0.908149         372.029         89.3562 
       0.914301         368.519         88.0082 
       0.920448         366.248         86.6895 
       0.926574         361.584         85.4025 
       0.932687         362.109         84.1447 
       0.938823         357.766         82.9078 
       0.944975         357.683         81.6931 
       0.951105          353.45         80.5072 
       0.957225         351.124         79.3471 
       0.963368         347.326         78.2061 
       0.969511           345.9         77.0876 
       0.975621         343.232         75.9971 
       0.981748         342.593         74.9251 
       0.987916         339.925         73.8671 
        0.99406         334.362         72.8337 
        1.00019         334.123         71.8222 
        1.00632         332.157         70.8309 
        1.01246         329.375          69.857 
        1.01859         329.832          68.903 
        1.02471         324.865         67.9682 
        1.03085         322.781         67.0476 
        1.03698         321.905         66.1461 
        1.04314         318.656         65.2575 
        1.04929         315.958         64.3873 
        1.05541         316.232         63.5367 
        1.06154         311.296         62.6993 
        1.06769         310.282         61.8759 
        1.07382          308.49         61.0701 
        1.07993         306.308         60.2806 
        1.08607         305.356         59.5018 
        1.09222         302.713         58.7361 
        1.09836         300.548         57.9848 
        1.10449          297.52         57.2477 
        1.11063         294.988         56.5226 
        1.11677          294.83         55.8104 
         1.1229         292.894         55.1118 
        1.12903         290.501         54.4246 
        1.13518         288.259         53.7487 
        1.14131         286.589         53.0846 
        1.14745         285.447         52.4322 
        1.15359         283.095         51.7908 
        1.15973         281.569         51.1598 
        1.16584         279.267         50.5423 
        1.17197         278.936         49.9341 
        1.17811         275.932         49.3341 
        1.18424          273.96         48.7457 
        1.19038         272.893         48.1654 
        1.19652         270.722         47.5947 
        1.20267          270.04         47.0333 
        1.20881         267.925         46.4811 
        1.21495         265.843         45.9387 
        1.22108           264.5         45.4051 
         1.2272         262.659         44.8812 
        1.23334         261.012         44.3644 
        1.23949         259.712         43.8546 
        1.24562         258.298         43.3542 
        1.25174         255.813         42.8624 
        1.25789         253.994         42.3768 
        1.26402         252.619         41.8996 
        1.27014         250.939         41.4309 
        1.27628          249.67         40.9681 
        1.28244         249.136         40.5114 
        1.28858         246.405         40.0624 
        1.29471         244.415         39.6212 
        1.30084         243.507         39.1871 
        1.30697         241.871         38.7588 
        1.31312         239.642         38.3364 
        1.31925         239.547         37.9216 
        1.32537         238.128         37.5134 
        1.33151         235.724         37.1098 
        1.33765         234.139         36.7123 
        1.34378         233.329         36.3215 
        1.34992         231.972         35.9362 
        1.35606         231.649         35.5556 
         1.3622         229.536         35.1812 
        1.36833          227.31         34.8132 
        1.37445         226.344         34.4506 
        1.38059         224.425         34.0921 
        1.38675         223.693         33.7379 
        1.39288         221.944         33.3901 
        1.39901         221.585         33.0474 
        1.40515         219.528         32.7088 
         1.4113          218.23          32.375 
        1.41742         216.847         32.0472 
        1.42355         215.322         31.7233 
         1.4297         213.959          31.403 
        1.43585         212.745         31.0872 
        1.44198         211.532          30.777 
        1.44809         210.649         30.4716 
        1.45423         208.987         30.1692 
        1.46036         208.085         29.8715 
        1.46649         206.323         29.5777 
        1.47263         204.931         29.2877 
        1.47877         204.011         29.0017 
        1.48491         202.397         28.7191 
        1.49104         201.685         28.4408 
        1.49718         199.717          28.166 
        1.50333         199.053         27.8945 
        1.50947          197.99          27.627 
         1.5156         196.104         27.3635 
        1.52172         195.323         27.1035 
        1.52787          193.82         26.8463 
          1.534         193.311         26.5927 
        1.54013         191.618         26.3427 
        1.54627         190.836         26.0955 
        1.55241         189.343         25.8514 
        1.55855         188.222         25.6108 
        1.56467         186.994         25.3739 
         1.5708         186.602         25.1394 
        1.57695         184.889         24.9075 
        1.58308         184.148          24.679 
        1.58922         182.492         24.4533 
        1.59535         181.248         24.2305 
         1.6015         180.889         24.0102 
        1.60764         179.456         23.7927 
        1.61376         178.104         23.5785 
        1.61989         177.364         23.3668 
        1.62604         176.332         23.1572 
        1.63218         175.313         22.9503 
        1.63831         174.188         22.7464 
        1.64444         173.369          22.545 
        1.65059         171.934         22.3455 
        1.65673         170.911         22.1486 
        1.66285         170.247         21.9547 
        1.66898         168.962          21.763 
        1.67512         168.679         21.5733 
        1.68127         166.703         21.3856 
         1.6874         165.765         21.2006 
        1.69353         165.211          21.018 
        1.69967         163.872          20.837 
        1.70581         163.062         20.6583 
        1.71193         161.866         20.4823 
        1.71806         161.436          20.308 
        1.72421         160.153         20.1354 
        1.73035         159.628          19.965 
        1.73649         158.655         19.7966 
        1.74262         157.384         19.6303 
        1.74876          156.73         19.4658 
        1.75489         155.524         19.3035 
        1.76101         154.573         19.1432 
        1.76715         154.042         18.9844 
        1.77329         153.322         18.8272 
        1.77943         152.128         18.6718 
        1.78557         151.351         18.5183 
        1.79171         150.471         18.3666 
        1.79785           149.4         18.2165 
        1.80399         148.551         18.0681 
        1.81012         147.659         17.9216 
        1.81625         147.038         17.7768 
        1.82239         146.124         17.6334 
        1.82853         145.511         17.4916 
        1.83466          144.42         17.3515 
        1.84078         143.832         17.2131 
        1.84692         142.387          17.076 
        1.85306         142.252         16.9402 
         1.8592         141.057         16.8062 
        1.86533         140.118         16.6736 
        1.87147         139.241         16.5423 
        1.87761         138.912         16.4124 
        1.88375         137.374          16.284 
        1.88988         136.871         16.1572 
        1.89601         136.098         16.0316 
        1.90215         135.289         15.9073 
        1.90829         134.726         15.7843 
        1.91442         133.908         15.6626 
        1.92056         133.137         15.5424 
         1.9267         132.518         15.4232 
        1.93284         131.735         15.3053 
        1.93897          130.76         15.1888 
        1.94509         130.273         15.0738 
        1.95123         129.621         14.9597 
        1.95737         128.927         14.8466 
        1.96349         128.149         14.7351 
        1.96964         127.052         14.6243 
        1.97578         126.303         14.5147 
        1.98192         125.921         14.4064 
        1.98805         124.864         14.2992 
        1.99419         124.375         14.1931 
        2.00033         123.612          14.088 
        2.00647         123.168          13.984 
         2.0126         121.995         13.8812 
        2.01874         121.576         13.7794 
        2.02488         121.089         13.6784 
        2.03101         119.962         13.5786 
        2.03714          119.45           13.48 
        2.04328         118.814         13.3822 
        2.04941          118.11         13.2854 
        2.05554         117.338         13.1897 
        2.06167         117.065         13.0948 
        2.06781         116.393         13.0008 
        2.07396         115.385         12.9076 
        2.08009          114.92         12.8155 
        2.08622         114.319         12.7244 
        2.09237          113.45          12.634 
        2.09851         112.971         12.5445 
        2.10464          112.43          12.456 
        2.11077         111.866         12.3684 
        2.11691          111.26         12.2815 
        2.12305         110.196         12.1954 
        2.12918         109.797         12.1104 
        2.13531          109.24         12.0261 
        2.14145         108.488         11.9425 
         2.1476         107.772         11.8596 
        2.15372         107.424         11.7778 
        2.15985         107.013         11.6968 
        2.16599         106.267         11.6163 
        2.17213          105.51         11.5366 
        2.17827         105.199         11.4577 
         2.1844         104.347         11.3796 
        2.19054         103.931         11.3023 
        2.19666         103.451         11.2257 
         2.2028         102.741         11.1498 
        2.20893         102.186         11.0745 
        2.21508         101.533         10.9999 
        2.22122         101.077         10.9259 
        2.22736         100.591         10.8528 
        2.23349         100.056         10.7803 
        2.23962         99.3142         10.7085 
        2.24577         99.0499         10.6373 
         2.2519         98.5834         10.5668 
        2.25802           97.58          10.497 
        2.26417         97.3061         10.4277 
        2.27031         96.6996          10.359 
        2.27644         96.1807         10.2911 
        2.28257          95.707         10.2238 
        2.28872          95.162         10.1569 
        2.29486         94.6493         10.0907 
        2.30099         94.2314         10.0252 
        2.30712          93.669         9.96029 
        2.31326         93.0709         9.89582 
         2.3194         92.5254         9.83195 
        2.32553         92.1231         9.76876 
        2.33166         91.6486         9.70615 
         2.3378         91.1654           9.644 
        2.34394         90.7693         9.58238 
        2.35007         90.1585         9.52138 
        2.35619         89.7265         9.46099 
        2.36233           89.22         9.40098 
        2.36848         88.6098         9.34137 
        2.37462         88.2368          9.2824 
        2.38075         87.8061         9.22399 
        2.38689         87.2701         9.16604 
        2.39303         86.6075          9.1086 
        2.39916         86.2947         9.05171 
        2.40529          85.982         8.99531 
        2.41143         85.4498         8.93935 
        2.41757         84.9879         8.88385 
         2.4237          84.524         8.82891 
        2.42983         84.0052         8.77445 
        2.43598         83.5873         8.72031 
        2.44211          83.304         8.66671 
        2.44823         82.7956         8.61368 
        2.45437         82.1675         8.56095 
        2.46052         81.7145         8.50861 
        2.46665         81.3933         8.45681 
        2.47279         80.9252         8.40546 
        2.47892         80.5997          8.3545 
        2.48507         80.0733         8.30391 
         2.4912         79.7874         8.25384 
