# k  (h/Mpc)    Pcb(k)  (Mpc/h)^3    Pcb_linear(k)  (Mpc/h)^3
     0.00783031         13491.2         13686.2 
       0.013688         17077.9         16943.1 
       0.019231           17029         17000.4 
      0.0249154         15192.2         15494.7 
      0.0312784         13096.2         13226.1 
      0.0375637         11214.5         11208.6 
      0.0433917         9663.82         9824.44 
      0.0492413         8821.93         8888.71 
      0.0555754         7962.94         8210.87 
      0.0619321         7647.55         7655.22 
       0.067871         6898.97          7094.4 
      0.0738098         6270.62         6440.23 
      0.0800417         5499.66         5693.23 
      0.0862327         4891.99         4981.67 
      0.0921407         4420.17          4409.8 
      0.0982031         3960.47         3970.34 
       0.104506         3756.76         3663.42 
       0.110769         3527.84         3464.36 
       0.116806         3348.06         3314.95 
       0.122832         3195.32         3157.91 
       0.129052         2942.41         2959.09 
       0.135211         2741.77            2726 
       0.141259          2576.2         2484.49 
       0.147318         2393.69         2258.93 
       0.153489          2186.2         2068.66 
       0.159709         2073.68         1925.85 
       0.165845         2008.47         1827.25 
       0.171974         1912.72         1755.35 
       0.178125          1830.2         1691.59 
       0.184229         1755.06         1621.97 
        0.19034          1644.5         1539.18 
       0.196428         1599.63         1445.61 
       0.202534         1529.42         1348.58 
       0.208729         1448.14          1256.6 
       0.214876         1380.22         1178.95 
       0.220989         1334.71         1117.67 
       0.227147         1278.49         1070.02 
        0.23329         1232.14         1031.53 
       0.239377         1211.95         996.471 
       0.245482         1134.54         959.709 
       0.251667         1125.42         918.684 
       0.257832         1079.15         874.533 
       0.263955         1041.19         829.949 
       0.270079         1002.71         787.692 
        0.27624         990.305         749.854 
       0.282372         949.418         717.835 
        0.28843         937.263         691.188 
       0.294538         890.313         667.815 
       0.300721         886.816         645.831 
        0.30691         848.911         623.872 
       0.313033         832.197         601.401 
       0.319153         813.416         578.217 
       0.325316         787.533          554.86 
        0.33145         767.262          532.53 
       0.337538         755.044         512.045 
       0.343633         734.799         493.594 
       0.349808         709.093         476.883 
       0.355968          704.76         461.784 
       0.362074         695.413         447.718 
       0.368217         674.849         433.971 
       0.374374         646.543         420.249 
       0.380519         645.996         406.544 
       0.386598         628.443         393.173 
       0.392688          625.81         380.192 
        0.39888         607.478         367.691 
       0.405048         596.872         356.101 
       0.411186         588.056         345.387 
       0.417313         576.245         335.417 
       0.423458         565.515         325.955 
       0.429607         557.082         316.819 
       0.435692         543.868         307.989 
       0.441815         539.458         299.283 
       0.447964         528.204         290.716 
       0.454126         518.547         282.383 
       0.460267         508.434          274.42 
       0.466387         502.951         266.873 
        0.47254         494.542         259.662 
       0.478662         492.693         252.845 
       0.484765         476.474         246.361 
       0.490885         472.563         240.103 
       0.497035         463.651         233.995 
       0.503198          458.27         228.037 
       0.509342          454.61         222.262 
       0.515458          450.47         216.689 
       0.521598         439.354         211.276 
       0.527764          431.73         206.037 
       0.533884         429.561          201.04 
           0.54           423.8         196.251 
       0.546137         421.691         191.629 
       0.552299         413.579         187.145 
       0.558452          411.61         182.806 
       0.564573         405.653         178.612 
       0.570708         399.278         174.531 
       0.576825         390.205         170.583 
       0.582926         389.288         166.767 
       0.589034         385.692         163.065 
       0.595184         382.195         159.455 
       0.601379         376.763         155.935 
       0.607522         371.406         152.558 
       0.613639         369.996         149.302 
       0.619772         361.312         146.139 
       0.625918         360.346         143.062 
       0.632068         354.606         140.072 
       0.638161         353.243          137.19 
         0.6443         347.115         134.365 
       0.650464         344.337         131.609 
       0.656582         342.143          128.95 
       0.662703         340.753         126.366 
       0.668861         334.672         123.842 
       0.675024         331.384         121.388 
       0.681124         329.136         119.028 
       0.687237         325.725         116.728 
       0.693381         321.133         114.479 
       0.699536         317.804         112.285 
       0.705665         315.367         110.157 
       0.711789         313.392         108.087 
       0.717957          310.92         106.055 
        0.72409         308.194         104.087 
       0.730186         304.489         102.182 
       0.736317         301.527         100.314 
       0.742472         299.977         98.4878 
       0.748622         296.887         96.7093 
        0.75476         293.837         94.9795 
       0.760888         290.601         93.2953 
       0.767043          290.94         91.6459 
       0.773185          287.19         90.0404 
       0.779291         282.565         88.4829 
       0.785407         281.883         86.9604 
       0.791564          278.45         85.4644 
       0.797719         276.016         84.0047 
       0.803834           273.9         82.5888 
       0.809972         272.817         81.2008 
       0.816124          272.24         79.8421 
       0.822261         268.466         78.5185 
       0.828378         266.269         77.2293 
       0.834502         264.896         75.9683 
       0.840667         261.827         74.7277 
       0.846816         260.176         73.5186 
       0.852925         258.759         72.3443 
       0.859047         256.733         71.1935 
       0.865192         253.777         70.0643 
       0.871341         251.814         68.9591 
       0.877463         250.449         67.8831 
       0.883569         249.368          66.833 
       0.889708         246.611         65.8001 
       0.895864         244.128         64.7866 
       0.902008         242.943         63.7968 
       0.908149         241.664         62.8285 
       0.914301         238.555         61.8789 
       0.920448         237.142         60.9501 
       0.926574         235.065         60.0438 
       0.932687         235.264          59.158 
       0.938823         232.336         58.2872 
       0.944975         231.131          57.432 
       0.951105         229.689         56.5972 
       0.957225         227.816         55.7806 
       0.963368         224.864         54.9774 
       0.969511         224.017         54.1903 
       0.975621         221.895         53.4229 
       0.981748         221.997         52.6686 
       0.987916         219.809         51.9242 
        0.99406         217.206         51.1971 
        1.00019         217.137         50.4856 
        1.00632         215.378         49.7883 
        1.01246         213.639         49.1033 
        1.01859         213.555         48.4324 
        1.02471         210.561          47.775 
        1.03085         208.662         47.1276 
        1.03698         207.835         46.4938 
        1.04314         205.877          45.869 
        1.04929         204.706         45.2573 
        1.05541         204.776         44.6593 
        1.06154         202.089         44.0708 
        1.06769         201.776         43.4921 
        1.07382         200.056         42.9258 
        1.07993         198.411          42.371 
        1.08607         197.838         41.8238 
        1.09222         196.537         41.2858 
        1.09836          194.93          40.758 
        1.10449         192.868         40.2401 
        1.11063         191.265         39.7308 
        1.11677         190.984         39.2305 
         1.1229         189.435         38.7399 
        1.12903         188.488         38.2572 
        1.13518         187.333         37.7825 
        1.14131         185.644         37.3161 
        1.14745         185.512          36.858 
        1.15359         183.928         36.4075 
        1.15973         182.718         35.9644 
        1.16584         181.091         35.5308 
        1.17197         180.699         35.1037 
        1.17811         179.153         34.6824 
        1.18424         178.182         34.2693 
        1.19038         177.627         33.8618 
        1.19652         176.117         33.4611 
        1.20267         175.591         33.0669 
        1.20881         173.888         32.6792 
        1.21495          173.04         32.2985 
        1.22108         171.956         31.9238 
         1.2272         170.545         31.5561 
        1.23334         169.998         31.1933 
        1.23949           168.7         30.8355 
        1.24562         167.868         30.4843 
        1.25174         166.364         30.1391 
        1.25789         165.327         29.7983 
        1.26402         164.175         29.4634 
        1.27014         163.007         29.1345 
        1.27628         162.479         28.8096 
        1.28244         162.146         28.4892 
        1.28858         160.599         28.1741 
        1.29471         159.146         27.8645 
        1.30084         158.734         27.5598 
        1.30697         157.358         27.2594 
        1.31312         156.549          26.963 
        1.31925           155.7         26.6719 
        1.32537         154.912         26.3855 
        1.33151         153.417         26.1023 
        1.33765         152.724         25.8235 
        1.34378         151.996         25.5493 
        1.34992         151.371          25.279 
        1.35606         150.992          25.012 
         1.3622         149.457         24.7493 
        1.36833          148.17         24.4911 
        1.37445         147.529         24.2368 
        1.38059         146.652         23.9853 
        1.38675         145.982         23.7368 
        1.39288         145.235         23.4928 
        1.39901         144.907         23.2524 
        1.40515         143.319         23.0148 
         1.4113         142.428         22.7807 
        1.41742          141.59         22.5508 
        1.42355         140.823         22.3236 
         1.4297         140.081         22.0989 
        1.43585          138.98         21.8774 
        1.44198          138.46         21.6597 
        1.44809         137.763         21.4455 
        1.45423         136.938         21.2334 
        1.46036         136.033         21.0246 
        1.46649         135.027         20.8185 
        1.47263         134.357          20.615 
        1.47877         133.807         20.4144 
        1.48491         132.315         20.2161 
        1.49104         132.362         20.0209 
        1.49718         131.007         19.8282 
        1.50333         130.512         19.6377 
        1.50947         129.938         19.4501 
         1.5156         128.995         19.2653 
        1.52172         128.189         19.0829 
        1.52787         127.373         18.9024 
          1.534          126.81         18.7246 
        1.54013         126.041         18.5493 
        1.54627         125.424         18.3758 
        1.55241         124.431         18.2046 
        1.55855         123.748         18.0359 
        1.56467         123.267         17.8697 
         1.5708          122.34         17.7052 
        1.57695         121.923         17.5425 
        1.58308         121.188         17.3823 
        1.58922         120.698          17.224 
        1.59535          119.71         17.0677 
         1.6015         119.249         16.9131 
        1.60764         118.566         16.7606 
        1.61376         117.998         16.6103 
        1.61989         117.082         16.4618 
        1.62604         116.499         16.3148 
        1.63218         116.035         16.1697 
        1.63831         115.098         16.0267 
        1.64444         114.715         15.8854 
        1.65059          114.17         15.7454 
        1.65673         113.004         15.6074 
        1.66285         112.812         15.4713 
        1.66898         112.182         15.3369 
        1.67512         111.623         15.2038 
        1.68127         110.777         15.0721 
         1.6874         109.891         14.9423 
        1.69353         109.599         14.8142 
        1.69967         109.127         14.6872 
        1.70581         108.378         14.5618 
        1.71193         107.868         14.4383 
        1.71806         107.275         14.3161 
        1.72421         106.494          14.195 
        1.73035         106.308         14.0754 
        1.73649         105.524         13.9573 
        1.74262         104.748         13.8406 
        1.74876         104.496         13.7252 
        1.75489         103.601         13.6113 
        1.76101         103.032         13.4988 
        1.76715         102.456         13.3874 
        1.77329         102.204         13.2771 
        1.77943         101.239         13.1681 
        1.78557         100.936         13.0604 
        1.79171         100.146         12.9539 
        1.79785          99.664         12.8486 
        1.80399         99.0493         12.7445 
        1.81012         98.6562         12.6417 
        1.81625         98.0741           12.54 
        1.82239         97.7271         12.4394 
        1.82853         97.1147         12.3399 
        1.83466         96.4006         12.2416 
        1.84078         96.1158         12.1445 
        1.84692         95.4156         12.0483 
        1.85306          94.955          11.953 
         1.8592          94.485         11.8589 
        1.86533         93.7836         11.7658 
        1.87147         93.3433         11.6737 
        1.87761         92.8975         11.5825 
        1.88375         92.1561         11.4924 
        1.88988         91.8123         11.4034 
        1.89601         91.2854         11.3153 
        1.90215         90.8573          11.228 
        1.90829         90.2886         11.1417 
        1.91442         89.9155         11.0563 
        1.92056         89.2477         10.9719 
         1.9267         88.9811         10.8883 
        1.93284         88.4199         10.8055 
        1.93897         87.9697         10.7237 
        1.94509         87.5757          10.643 
        1.95123         87.0675         10.5628 
        1.95737          86.545         10.4835 
        1.96349         86.0371         10.4052 
        1.96964         85.4696         10.3274 
        1.97578         85.0764         10.2505 
        1.98192         84.8864         10.1744 
        1.98805         84.0649         10.0992 
        1.99419         83.8062         10.0247 
        2.00033          83.437         9.95088 
        2.00647          82.914         9.87786 
         2.0126         82.4598         9.80571 
        2.01874         81.8844         9.73416 
        2.02488         81.4864         9.66328 
        2.03101         80.9807         9.59323 
        2.03714         80.4938         9.52395 
        2.04328         80.2178         9.45527 
        2.04941         79.7932         9.38734 
        2.05554         79.4092         9.32012 
        2.06167         78.9334         9.25347 
        2.06781         78.4113         9.18747 
        2.07396         78.0172         9.12202 
        2.08009         77.7468         9.05732 
        2.08622         77.2899         8.99333 
        2.09237          76.851         8.92984 
        2.09851         76.5506         8.86695 
        2.10464         76.0146         8.80477 
        2.11077         75.7355         8.74326 
        2.11691         75.4043         8.68221 
        2.12305         74.7841         8.62175 
        2.12918         74.4095           8.562 
        2.13531         74.1454         8.50283 
        2.14145         73.4847         8.44407 
         2.1476         73.1654         8.38581 
        2.15372         72.9072         8.32839 
        2.15985         72.4722         8.27146 
        2.16599         72.1153          8.2149 
        2.17213         71.7206         8.15893 
        2.17827         71.3312         8.10349 
         2.1844         70.9098         8.04863 
        2.19054         70.7733         7.99425 
        2.19666         70.2438         7.94046 
         2.2028         70.0993         7.88712 
        2.20893         69.5002         7.83424 
        2.21508         69.1875         7.78179 
        2.22122         68.8428         7.72981 
        2.22736         68.4708         7.67841 
        2.23349         68.0833         7.62749 
        2.23962         67.7107         7.57701 
        2.24577         67.4091         7.52695 
         2.2519         67.0848         7.47741 
        2.25802         66.7295         7.42839 
        2.26417         66.3016         7.37968 
        2.27031         66.0516         7.33137 
        2.27644         65.6842         7.28363 
        2.28257           65.29         7.23632 
        2.28872         64.9571         7.18934 
        2.29486         64.4456         7.14279 
        2.30099         64.1912         7.09675 
        2.30712         64.0238          7.0511 
        2.31326         63.7032         7.00578 
         2.3194         63.3061         6.96088 
        2.32553         62.9428         6.91645 
        2.33166         62.6268         6.87243 
         2.3378         62.1986         6.82874 
        2.34394         61.9711         6.78542 
        2.35007          61.611         6.74253 
        2.35619         61.3214         6.70007 
        2.36233         61.0646         6.65787 
        2.36848         60.7423         6.61595 
        2.37462         60.2933         6.57449 
        2.38075         60.2001         6.53342 
        2.38689         59.7756         6.49266 
        2.39303          59.463         6.45227 
        2.39916         59.1506         6.41226 
        2.40529         58.9394         6.37259 
        2.41143         58.5998         6.33324 
        2.41757         58.2731          6.2942 
         2.4237         58.0882         6.25556 
        2.42983         57.6298         6.21725 
        2.43598         57.3808         6.17916 
        2.44211         57.1167         6.14146 
        2.44823         56.8337         6.10415 
        2.45437         56.4373         6.06706 
        2.46052         56.2075         6.03024 
        2.46665         56.0028          5.9938 
        2.47279         55.5855         5.95767 
        2.47892         55.3705         5.92181 
        2.48507         55.0821         5.88622 
         2.4912          54.845         5.85099 
