# k  (h/Mpc)    Pcb(k)  (Mpc/h)^3    Pcb_linear(k)  (Mpc/h)^3
     0.00783031         2194.23         2209.65 
       0.013688         2646.75         2679.79 
       0.019231         2674.61         2689.75 
      0.0249154          2476.4         2473.06 
      0.0312784         2124.72         2127.54 
      0.0375637         1787.12         1793.54 
      0.0433917            1544          1540.7 
      0.0492413         1351.36         1353.31 
      0.0555754          1219.4         1214.24 
      0.0619321         1106.99         1118.16 
       0.067871         1043.55         1045.53 
      0.0738098         972.636         973.146 
      0.0800417          890.83         888.865 
      0.0862327         796.356         797.232 
      0.0921407         709.114         708.958 
      0.0982031         630.244         625.846 
       0.104506         554.005         554.242 
       0.110769         502.143         500.744 
       0.116806         470.345         464.466 
       0.122832         441.541         439.242 
       0.129052         423.132         419.361 
       0.135211         406.248         400.702 
       0.141259         382.774         379.934 
       0.147318         355.821         355.515 
       0.153489         330.206         327.879 
       0.159709         304.665         299.592 
       0.165845         275.567          273.85 
       0.171974         259.452          252.16 
       0.178125         242.465         235.163 
       0.184229         227.763         222.652 
        0.19034         220.458         213.317 
       0.196428         212.445         205.682 
       0.202534         201.563         198.256 
       0.208729          195.77         189.925 
       0.214876         187.439         180.488 
       0.220989         174.514         170.198 
       0.227147         167.092         159.596 
        0.23329         157.806         149.557 
       0.239377         150.187         140.749 
       0.245482         141.971         133.356 
       0.251667         135.015         127.311 
       0.257832         132.132         122.425 
       0.263955         125.843         118.255 
       0.270079         121.558         114.315 
        0.27624         116.659         110.233 
       0.282372         112.644         105.896 
        0.28843         110.114         101.359 
       0.294538          104.83         96.6929 
       0.300721         99.5638         92.1018 
        0.30691         96.7588         87.8441 
       0.313033         92.4171         84.0944 
       0.319153         90.2967         80.8315 
       0.325316         86.3248         77.9764 
        0.33145         83.4619         75.4392 
       0.337538          81.045         73.0868 
       0.343633         78.8503         70.7806 
       0.349808         76.1816          68.419 
       0.355968         73.7617         66.0223 
       0.362074         72.1233         63.6327 
       0.368217          69.765          61.276 
       0.374374         67.9296         59.0196 
       0.380519         64.9389         56.9239 
       0.386598         63.0031         55.0239 
       0.392688         61.0498         53.2854 
        0.39888         59.8576          51.661 
       0.405048         58.4179         50.1426 
       0.411186         56.8751         48.6915 
       0.417313         55.2608         47.2748 
       0.423458         53.6548         45.8677 
       0.429607         52.6606         44.4765 
       0.435692         51.6699         43.1284 
       0.441815         49.6664         41.8138 
       0.447964         48.1063         40.5536 
       0.454126         47.2154         39.3616 
       0.460267         46.6649         38.2435 
       0.466387         45.3143         37.1939 
        0.47254         44.6185         36.1946 
       0.478662         43.1652         35.2421 
       0.484765         42.2585         34.3225 
       0.490885         41.0305         33.4244 
       0.497035           40.38         32.5434 
       0.503198         39.4705         31.6811 
       0.509342          38.362         30.8456 
       0.515458          37.838         30.0429 
       0.521598         36.9171         29.2693 
       0.527764         36.3622         28.5252 
       0.533884         35.5473         27.8181 
           0.54         34.8241         27.1417 
       0.546137         33.7761         26.4894 
       0.552299         33.1785         25.8568 
       0.558452         32.4628         25.2438 
       0.564573          32.148         24.6507 
       0.570708         31.2914         24.0727 
       0.576825         30.8581         23.5129 
       0.582926          30.299         22.9711 
       0.589034         29.6837         22.4452 
       0.595184         29.2991         21.9333 
       0.601379         28.5032         21.4358 
       0.607522         28.0241         20.9598 
       0.613639         27.5723         20.5018 
       0.619772         27.0869          20.057 
       0.625918         26.5502         19.6243 
       0.632068         26.3052         19.2036 
       0.638161         25.7609         18.7984 
         0.6443         25.3435         18.4015 
       0.650464         24.7107         18.0143 
       0.656582         24.5479         17.6407 
       0.662703         24.2309         17.2776 
       0.668861         23.5846         16.9227 
       0.675024         23.2739         16.5779 
       0.681124         23.1513         16.2465 
       0.687237         22.6609         15.9241 
       0.693381         22.1734         15.6092 
       0.699536         22.0607         15.3025 
       0.705665         21.6355         15.0053 
       0.711789         21.2564         14.7161 
       0.717957         20.8179         14.4323 
        0.72409          20.631         14.1574 
       0.730186         20.5216         13.8913 
       0.736317         20.0789         13.6305 
       0.742472         19.8248         13.3756 
       0.748622         19.5149         13.1276 
        0.75476         19.0278         12.8866 
       0.760888          18.958         12.6522 
       0.767043         18.6214         12.4227 
       0.773185         18.4104         12.1995 
       0.779291         18.2234          11.983 
       0.785407         17.9148         11.7715 
       0.791564         17.7802         11.5637 
       0.797719         17.3878          11.361 
       0.803834         17.3094         11.1644 
       0.809972         16.9696         10.9719 
       0.816124          16.787         10.7834 
       0.822261         16.5941         10.5999 
       0.828378         16.4074         10.4213 
       0.834502         16.2295         10.2467 
       0.840667         16.0509         10.0751 
       0.846816          15.696         9.90784 
       0.852925         15.6425         9.74548 
       0.859047         15.4465         9.58644 
       0.865192         15.2281         9.43045 
       0.871341          15.028         9.27783 
       0.877463         14.8522         9.12929 
       0.883569         14.7585         8.98437 
       0.889708         14.5136         8.84187 
       0.895864         14.3302          8.7021 
       0.902008         14.1674         8.56564 
       0.908149         13.9722         8.43221 
       0.914301         13.8924          8.3014 
       0.920448         13.6893          8.1735 
       0.926574         13.6006         8.04875 
       0.932687         13.3963         7.92687 
       0.938823          13.217         7.80709 
       0.944975          13.131         7.68952 
       0.951105         12.9693          7.5748 
       0.957225         12.8852         7.46262 
       0.963368         12.6848         7.35235 
       0.969511         12.5535          7.2443 
       0.975621         12.4349         7.13902 
       0.981748         12.2696         7.03557 
       0.987916         12.1833         6.93352 
        0.99406         12.0446         6.83389 
        1.00019         11.9535         6.73642 
        1.00632         11.8489         6.64095 
        1.01246         11.7113          6.5472 
        1.01859           11.58         6.45541 
        1.02471         11.4428          6.3655 
        1.03085         11.3944         6.27701 
        1.03698         11.2849         6.19039 
        1.04314         11.1427         6.10504 
        1.04929         11.0004         6.02151 
        1.05541         10.9426         5.93988 
        1.06154         10.8392         5.85957 
        1.06769         10.7627         5.78062 
        1.07382         10.5941          5.7034 
        1.07993         10.5051         5.62777 
        1.08607         10.4516          5.5532 
        1.09222         10.3171         5.47991 
        1.09836         10.2694         5.40803 
        1.10449          10.124         5.33753 
        1.11063         10.0834          5.2682 
        1.11677         10.0086         5.20014 
         1.1229         9.91045          5.1334 
        1.12903         9.82749         5.06777 
        1.13518         9.69658         5.00324 
        1.14131         9.63591         4.93986 
        1.14745         9.50264         4.87762 
        1.15359         9.42692         4.81645 
        1.15973         9.35035         4.75629 
        1.16584          9.2758         4.69744 
        1.17197         9.19072          4.6395 
        1.17811         9.11611         4.58236 
        1.18424          9.0519         4.52634 
        1.19038         8.99775         4.47111 
        1.19652         8.91511         4.41682 
        1.20267          8.8497         4.36343 
        1.20881         8.74365         4.31093 
        1.21495         8.68199         4.25939 
        1.22108         8.62572         4.20869 
         1.2272         8.54758         4.15894 
        1.23334         8.51569         4.10988 
        1.23949         8.41833          4.0615 
        1.24562         8.35456         4.01403 
        1.25174         8.30519         3.96739 
        1.25789         8.19582         3.92136 
        1.26402         8.16998         3.87614 
        1.27014         8.12313         3.83174 
        1.27628         8.01705         3.78791 
        1.28244         8.00426         3.74468 
        1.28858         7.93247         3.70218 
        1.29471          7.8302         3.66044 
        1.30084         7.77286         3.61938 
        1.30697         7.76308         3.57889 
        1.31312          7.6777         3.53897 
        1.31925          7.6301         3.49978 
        1.32537         7.57598         3.46122 
        1.33151           7.515          3.4231 
        1.33765         7.45703         3.38559 
        1.34378         7.44477         3.34871 
        1.34992         7.36469         3.31235 
        1.35606         7.30404         3.27646 
         1.3622         7.24618         3.24116 
        1.36833         7.20968         3.20647 
        1.37445         7.15439          3.1723 
        1.38059         7.09944         3.13853 
        1.38675          7.0559         3.10516 
        1.39288         6.99787         3.07242 
        1.39901         6.94363         3.04016 
        1.40515         6.90468         3.00829 
         1.4113         6.84909         2.97688 
        1.41742         6.82036         2.94605 
        1.42355         6.75644         2.91559 
         1.4297         6.71973         2.88548 
        1.43585         6.68603          2.8558 
        1.44198         6.63733         2.82665 
        1.44809         6.59304         2.79796 
        1.45423         6.54047         2.76957 
        1.46036         6.50709         2.74162 
        1.46649         6.46095         2.71405 
        1.47263         6.42849         2.68683 
        1.47877         6.38237            2.66 
        1.48491         6.35479         2.63349 
        1.49104         6.29666         2.60741 
        1.49718         6.27302         2.58165 
        1.50333         6.22592          2.5562 
        1.50947         6.17522         2.53115 
         1.5156         6.15593         2.50647 
        1.52172         6.11397         2.48212 
        1.52787         6.08119         2.45804 
          1.534         6.03762         2.43432 
        1.54013         6.01265         2.41093 
        1.54627         5.96503          2.3878 
        1.55241         5.91667         2.36498 
        1.55855         5.90564         2.34249 
        1.56467         5.86953         2.32035 
         1.5708         5.82718         2.29843 
        1.57695         5.77999         2.27677 
        1.58308         5.74363         2.25543 
        1.58922         5.72568         2.23435 
        1.59535         5.69337         2.21355 
         1.6015         5.64019         2.19299 
        1.60764         5.61853         2.17269 
        1.61376          5.5931         2.15271 
        1.61989         5.54173         2.13296 
        1.62604         5.52296         2.11342 
        1.63218         5.49608         2.09413 
        1.63831         5.46652         2.07513 
        1.64444         5.41929         2.05636 
        1.65059         5.39808         2.03777 
        1.65673         5.37485         2.01943 
        1.66285          5.3443         2.00137 
        1.66898         5.31463         1.98353 
        1.67512         5.27955         1.96587 
        1.68127         5.24111          1.9484 
         1.6874         5.22223         1.93119 
        1.69353         5.18353          1.9142 
        1.69967         5.16655         1.89737 
        1.70581         5.12851         1.88074 
        1.71193         5.10764         1.86439 
        1.71806         5.07942         1.84819 
        1.72421         5.04841         1.83215 
        1.73035         5.02651         1.81632 
        1.73649         4.99838         1.80067 
        1.74262          4.9641         1.78523 
        1.74876         4.95768         1.76996 
        1.75489         4.92167         1.75489 
        1.76101         4.88268         1.74001 
        1.76715         4.87739         1.72528 
        1.77329         4.84863          1.7107 
        1.77943         4.80893         1.69628 
        1.78557         4.80437         1.68205 
        1.79171         4.77634         1.66798 
        1.79785         4.75596         1.65407 
        1.80399         4.71179         1.64032 
        1.81012         4.70237         1.62674 
        1.81625         4.67019         1.61333 
        1.82239         4.65541         1.60004 
        1.82853         4.62337         1.58691 
        1.83466         4.58882         1.57394 
        1.84078         4.57387         1.56113 
        1.84692         4.55338         1.54844 
        1.85306         4.53008         1.53588 
         1.8592          4.5166         1.52348 
        1.86533         4.49576         1.51121 
        1.87147         4.47309         1.49907 
        1.87761         4.45462         1.48706 
        1.88375         4.42483         1.47519 
        1.88988         4.40366         1.46347 
        1.89601         4.38327         1.45186 
        1.90215         4.35385         1.44038 
        1.90829         4.34709         1.42902 
        1.91442         4.31807         1.41778 
        1.92056         4.31113         1.40668 
         1.9267         4.27594         1.39568 
        1.93284         4.27236         1.38479 
        1.93897         4.23853         1.37404 
        1.94509         4.20714         1.36342 
        1.95123         4.20341          1.3529 
        1.95737          4.1849         1.34247 
        1.96349         4.15589         1.33218 
        1.96964         4.13886         1.32197 
        1.97578         4.12304         1.31186 
        1.98192         4.09907         1.30188 
        1.98805         4.08578           1.292 
        1.99419            4.07         1.28222 
        2.00033         4.03719         1.27254 
        2.00647         4.03191         1.26296 
         2.0126         4.01412         1.25349 
        2.01874         3.99702         1.24411 
        2.02488         3.98078         1.23482 
        2.03101         3.95032         1.22563 
        2.03714         3.93616         1.21655 
        2.04328         3.92459         1.20755 
        2.04941         3.90127         1.19865 
        2.05554         3.89254         1.18985 
        2.06167         3.87305         1.18112 
        2.06781         3.85442         1.17248 
        2.07396         3.83528         1.16391 
        2.08009         3.82391         1.15544 
        2.08622         3.81154         1.14707 
        2.09237         3.79956         1.13876 
        2.09851         3.76967         1.13053 
        2.10464         3.75673          1.1224 
        2.11077         3.74793         1.11435 
        2.11691         3.72988         1.10637 
        2.12305         3.70727         1.09847 
        2.12918         3.69781         1.09066 
        2.13531         3.67955         1.08293 
        2.14145         3.66526         1.07525 
         2.1476         3.64659         1.06764 
        2.15372         3.63061         1.06014 
        2.15985         3.62317         1.05271 
        2.16599         3.60858         1.04532 
        2.17213          3.5996         1.03801 
        2.17827         3.56979         1.03078 
         2.1844         3.55797         1.02362 
        2.19054         3.54848         1.01652 
        2.19666         3.53545         1.00951 
         2.2028         3.50726         1.00255 
        2.20893         3.51039        0.995655 
        2.21508         3.49026        0.988817 
        2.22122         3.46471         0.98204 
        2.22736         3.45678        0.975341 
        2.23349         3.44369        0.968706 
        2.23962         3.43617        0.962129 
        2.24577         3.41067        0.955608 
         2.2519         3.41037        0.949156 
        2.25802          3.3816        0.942773 
        2.26417         3.37541        0.936432 
        2.27031         3.36228        0.930142 
        2.27644         3.34822        0.923929 
        2.28257         3.33707        0.917773 
        2.28872         3.32364        0.911661 
        2.29486          3.3071        0.905606 
        2.30099         3.29683        0.899618 
        2.30712         3.28439        0.893681 
        2.31326         3.27389        0.887788 
         2.3194         3.25697        0.881951 
        2.32553         3.24661        0.876177 
        2.33166         3.23813        0.870456 
         2.3378         3.22622        0.864779 
        2.34394         3.20623         0.85915 
        2.35007         3.19516        0.853579 
        2.35619         3.19018        0.848065 
        2.36233         3.17025        0.842586 
        2.36848         3.16368        0.837144 
        2.37462         3.15269        0.831761 
        2.38075         3.14362        0.826431 
        2.38689         3.13054        0.821143 
        2.39303         3.11616        0.815902 
        2.39916         3.10752        0.810712 
        2.40529          3.0911        0.805568 
        2.41143         3.08547        0.800465 
        2.41757         3.07663        0.795403 
         2.4237         3.05981        0.790394 
        2.42983         3.05458        0.785429 
        2.43598         3.04373        0.780493 
        2.44211         3.02623        0.775608 
        2.44823         3.01738        0.770776 
        2.45437         3.00238        0.765971 
        2.46052         2.99567        0.761203 
        2.46665          2.9864        0.756484 
        2.47279         2.96938        0.751806 
        2.47892         2.96463        0.747165 
        2.48507         2.95558        0.742559 
         2.4912         2.94359           0.738 
