# k  (h/Mpc)    P(k)  (Mpc/h)^3    P_linear(k)  (Mpc/h)^3
     0.00783031         19679.3           19943 
       0.013688         22561.5         22300.6 
       0.019231         20704.2         20598.4 
      0.0249154         16996.8         17310.7 
      0.0312784         13452.2         13525.8 
      0.0375637         10693.7         10596.5 
      0.0433917         8728.69         8787.04 
      0.0492413         7722.07         7695.05 
      0.0555754         6875.46         7024.56 
      0.0619321         6632.55         6557.47 
       0.067871         5974.35          6083.6 
      0.0738098         5400.66         5481.23 
      0.0800417          4654.8         4742.36 
      0.0862327         4019.54         4009.42 
      0.0921407         3524.64         3413.11 
      0.0982031          3053.7         2961.92 
       0.104506         2843.96         2666.58 
       0.110769         2651.74         2506.16 
       0.116806         2535.71         2417.07 
       0.122832         2436.06         2333.99 
       0.129052         2255.36         2211.57 
       0.135211         2102.28         2040.66 
       0.141259         1963.34         1840.34 
       0.147318         1798.31         1637.56 
       0.153489         1612.96         1458.03 
       0.159709         1504.35         1321.71 
       0.165845         1435.01         1232.58 
       0.171974         1366.21         1178.23 
       0.178125         1308.76         1142.01 
       0.184229         1255.19         1107.47 
        0.19034         1182.57          1062.4 
       0.196428         1147.46          1003.1 
       0.202534         1095.16         932.901 
       0.208729         1028.41         859.186 
       0.214876         973.658         792.352 
       0.220989         930.983          737.88 
       0.227147         891.411         696.706 
        0.23329          853.56         667.147 
       0.239377         836.403         644.796 
       0.245482         780.989         624.439 
       0.251667         775.794         601.974 
       0.257832          742.74         575.844 
       0.263955         715.478         546.693 
       0.270079         684.914         516.332 
        0.27624         674.166         487.086 
       0.282372         646.873         461.297 
        0.28843         633.403         439.912 
       0.294538         599.895         422.312 
       0.300721         595.343         407.419 
        0.30691         570.307         394.033 
       0.313033         558.201         380.956 
       0.319153         542.242         367.317 
       0.325316         526.512         352.812 
        0.33145         510.747         338.035 
       0.337538         500.834          323.64 
       0.343633         486.405         310.166 
       0.349808         467.825         297.833 
       0.355968         463.583         286.974 
       0.362074         457.179         277.398 
       0.368217         443.199         268.592 
       0.374374         424.003         260.205 
       0.380519         422.343         251.932 
       0.386598         410.285         243.741 
       0.392688         406.986         235.531 
        0.39888         395.185         227.317 
       0.405048         387.455         219.469 
       0.411186         381.132         212.119 
       0.417313         373.242         205.301 
       0.423458         364.525         198.989 
       0.429607         359.783         193.087 
       0.435692         350.203         187.545 
       0.441815         346.411         182.174 
       0.447964         338.939         176.907 
       0.454126         332.382         171.722 
       0.460267         325.361          166.68 
       0.466387         320.797         161.816 
        0.47254         315.968         157.117 
       0.478662         313.994         152.663 
       0.484765         302.356         148.459 
       0.490885         299.497         144.457 
       0.497035         293.757         140.614 
       0.503198         289.974         136.912 
       0.509342         288.055         133.346 
       0.515458          284.04         129.903 
       0.521598          276.37         126.537 
       0.527764          273.33         123.255 
       0.533884          270.29         120.107 
           0.54         266.322         117.079 
       0.546137         264.906          114.16 
       0.552299         259.679         111.342 
       0.558452         258.173         108.634 
       0.564573         254.504         106.038 
       0.570708         249.164         103.525 
       0.576825         245.027         101.099 
       0.582926         242.684         98.7512 
       0.589034         240.158         96.4672 
       0.595184         238.391         94.2357 
       0.601379         233.735         92.0589 
       0.607522         231.071         89.9711 
       0.613639         229.331          87.962 
       0.619772         225.182         86.0135 
       0.625918         223.901         84.1229 
       0.632068         220.071         82.2891 
       0.638161         218.942          80.526 
         0.6443          215.57         78.8012 
       0.650464         213.597         77.1204 
       0.656582         210.493         75.5005 
       0.662703         210.544         73.9267 
       0.668861         207.185         72.3893 
       0.675024         204.332         70.8948 
       0.681124         202.742          69.458 
       0.687237          200.59         68.0586 
       0.693381         197.423         66.6918 
       0.699536         195.679         65.3606 
       0.705665         193.799         64.0719 
       0.711789         192.522         62.8196 
       0.717957         191.629         61.5926 
        0.72409         189.444         60.4055 
       0.730186         187.028         59.2572 
       0.736317         185.005         58.1327 
       0.742472         183.523         57.0335 
       0.748622         182.155          55.964 
        0.75476         180.232         54.9244 
       0.760888         178.404          53.913 
       0.767043         177.797         52.9232 
       0.773185         176.344         51.9605 
       0.779291         173.138         51.0274 
       0.785407         172.645         50.1161 
       0.791564         171.192         49.2215 
       0.797719          168.48         48.3493 
       0.803834         167.479          47.504 
       0.809972         166.824         46.6761 
       0.816124          165.74         45.8663 
       0.822261         164.735          45.078 
       0.828378         162.836         44.3108 
       0.834502         161.817         43.5609 
       0.840667         160.061         42.8237 
       0.846816         158.828         42.1057 
       0.852925         157.876         41.4089 
       0.859047         156.701         40.7264 
       0.865192         154.721         40.0572 
       0.871341         153.513         39.4027 
       0.877463         152.776         38.7659 
       0.883569         152.148         38.1448 
       0.889708         150.211         37.5342 
       0.895864         149.228         36.9355 
       0.902008         148.013         36.3512 
       0.908149         147.514           35.78 
       0.914301         145.643         35.2201 
       0.920448         144.829         34.6729 
       0.926574         143.643         34.1393 
       0.932687         143.663         33.6181 
       0.938823         141.631          33.106 
       0.944975         141.034         32.6035 
       0.951105         139.944         32.1132 
       0.957225         139.294          31.634 
       0.963368         137.162          31.163 
       0.969511          136.78         30.7016 
       0.975621         135.574         30.2521 
       0.981748          135.48         29.8106 
       0.987916         134.158         29.3751 
        0.99406         133.209           28.95 
        1.00019         132.783         28.5342 
        1.00632         131.543         28.1271 
        1.01246         130.682         27.7273 
        1.01859         130.432          27.336 
        1.02471         128.738         26.9528 
        1.03085           127.7         26.5756 
        1.03698         127.171         26.2065 
        1.04314         125.889         25.8429 
        1.04929          125.66         25.4871 
        1.05541         124.862         25.1394 
        1.06154         124.001         24.7974 
        1.06769         123.683         24.4613 
        1.07382         122.486         24.1326 
        1.07993           121.8         23.8106 
        1.08607         121.141         23.4932 
        1.09222         120.506         23.1814 
        1.09836         119.565         22.8755 
        1.10449         118.441         22.5756 
        1.11063         117.882         22.2807 
        1.11677         117.139         21.9913 
         1.1229         116.354         21.7075 
        1.12903         116.061         21.4285 
        1.13518          115.49         21.1542 
        1.14131         114.319         20.8848 
        1.14745         114.205         20.6203 
        1.15359         113.108         20.3604 
        1.15973         112.596         20.1049 
        1.16584         111.731         19.8549 
        1.17197         111.209         19.6088 
        1.17811          110.36         19.3662 
        1.18424         110.114         19.1283 
        1.19038         109.871         18.8939 
        1.19652         108.957         18.6634 
        1.20267         108.175         18.4368 
        1.20881         107.728         18.2141 
        1.21495          106.62         17.9954 
        1.22108         106.375         17.7803 
         1.2272         105.467         17.5693 
        1.23334         105.119         17.3613 
        1.23949         104.562         17.1561 
        1.24562         103.882         16.9548 
        1.25174         103.583         16.7571 
        1.25789         102.899          16.562 
        1.26402          101.69         16.3703 
        1.27014         101.384         16.1821 
        1.27628          101.11         15.9964 
        1.28244         100.812         15.8132 
        1.28858         100.145         15.6332 
        1.29471         99.3364         15.4563 
        1.30084         99.2946         15.2824 
        1.30697         98.1678         15.1109 
        1.31312         97.7948         14.9418 
        1.31925         97.1982         14.7758 
        1.32537         96.7933         14.6125 
        1.33151          96.211         14.4511 
        1.33765         95.6137         14.2922 
        1.34378          95.243          14.136 
        1.34992         94.9335         13.9821 
        1.35606         94.4751         13.8302 
         1.3622         93.6718         13.6807 
        1.36833         93.2032         13.5339 
        1.37445         92.8749         13.3893 
        1.38059         92.0482         13.2463 
        1.38675         91.5351         13.1051 
        1.39288         91.4851         12.9666 
        1.39901         90.9827         12.8301 
        1.40515          90.229         12.6953 
         1.4113         90.0294         12.5625 
        1.41742         89.3586          12.432 
        1.42355         89.0345         12.3032 
         1.4297         88.5879         12.1759 
        1.43585         88.0154         12.0504 
        1.44198         87.6056         11.9272 
        1.44809         87.3601         11.8059 
        1.45423         86.9956         11.6858 
        1.46036         86.3605         11.5677 
        1.46649          85.882         11.4512 
        1.47263         85.2684         11.3361 
        1.47877         84.8941         11.2227 
        1.48491         84.4514         11.1107 
        1.49104         84.2297         11.0005 
        1.49718         83.8418         10.8917 
        1.50333         83.3838         10.7842 
        1.50947         82.8416         10.6783 
         1.5156         82.6484         10.5741 
        1.52172         82.2596         10.4712 
        1.52787         81.6548         10.3695 
          1.534          81.247         10.2693 
        1.54013          80.878         10.1705 
        1.54627         80.5534         10.0728 
        1.55241         80.1657         9.97641 
        1.55855         79.6693         9.88141 
        1.56467         79.4122         9.78792 
         1.5708         78.8479         9.69537 
        1.57695         78.7299         9.60389 
        1.58308         78.3303          9.5138 
        1.58922         77.9498         9.42481 
        1.59535         77.5191         9.33699 
         1.6015         77.2389         9.25018 
        1.60764         76.7977         9.16451 
        1.61376         76.4791         9.08016 
        1.61989         76.1512         8.99681 
        1.62604         75.6567         8.91432 
        1.63218         75.5488         8.83292 
        1.63831         74.8527         8.75273 
        1.64444         74.5152          8.6735 
        1.65059         74.1664         8.59506 
        1.65673         73.7783         8.51769 
        1.66285         73.5714         8.44148 
        1.66898         73.2736         8.36618 
        1.67512           72.64         8.29166 
        1.68127         72.5264         8.21798 
         1.6874         71.9993         8.14536 
        1.69353         71.7368         8.07367 
        1.69967         71.5487         8.00267 
        1.70581         71.0977         7.93255 
        1.71193         70.7143         7.86355 
        1.71806         70.4789         7.79522 
        1.72421         70.1857         7.72757 
        1.73035         69.7967          7.6608 
        1.73649         69.5563         7.59483 
        1.74262         69.0727          7.5297 
        1.74876         68.8676         7.46529 
        1.75489         68.4917         7.40177 
        1.76101           68.18           7.339 
        1.76715         67.6986         7.27688 
        1.77329         67.5309         7.21541 
        1.77943         67.1367         7.15462 
        1.78557         66.9987         7.09462 
        1.79171         66.4352          7.0353 
        1.79785         66.0847         6.97664 
        1.80399         65.8957         6.91868 
        1.81012         65.6676         6.86144 
        1.81625         65.3685         6.80489 
        1.82239         64.9818         6.74889 
        1.82853         64.8262         6.69354 
        1.83466         64.5269         6.63887 
        1.84078         64.0595         6.58488 
        1.84692         63.8797         6.53139 
        1.85306         63.5643         6.47844 
         1.8592         63.3657         6.42616 
        1.86533         62.9616         6.37448 
        1.87147         62.5759         6.32332 
        1.87761         62.3878         6.27269 
        1.88375         62.1967         6.22268 
        1.88988         61.7143         6.17327 
        1.89601         61.6349         6.12437 
        1.90215         61.0572         6.07596 
        1.90829         60.8844          6.0281 
        1.91442         60.7067         5.98075 
        1.92056         60.4007         5.93395 
         1.9267         60.0855          5.8876 
        1.93284          59.841         5.84173 
        1.93897         59.5144         5.79643 
        1.94509          59.358          5.7517 
        1.95123         58.9965         5.70734 
        1.95737         58.7756         5.66342 
        1.96349         58.4691         5.62007 
        1.96964         58.0885         5.57705 
        1.97578         57.8767         5.53446 
        1.98192         57.8757         5.49241 
        1.98805         57.3427         5.45078 
        1.99419         57.1571         5.40959 
        2.00033         56.9682          5.3688 
        2.00647         56.6623         5.32845 
         2.0126         56.3723         5.28858 
        2.01874         56.0345         5.24906 
        2.02488         55.9636          5.2099 
        2.03101         55.6289         5.17122 
        2.03714         55.3068         5.13297 
        2.04328         55.0821         5.09506 
        2.04941         54.8089         5.05757 
        2.05554         54.6527         5.02048 
        2.06167         54.4563         4.98372 
        2.06781         54.0455         4.94731 
        2.07396         53.8968         4.91122 
        2.08009         53.6851         4.87555 
        2.08622         53.3656         4.84028 
        2.09237         53.2072         4.80529 
        2.09851         53.0287         4.77064 
        2.10464         52.6455         4.73639 
        2.11077         52.4905         4.70252 
        2.11691         52.1753          4.6689 
        2.12305         52.0257         4.63561 
        2.12918         51.7901         4.60273 
        2.13531          51.392         4.57016 
        2.14145         51.2588         4.53784 
         2.1476         51.0341         4.50579 
        2.15372         50.8478         4.47421 
        2.15985         50.5747          4.4429 
        2.16599         50.4048          4.4118 
        2.17213         50.1607         4.38103 
        2.17827         49.9248         4.35057 
         2.1844         49.6974         4.32042 
        2.19054         49.4531         4.29055 
        2.19666         49.3477           4.261 
         2.2028         49.1518          4.2317 
        2.20893         48.7801         4.20267 
        2.21508         48.7123         4.17388 
        2.22122         48.4097         4.14534 
        2.22736         48.2112         4.11714 
        2.23349         48.0429          4.0892 
        2.23962         47.7809         4.06151 
        2.24577         47.4805         4.03405 
         2.2519         47.3725         4.00688 
        2.25802         47.1198         3.98001 
        2.26417         46.9328         3.95331 
        2.27031         46.8166         3.92683 
        2.27644         46.4626         3.90067 
        2.28257         46.3079         3.87475 
        2.28872          46.072         3.84901 
        2.29486         45.9433         3.82352 
        2.30099         45.6598         3.79831 
        2.30712         45.4731         3.77332 
        2.31326         45.2297          3.7485 
         2.3194         45.0598         3.72393 
        2.32553         44.8848         3.69962 
        2.33166         44.6371         3.67553 
         2.3378         44.4682         3.65163 
        2.34394         44.2633         3.62793 
        2.35007          44.095         3.60448 
        2.35619         43.9144         3.58126 
        2.36233         43.7082         3.55819 
        2.36848         43.5056         3.53528 
        2.37462         43.3257         3.51262 
        2.38075         43.1971         3.49018 
        2.38689         42.9548         3.46791 
        2.39303         42.7294         3.44585 
        2.39916         42.5606           3.424 
        2.40529         42.4615         3.40234 
        2.41143         42.2438         3.38085 
        2.41757         42.0933         3.35954 
         2.4237         41.8182         3.33845 
        2.42983         41.6938         3.31755 
        2.43598         41.4741         3.29677 
        2.44211         41.2863          3.2762 
        2.44823         41.1741         3.25585 
        2.45437         40.9452         3.23562 
        2.46052         40.7981         3.21555 
        2.46665         40.6442         3.19568 
        2.47279         40.3766         3.17599 
        2.47892         40.2465         3.15645 
        2.48507          40.046         3.13705 
         2.4912         39.9381         3.11786 
