# k  (h/Mpc)    Pcb(k)  (Mpc/h)^3    Pcb_linear(k)  (Mpc/h)^3
     0.00783031         1341.32         1356.36 
       0.013688         1470.82          1473.2 
       0.019231         1322.82         1321.82 
      0.0249154         1069.96         1073.56 
      0.0312784         805.892          803.58 
      0.0375637          607.69         603.864 
      0.0433917         487.614         486.233 
      0.0492413         421.516         419.822 
      0.0555754         382.777         383.835 
      0.0619321         363.991         362.263 
       0.067871         338.267         339.372 
      0.0738098         305.736         306.672 
      0.0800417         262.315         263.317 
      0.0862327         218.945         218.534 
      0.0921407         182.634         181.564 
      0.0982031         154.353          153.75 
       0.104506         137.933         136.195 
       0.110769         129.051         127.768 
       0.116806         124.911         124.435 
       0.122832         122.658         121.954 
       0.129052         117.075         117.137 
       0.135211         108.805         108.775 
       0.141259         98.4574         97.7829 
       0.147318         87.0545         85.9368 
       0.153489         76.0848          75.096 
       0.159709         67.9283         66.7937 
       0.165845         62.9912         61.5171 
       0.171974         59.5394         58.6503 
       0.178125         58.1918         57.2166 
       0.184229         57.0215         56.1247 
        0.19034         54.8458         54.4597 
       0.196428         52.4953         51.7899 
       0.202534         49.3195         48.1909 
       0.208729         45.0517         44.0932 
       0.214876         41.0632         40.1954 
       0.220989         38.0686         36.9538 
       0.227147         35.4627         34.5383 
        0.23329         33.8173         32.9251 
       0.239377         32.8356         31.8746 
       0.245482         31.6753          31.053 
       0.251667         31.0457         30.1623 
       0.257832         29.8299         29.0261 
       0.263955         28.4715         27.6181 
       0.270079         26.8896         26.0302 
        0.27624         25.4597         24.4136 
       0.282372         24.0562         22.9466 
        0.28843          22.711         21.7321 
       0.294538         21.7149         20.7675 
       0.300721         21.0775         20.0125 
        0.30691         20.2893         19.3913 
       0.313033         19.6852         18.8165 
       0.319153         18.8865          18.208 
       0.325316         18.4533         17.5289 
        0.33145         17.6605         16.7937 
       0.337538         16.9394         16.0433 
       0.343633         16.1428         15.3177 
       0.349808         15.5463         14.6471 
       0.355968         14.9741         14.0652 
       0.362074         14.4415         13.5696 
       0.368217         13.9893         13.1366 
       0.374374         13.5333         12.7396 
       0.380519         13.1864         12.3546 
       0.386598         12.8166         11.9693 
       0.392688         12.4666         11.5711 
        0.39888         12.0108         11.1609 
       0.405048         11.6215         10.7582 
       0.411186         11.2502         10.3749 
       0.417313         10.8554         10.0208 
       0.423458         10.5384         9.69671 
       0.429607         10.2156          9.4003 
       0.435692         9.91078         9.12957 
       0.441815         9.65493         8.87126 
       0.447964         9.44564         8.61827 
       0.454126         9.11692         8.36803 
       0.460267         8.89936         8.12137 
       0.466387         8.60577         7.87887 
        0.47254          8.4031         7.64193 
       0.478662          8.2125         7.41685 
       0.484765         7.93416         7.20484 
       0.490885         7.73895         7.00423 
       0.497035         7.61436         6.81401 
       0.503198         7.38496         6.63324 
       0.509342          7.2001         6.46025 
       0.515458         7.02011          6.2929 
       0.521598         6.86023         6.12856 
       0.527764         6.66679         5.96764 
       0.533884         6.55499         5.81245 
           0.54         6.37965         5.66233 
       0.546137         6.24164         5.51706 
       0.552299         6.10534         5.37711 
       0.558452         5.92329         5.24354 
       0.564573         5.81842         5.11637 
       0.570708         5.68786         4.99374 
       0.576825         5.54295         4.87544 
       0.582926         5.43179         4.76083 
       0.589034         5.27924         4.64924 
       0.595184         5.18716         4.54016 
       0.601379         5.06294         4.43365 
       0.607522         4.98044         4.33132 
       0.613639         4.89534         4.23268 
       0.619772         4.75457         4.13698 
       0.625918         4.69632         4.04424 
       0.632068         4.61589         3.95455 
       0.638161         4.49457         3.86859 
         0.6443         4.40139          3.7847 
       0.650464         4.30148         3.70302 
       0.656582         4.25162         3.62426 
       0.662703         4.16419          3.5476 
       0.668861         4.08842         3.47261 
       0.675024         4.00067         3.39965 
       0.681124         3.92199          3.3295 
       0.687237         3.85691         3.26125 
       0.693381         3.79028         3.19468 
       0.699536          3.6866         3.12995 
       0.705665         3.63565         3.06737 
       0.711789         3.57096          3.0066 
       0.717957         3.50021         2.94708 
        0.72409         3.43719         2.88949 
       0.730186         3.38098         2.83376 
       0.736317         3.34324         2.77917 
       0.742472         3.28482          2.7258 
       0.748622         3.21801         2.67387 
        0.75476          3.1552         2.62341 
       0.760888         3.10223         2.57435 
       0.767043         3.06175         2.52636 
       0.773185         2.99558         2.47972 
       0.779291         2.96134         2.43454 
       0.785407         2.90882         2.39044 
       0.791564         2.86676         2.34717 
       0.797719         2.81743           2.305 
       0.803834         2.78651         2.26414 
       0.809972         2.74242         2.22413 
       0.816124         2.68749           2.185 
       0.822261          2.6348         2.14691 
       0.828378          2.6014         2.10985 
       0.834502         2.57687         2.07364 
       0.840667         2.51889         2.03804 
       0.846816         2.47692         2.00339 
       0.852925         2.45585         1.96976 
       0.859047          2.4158         1.93683 
       0.865192         2.38296         1.90456 
       0.871341         2.35306           1.873 
       0.877463         2.31725          1.8423 
       0.883569         2.27383         1.81237 
       0.889708         2.24019         1.78296 
       0.895864         2.20541         1.75413 
       0.902008         2.17625         1.72599 
       0.908149         2.15298          1.6985 
       0.914301         2.11211         1.67156 
       0.920448          2.0836         1.64523 
       0.926574          2.0526         1.61956 
       0.932687         2.02519          1.5945 
       0.938823         2.00164         1.56988 
       0.944975         1.97568         1.54573 
       0.951105         1.95015         1.52217 
       0.957225         1.93598         1.49915 
       0.963368         1.90601         1.47652 
       0.969511         1.87502         1.45437 
       0.975621         1.84802         1.43279 
       0.981748         1.82871          1.4116 
       0.987916         1.80321          1.3907 
        0.99406         1.77199         1.37031 
        1.00019         1.75536         1.35036 
        1.00632         1.73312         1.33084 
        1.01246         1.71188         1.31167 
        1.01859         1.68968         1.29291 
        1.02471         1.66825         1.27455 
        1.03085         1.64729         1.25648 
        1.03698         1.62417          1.2388 
        1.04314         1.60811         1.22139 
        1.04929         1.58804         1.20435 
        1.05541          1.5693         1.18771 
        1.06154         1.54883         1.17134 
        1.06769         1.53635         1.15525 
        1.07382         1.51183         1.13953 
        1.07993         1.49097         1.12413 
        1.08607         1.48251         1.10895 
        1.09222          1.4598         1.09404 
        1.09836         1.44651         1.07942 
        1.10449         1.43085         1.06509 
        1.11063           1.408           1.051 
        1.11677         1.39402         1.03717 
         1.1229         1.37935         1.02362 
        1.12903         1.36194         1.01029 
        1.13518         1.34812        0.997197 
        1.14131         1.32943        0.984339 
        1.14745          1.3083        0.971715 
        1.15359         1.30031        0.959311 
        1.15973         1.28066        0.947118 
        1.16584          1.2734        0.935193 
        1.17197         1.25809        0.923456 
        1.17811         1.24797        0.911886 
        1.18424         1.23358        0.900548 
        1.19038         1.21895         0.88937 
        1.19652          1.2049        0.878387 
        1.20267         1.19452        0.867591 
        1.20881         1.18007        0.856978 
        1.21495         1.16907         0.84656 
        1.22108         1.15719        0.836317 
         1.2272         1.14805        0.826269 
        1.23334          1.1324        0.816363 
        1.23949         1.11929        0.806596 
        1.24562         1.11068        0.797017 
        1.25174         1.09877        0.787608 
        1.25789         1.08775        0.778323 
        1.26402         1.07439        0.769205 
        1.27014         1.06434        0.760255 
        1.27628         1.05785        0.751421 
        1.28244         1.04316        0.742711 
        1.28858         1.03482        0.734151 
        1.29471         1.02286        0.725745 
        1.30084         1.01085        0.717479 
        1.30697         1.00484        0.709329 
        1.31312        0.989744        0.701294 
        1.31925        0.982948        0.693409 
        1.32537           0.973        0.685654 
        1.33151         0.96631        0.677989 
        1.33765        0.954183        0.670446 
        1.34378         0.94605        0.663033 
        1.34992        0.938677        0.655727 
        1.35606        0.925321        0.648516 
         1.3622        0.920511        0.641426 
        1.36833        0.910221        0.634459 
        1.37445        0.899922        0.627599 
        1.38059        0.894779         0.62082 
        1.38675        0.889194        0.614125 
        1.39288         0.87859        0.607555 
        1.39901        0.869007        0.601084 
        1.40515        0.861624        0.594693 
         1.4113        0.854425        0.588397 
        1.41742        0.846542        0.582216 
        1.42355        0.841736        0.576113 
         1.4297        0.831146        0.570079 
        1.43585        0.824341        0.564134 
        1.44198        0.819803        0.558296 
        1.44809         0.80985        0.552553 
        1.45423        0.803158        0.546869 
        1.46036        0.795857        0.541275 
        1.46649        0.789428        0.535757 
        1.47263         0.78138        0.530313 
        1.47877        0.774593        0.524946 
        1.48491        0.768061        0.519646 
        1.49104        0.761352         0.51443 
        1.49718        0.756351        0.509282 
        1.50333        0.747803        0.504196 
        1.50947        0.743155         0.49919 
         1.5156        0.736439        0.494259 
        1.52172        0.729707        0.489396 
        1.52787        0.722863        0.484588 
          1.534        0.717368         0.47985 
        1.54013        0.710737        0.475181 
        1.54627        0.705198        0.470566 
        1.55241        0.698633        0.466011 
        1.55855        0.693754        0.461523 
        1.56467        0.689381        0.457107 
         1.5708        0.681247        0.452736 
        1.57695        0.678358        0.448416 
        1.58308          0.6722        0.444162 
        1.58922         0.66617         0.43996 
        1.59535        0.661274        0.435814 
         1.6015        0.655181        0.431716 
        1.60764        0.651457        0.427672 
        1.61376        0.646087        0.423691 
        1.61989        0.640493        0.419758 
        1.62604        0.634344        0.415865 
        1.63218        0.631775        0.412025 
        1.63831        0.625467        0.408241 
        1.64444        0.620638        0.404504 
        1.65059        0.616071        0.400805 
        1.65673        0.609788        0.397156 
        1.66285        0.606371        0.393562 
        1.66898        0.603849        0.390012 
        1.67512        0.596117        0.386499 
        1.68127        0.591636        0.383026 
         1.6874        0.589741        0.379604 
        1.69353        0.583183        0.376225 
        1.69967        0.577965        0.372879 
        1.70581        0.575709        0.369576 
        1.71193        0.570322        0.366325 
        1.71806        0.567424        0.363107 
        1.72421        0.562525         0.35992 
        1.73035        0.557446        0.356776 
        1.73649        0.554589         0.35367 
        1.74262        0.550353        0.350603 
        1.74876        0.545617        0.347571 
        1.75489        0.540228         0.34458 
        1.76101        0.537626        0.341626 
        1.76715        0.533976        0.338703 
        1.77329        0.530593         0.33581 
        1.77943        0.525246         0.33295 
        1.78557        0.521531        0.330127 
        1.79171        0.519325        0.327337 
        1.79785        0.514493        0.324578 
        1.80399        0.511481        0.321852 
        1.81012        0.508136         0.31916 
        1.81625        0.504076        0.316501 
        1.82239        0.500993        0.313868 
        1.82853         0.49569        0.311266 
        1.83466        0.493104        0.308696 
        1.84078        0.489291        0.306158 
        1.84692        0.487341        0.303644 
        1.85306        0.483998        0.301156 
         1.8592        0.480043        0.298699 
        1.86533        0.476936        0.296271 
        1.87147        0.473663        0.293867 
        1.87761        0.470086        0.291488 
        1.88375        0.466732        0.289139 
        1.88988        0.464623        0.286818 
        1.89601        0.460602        0.284521 
        1.90215         0.45713        0.282248 
        1.90829        0.453481        0.280001 
        1.91442         0.45173        0.277777 
        1.92056        0.448462         0.27558 
         1.9267        0.444878        0.273405 
        1.93284        0.443487        0.271251 
        1.93897         0.43884        0.269125 
        1.94509        0.436963        0.267027 
        1.95123         0.43341        0.264945 
        1.95737        0.430816        0.262884 
        1.96349        0.427567         0.26085 
        1.96964        0.425579        0.258832 
        1.97578        0.422076        0.256834 
        1.98192        0.420016        0.254862 
        1.98805        0.417002         0.25291 
        1.99419        0.415044        0.250978 
        2.00033        0.413079        0.249066 
        2.00647         0.40902        0.247174 
         2.0126        0.406769        0.245304 
        2.01874        0.404322        0.243452 
        2.02488        0.402414        0.241616 
        2.03101        0.398134        0.239804 
        2.03714         0.39559        0.238011 
        2.04328        0.394951        0.236235 
        2.04941        0.391398        0.234478 
        2.05554        0.388952         0.23274 
        2.06167        0.386327        0.231018 
        2.06781        0.383861        0.229313 
        2.07396        0.381239        0.227623 
        2.08009        0.379085        0.225952 
        2.08622        0.376923          0.2243 
        2.09237        0.375049        0.222662 
        2.09851        0.372753         0.22104 
        2.10464        0.370811        0.219436 
        2.11077        0.368485         0.21785 
        2.11691        0.365671        0.216277 
        2.12305        0.363742        0.214719 
        2.12918        0.361797         0.21318 
        2.13531        0.359031        0.211656 
        2.14145        0.357703        0.210143 
         2.1476        0.354634        0.208643 
        2.15372        0.353515        0.207166 
        2.15985        0.350299        0.205701 
        2.16599        0.348081        0.204246 
        2.17213         0.34647        0.202807 
        2.17827         0.34517        0.201382 
         2.1844        0.343056        0.199972 
        2.19054        0.341154        0.198575 
        2.19666        0.338815        0.197193 
         2.2028        0.336836        0.195823 
        2.20893        0.335425        0.194466 
        2.21508         0.33314         0.19312 
        2.22122        0.329736        0.191786 
        2.22736        0.328909        0.190467 
        2.23349        0.328028        0.189161 
        2.23962        0.325435        0.187867 
        2.24577        0.323175        0.186584 
         2.2519        0.321442        0.185314 
        2.25802        0.319437        0.184059 
        2.26417        0.317737        0.182811 
        2.27031        0.316062        0.181574 
        2.27644        0.314371        0.180352 
        2.28257        0.312964        0.179141 
        2.28872        0.310928        0.177939 
        2.29486        0.309153        0.176749 
        2.30099        0.307023        0.175571 
        2.30712        0.305505        0.174404 
        2.31326         0.30423        0.173245 
         2.3194        0.303448        0.172098 
        2.32553          0.3014        0.170963 
        2.33166        0.299482        0.169839 
         2.3378        0.297873        0.168723 
        2.34394        0.295323        0.167617 
        2.35007        0.294321        0.166522 
        2.35619        0.293069        0.165438 
        2.36233        0.290642        0.164362 
        2.36848        0.289521        0.163293 
        2.37462        0.287768        0.162235 
        2.38075        0.286802        0.161188 
        2.38689         0.28507         0.16015 
        2.39303        0.283584         0.15912 
        2.39916        0.281733        0.158101 
        2.40529        0.280471        0.157091 
        2.41143        0.279029        0.156089 
        2.41757        0.277674        0.155095 
         2.4237        0.276233        0.154112 
        2.42983        0.274832        0.153137 
        2.43598        0.273613        0.152168 
        2.44211        0.272421        0.151209 
        2.44823        0.270676        0.150261 
        2.45437        0.269031        0.149318 
        2.46052         0.26799        0.148382 
        2.46665        0.266407        0.147456 
        2.47279        0.265013        0.146538 
        2.47892        0.263397        0.145627 
        2.48507        0.262304        0.144724 
         2.4912        0.261064        0.143829 
