# k  (h/Mpc)    Pcb(k)  (Mpc/h)^3    Pcb_linear(k)  (Mpc/h)^3
     0.00783031         5758.29          5830.8 
       0.013688         6350.52         6329.75 
       0.019231         5694.58         5678.17 
      0.0249154         4574.78         4611.25 
      0.0312784         3456.03         3451.38 
      0.0375637         2616.29          2593.5 
      0.0433917         2090.91         2088.24 
      0.0492413         1812.41            1803 
      0.0555754          1636.3         1648.42 
      0.0619321         1570.25         1555.76 
       0.067871         1448.13         1457.45 
      0.0738098         1309.53         1317.01 
      0.0800417         1122.21         1130.81 
      0.0862327          941.21         938.487 
      0.0921407         791.464         779.722 
      0.0982031         667.833         660.271 
       0.104506         602.872         584.883 
       0.110769         562.825         548.692 
       0.116806          542.78         534.379 
       0.122832         532.635         523.724 
       0.129052         504.696         503.034 
       0.135211         470.007         467.124 
       0.141259         428.914          419.92 
       0.147318         381.828         369.048 
       0.153489         334.579         322.493 
       0.159709         301.619         286.839 
       0.165845          281.23         264.179 
       0.171974         265.315         251.868 
       0.178125         258.633         245.711 
       0.184229         252.528         241.022 
        0.19034         240.061         233.871 
       0.196428         231.847         222.406 
       0.202534         219.635         206.951 
       0.208729         201.487         189.354 
       0.214876           184.8         172.615 
       0.220989         172.793         158.694 
       0.227147         161.706         148.321 
        0.23329         154.286         141.393 
       0.239377         150.374         136.882 
       0.245482         142.629         133.354 
       0.251667         140.747         129.529 
       0.257832         135.739         124.649 
       0.263955         129.611         118.603 
       0.270079         122.743         111.784 
        0.27624         117.944         104.841 
       0.282372         112.347         98.5416 
        0.28843         106.469         93.3261 
       0.294538         101.568         89.1835 
       0.300721         99.3857         85.9413 
        0.30691         95.1662         83.2737 
       0.313033         92.4931         80.8054 
       0.319153         88.3938         78.1923 
       0.325316         86.6733         75.2758 
        0.33145         82.8366         72.1184 
       0.337538         80.4818         68.8959 
       0.343633         76.9763           65.78 
       0.349808         74.2873         62.9001 
       0.355968         72.2059         60.4014 
       0.362074         69.8299          58.273 
       0.368217         67.5675         56.4137 
       0.374374         65.4966         54.7087 
       0.380519         64.0047         53.0555 
       0.386598         62.1776         51.4008 
       0.392688          60.768         49.6905 
        0.39888         58.8624          47.929 
       0.405048         57.1072         46.1996 
       0.411186          55.569         44.5539 
       0.417313         53.8639         43.0333 
       0.423458         52.3845         41.6413 
       0.429607          51.026         40.3684 
       0.435692         49.2112         39.2058 
       0.441815         48.4938         38.0965 
       0.447964         47.5463         37.0101 
       0.454126         45.4168         35.9355 
       0.460267         44.7611         34.8762 
       0.466387         43.6171         33.8348 
        0.47254         42.6914         32.8173 
       0.478662         42.0429         31.8507 
       0.484765         40.6143         30.9403 
       0.490885         39.7311         30.0788 
       0.497035         39.1999         29.2619 
       0.503198         38.0109         28.4856 
       0.509342         37.0624         27.7427 
       0.515458          36.313          27.024 
       0.521598         35.6491         26.3183 
       0.527764         34.9233         25.6273 
       0.533884         34.3724         24.9608 
           0.54         33.4556         24.3162 
       0.546137         33.0252         23.6923 
       0.552299         32.4459         23.0913 
       0.558452         31.4611         22.5177 
       0.564573         30.8901         21.9716 
       0.570708         30.3897          21.445 
       0.576825         29.7904         20.9369 
       0.582926         29.0655         20.4448 
       0.589034         28.3962         19.9656 
       0.595184         28.0167         19.4971 
       0.601379         27.4381         19.0397 
       0.607522         26.8455         18.6003 
       0.613639         26.6183         18.1767 
       0.619772         25.9706         17.7657 
       0.625918         25.6959         17.3675 
       0.632068         25.3166         16.9823 
       0.638161         24.8304         16.6132 
         0.6443          24.367         16.2529 
       0.650464         23.9256         15.9021 
       0.656582         23.6966         15.5639 
       0.662703         23.2103         15.2347 
       0.668861         22.7991         14.9127 
       0.675024         22.4313         14.5993 
       0.681124         22.0281         14.2981 
       0.687237         21.6183          14.005 
       0.693381          21.426         13.7191 
       0.699536         20.9125         13.4412 
       0.705665           20.89         13.1724 
       0.711789         20.3507         12.9115 
       0.717957         20.0505         12.6559 
        0.72409         19.7729         12.4086 
       0.730186         19.4642         12.1692 
       0.736317         19.2857         11.9348 
       0.742472          18.937         11.7056 
       0.748622         18.7229         11.4826 
        0.75476         18.4274         11.2659 
       0.760888         18.1118         11.0552 
       0.767043         17.8574         10.8491 
       0.773185         17.5877         10.6488 
       0.779291         17.4725         10.4548 
       0.785407         17.3085         10.2654 
       0.791564         16.9992         10.0796 
       0.797719         16.5774         9.89851 
       0.803834          16.547         9.72305 
       0.809972         16.3283         9.55122 
       0.816124         16.0389         9.38318 
       0.822261         15.8349         9.21963 
       0.828378         15.7201         9.06049 
       0.834502         15.5322         8.90497 
       0.840667         15.3142         8.75211 
       0.846816         15.0213         8.60329 
       0.852925         14.8878         8.45887 
       0.859047         14.7088         8.31748 
       0.865192         14.5494         8.17887 
       0.871341         14.4379         8.04335 
       0.877463         14.1832         7.91152 
       0.883569         14.0139           7.783 
       0.889708         13.8117         7.65668 
       0.895864         13.6491         7.53286 
       0.902008           13.54         7.41205 
       0.908149         13.3884         7.29397 
       0.914301         13.3376         7.17828 
       0.920448         13.1169         7.06522 
       0.926574         12.9607           6.955 
       0.932687         12.7994         6.84737 
       0.938823         12.6418         6.74165 
       0.944975         12.5198         6.63792 
       0.951105         12.3789         6.53676 
       0.957225         12.2269         6.43789 
       0.963368         12.1923         6.34073 
       0.969511         12.0218         6.24559 
       0.975621         11.9416         6.15293 
       0.981748         11.7364         6.06191 
       0.987916         11.6567         5.97217 
        0.99406         11.5217         5.88459 
        1.00019         11.3729         5.79895 
        1.00632         11.3003          5.7151 
        1.01246         11.2348         5.63279 
        1.01859         11.0218         5.55225 
        1.02471         10.9852         5.47338 
        1.03085         10.8735         5.39578 
        1.03698          10.682         5.31986 
        1.04314         10.6276         5.24508 
        1.04929         10.4989         5.17192 
        1.05541         10.3852         5.10045 
        1.06154         10.3205         5.03016 
        1.06769         10.2583         4.96109 
        1.07382         10.1332         4.89355 
        1.07993         10.0415         4.82742 
        1.08607         9.92982         4.76225 
        1.09222         9.86561         4.69822 
        1.09836         9.74647         4.63544 
        1.10449         9.67884         4.57389 
        1.11063         9.54434         4.51339 
        1.11677         9.50516           4.454 
         1.1229         9.44055         4.39579 
        1.12903         9.32906         4.33857 
        1.13518         9.21701         4.28233 
        1.14131         9.18898         4.22711 
        1.14745         9.08546          4.1729 
        1.15359         9.03925         4.11963 
        1.15973         8.92058         4.06727 
        1.16584         8.81685         4.01606 
        1.17197         8.78745         3.96566 
        1.17811         8.69723         3.91597 
        1.18424         8.62654         3.86728 
        1.19038         8.58045         3.81928 
        1.19652         8.50423         3.77212 
        1.20267         8.43139         3.72575 
        1.20881         8.36414         3.68018 
        1.21495         8.31073         3.63544 
        1.22108         8.21163         3.59145 
         1.2272         8.14659          3.5483 
        1.23334         8.10354         3.50576 
        1.23949         8.01695         3.46382 
        1.24562         7.97214         3.42268 
        1.25174         7.91355         3.38228 
        1.25789         7.83336          3.3424 
        1.26402         7.80282         3.30324 
        1.27014         7.71877         3.26481 
        1.27628         7.65488         3.22688 
        1.28244         7.59936         3.18947 
        1.28858         7.57322         3.15271 
        1.29471         7.49653         3.11661 
        1.30084         7.42457         3.08112 
        1.30697         7.39189         3.04612 
        1.31312         7.29613         3.01161 
        1.31925         7.23983         2.97775 
        1.32537         7.21487         2.94445 
        1.33151         7.16791         2.91153 
        1.33765         7.11304         2.87914 
        1.34378         7.05286          2.8473 
        1.34992         6.98226         2.81593 
        1.35606         6.96988         2.78496 
         1.3622         6.92898         2.75452 
        1.36833         6.83757          2.7246 
        1.37445         6.81714         2.69514 
        1.38059         6.75814         2.66603 
        1.38675         6.68273         2.63727 
        1.39288          6.6717         2.60906 
        1.39901         6.61287         2.58127 
        1.40515         6.58677         2.55382 
         1.4113         6.53102         2.52679 
        1.41742         6.47598         2.50025 
        1.42355         6.43133         2.47404 
         1.4297         6.42242         2.44813 
        1.43585          6.3629         2.42259 
        1.44198         6.33091         2.39753 
        1.44809         6.27538         2.37286 
        1.45423         6.23581         2.34845 
        1.46036         6.19221         2.32443 
        1.46649         6.16741         2.30074 
        1.47263         6.10434         2.27735 
        1.47877         6.07137         2.25431 
        1.48491         6.04991         2.23155 
        1.49104         6.00712         2.20915 
        1.49718         5.96059         2.18704 
        1.50333         5.92451          2.1652 
        1.50947          5.8776          2.1437 
         1.5156         5.85194         2.12253 
        1.52172         5.82558         2.10164 
        1.52787         5.78113         2.08099 
          1.534         5.73702         2.06065 
        1.54013         5.69965          2.0406 
        1.54627         5.66159         2.02078 
        1.55241         5.62627         2.00122 
        1.55855         5.59569         1.98195 
        1.56467         5.56246         1.96298 
         1.5708         5.54961         1.94421 
        1.57695         5.49971         1.92566 
        1.58308         5.46553         1.90739 
        1.58922         5.44927         1.88935 
        1.59535         5.40377         1.87154 
         1.6015         5.36258         1.85394 
        1.60764         5.33563         1.83658 
        1.61376         5.30938         1.81948 
        1.61989          5.2707         1.80259 
        1.62604         5.26181         1.78587 
        1.63218         5.22697         1.76938 
        1.63831         5.18864         1.75313 
        1.64444         5.15196         1.73709 
        1.65059         5.11914          1.7212 
        1.65673         5.11091         1.70553 
        1.66285         5.05979          1.6901 
        1.66898         5.05132         1.67485 
        1.67512         5.02278         1.65977 
        1.68127         4.99371         1.64485 
         1.6874         4.95627         1.63015 
        1.69353         4.91546         1.61564 
        1.69967         4.90655         1.60128 
        1.70581         4.89053         1.58709 
        1.71193         4.85171         1.57313 
        1.71806         4.82447         1.55931 
        1.72421         4.80386         1.54563 
        1.73035         4.77097         1.53212 
        1.73649         4.75184         1.51878 
        1.74262         4.72756         1.50561 
        1.74876         4.70666         1.49259 
        1.75489         4.67658         1.47975 
        1.76101         4.64756         1.46707 
        1.76715         4.62631         1.45451 
        1.77329         4.59396         1.44209 
        1.77943         4.57191          1.4298 
        1.78557         4.56115         1.41768 
        1.79171         4.53627          1.4057 
        1.79785         4.49838         1.39385 
        1.80399         4.49056         1.38215 
        1.81012         4.47257         1.37059 
        1.81625         4.43647         1.35917 
        1.82239         4.41342         1.34786 
        1.82853         4.38865         1.33669 
        1.83466         4.36877         1.32565 
        1.84078         4.35164         1.31475 
        1.84692         4.33016         1.30396 
        1.85306         4.30264         1.29327 
         1.8592         4.28951         1.28272 
        1.86533         4.26831         1.27229 
        1.87147         4.24199         1.26197 
        1.87761         4.22826         1.25175 
        1.88375         4.18988         1.24167 
        1.88988          4.1844          1.2317 
        1.89601         4.16233         1.22184 
        1.90215         4.14338         1.21207 
        1.90829         4.11663         1.20242 
        1.91442         4.09821         1.19287 
        1.92056         4.08365         1.18344 
         1.9267         4.06059          1.1741 
        1.93284         4.04014         1.16485 
        1.93897         4.02298         1.15572 
        1.94509         4.00505         1.14671 
        1.95123         3.98834         1.13777 
        1.95737         3.96939         1.12892 
        1.96349         3.95258         1.12018 
        1.96964         3.92705         1.11152 
        1.97578         3.90636         1.10294 
        1.98192         3.89537         1.09447 
        1.98805         3.88281         1.08608 
        1.99419         3.85269         1.07779 
        2.00033          3.8436         1.06958 
        2.00647         3.81842         1.06145 
         2.0126         3.81108         1.05342 
        2.01874         3.79158         1.04547 
        2.02488         3.76441         1.03759 
        2.03101         3.75867          1.0298 
        2.03714         3.73501          1.0221 
        2.04328         3.72075         1.01447 
        2.04941         3.69553         1.00693 
        2.05554          3.6891        0.999469 
        2.06167         3.66353        0.992073 
        2.06781         3.65963         0.98475 
        2.07396         3.64501        0.977491 
        2.08009         3.63188        0.970318 
        2.08622         3.60009        0.963225 
        2.09237         3.59612        0.956189 
        2.09851          3.5785        0.949222 
        2.10464         3.55779        0.942335 
        2.11077         3.53938        0.935526 
        2.11691         3.52709        0.928769 
        2.12305         3.51606        0.922077 
        2.12918         3.49902        0.915468 
        2.13531         3.48572        0.908923 
        2.14145         3.46899        0.902427 
         2.1476          3.4633        0.895987 
        2.15372         3.44238        0.889642 
        2.15985         3.42527        0.883351 
        2.16599         3.41615        0.877104 
        2.17213         3.39698        0.870923 
        2.17827         3.38595        0.864804 
         2.1844          3.3722        0.858749 
        2.19054          3.3518        0.852749 
        2.19666         3.34288        0.846816 
         2.2028         3.32934        0.840933 
        2.20893         3.31363        0.835104 
        2.21508         3.30244        0.829323 
        2.22122         3.28895        0.823595 
        2.22736         3.27447        0.817933 
        2.23349         3.26304        0.812325 
        2.23962         3.25165        0.806767 
        2.24577         3.23774        0.801256 
         2.2519         3.22745        0.795805 
        2.25802         3.20711        0.790412 
        2.26417           3.201        0.785055 
        2.27031         3.18265        0.779742 
        2.27644         3.17216        0.774494 
        2.28257         3.15393        0.769295 
        2.28872         3.15203        0.764133 
        2.29486         3.13397         0.75902 
        2.30099         3.12649        0.753963 
        2.30712           3.107        0.748951 
        2.31326         3.09731        0.743976 
         2.3194         3.08491        0.739048 
        2.32553         3.07425        0.734174 
        2.33166         3.05982        0.729345 
         2.3378         3.05368        0.724554 
        2.34394         3.04001        0.719804 
        2.35007         3.02528        0.715103 
        2.35619         3.01245        0.710449 
        2.36233         3.00543        0.705826 
        2.36848         2.99811        0.701235 
        2.37462         2.98405        0.696694 
        2.38075         2.96811        0.692198 
        2.38689         2.95837        0.687738 
        2.39303         2.94671        0.683318 
        2.39916         2.94029        0.678941 
        2.40529         2.92538        0.674603 
        2.41143          2.9116        0.670299 
        2.41757         2.90913        0.666031 
         2.4237         2.89399        0.661808 
        2.42983         2.88187        0.657623 
        2.43598         2.87906        0.653462 
        2.44211         2.86506        0.649344 
        2.44823         2.84968        0.645271 
        2.45437         2.84166        0.641221 
        2.46052         2.83389        0.637203 
        2.46665         2.82419        0.633226 
        2.47279         2.80875        0.629285 
        2.47892         2.80435        0.625374 
        2.48507         2.78839        0.621493 
         2.4912         2.78125        0.617652 
