# k  (h/Mpc)    Pcb(k)  (Mpc/h)^3    Pcb_linear(k)  (Mpc/h)^3
     0.00783031         7550.09         7583.75 
       0.013688         9749.72         9951.62 
       0.019231         10475.5         10599.5 
      0.0249154         10271.5         10276.6 
      0.0312784         9240.66         9330.26 
      0.0375637         8121.48         8253.86 
      0.0433917          7320.1         7370.65 
      0.0492413         6580.72         6679.46 
      0.0555754         6084.89         6138.54 
      0.0619321          5541.2          5738.6 
       0.067871         5290.51         5413.51 
      0.0738098          4982.4         5075.21 
      0.0800417         4601.51          4677.4 
      0.0862327         4161.25         4247.83 
      0.0921407         3770.82         3837.96 
      0.0982031          3435.6         3454.87 
       0.104506         3076.83         3125.79 
       0.110769         2846.81         2878.39 
       0.116806         2723.01         2706.24 
       0.122832         2562.77         2578.88 
       0.129052         2453.58          2468.2 
       0.135211          2376.2         2356.48 
       0.141259         2222.95         2231.57 
       0.147318         2060.11          2089.7 
       0.153489         1937.61         1936.04 
       0.159709         1836.55         1785.14 
       0.165845         1672.58         1652.53 
       0.171974         1622.13         1543.63 
       0.178125         1556.18         1459.16 
       0.184229         1448.64         1395.66 
        0.19034         1423.53         1344.77 
       0.196428         1382.68         1298.35 
       0.202534         1300.72          1249.3 
       0.208729         1275.56         1193.35 
       0.214876         1223.98         1131.91 
       0.220989         1146.82         1068.13 
       0.227147         1117.57         1005.74 
        0.23329         1072.79         949.467 
       0.239377         1053.24         902.009 
       0.245482         1001.19         863.039 
       0.251667         964.007         830.907 
       0.257832         954.433         803.563 
       0.263955         907.204         778.105 
       0.270079         880.654         752.038 
        0.27624         844.262         723.963 
       0.282372         828.248         694.219 
        0.28843         820.633           664.1 
       0.294538         779.232         634.442 
       0.300721         756.424         606.613 
        0.30691         743.801         581.835 
       0.313033         712.985         560.612 
       0.319153         702.235         542.186 
       0.325316         690.117         525.615 
        0.33145          676.16         510.061 
       0.337538         652.916         494.766 
       0.343633         634.605         479.082 
       0.349808         619.687         462.792 
       0.355968         608.233         446.387 
       0.362074         590.221         430.477 
       0.368217          586.11         415.304 
       0.374374          575.25         401.252 
       0.380519         553.321         388.541 
       0.386598         547.237         377.107 
       0.392688         536.184         366.558 
        0.39888         522.074         356.415 
       0.405048         513.921         346.569 
       0.411186         511.206         336.851 
       0.417313         504.692         327.149 
       0.423458         489.976         317.471 
       0.429607         478.165         308.002 
       0.435692         470.484         298.989 
       0.441815         463.257         290.385 
       0.447964         453.435         282.303 
       0.454126          447.74         274.735 
       0.460267         441.055         267.629 
       0.466387         434.249         260.888 
        0.47254         428.145         254.347 
       0.478662         418.144         247.974 
       0.484765         414.075         241.717 
       0.490885         409.761         235.556 
       0.497035         402.661         229.508 
       0.503198         401.194         223.627 
       0.509342         390.987         217.988 
       0.515458         385.844         212.635 
       0.521598         379.089         207.519 
       0.527764         373.921         202.608 
       0.533884         373.028         197.927 
           0.54         366.812         193.411 
       0.546137         359.081         189.012 
       0.552299         358.354         184.701 
       0.558452         352.667         180.487 
       0.564573         349.211         176.394 
       0.570708         344.342         172.409 
       0.576825         338.548         168.564 
       0.582926         335.575         164.864 
       0.589034         331.316         161.287 
       0.595184         329.252          157.81 
       0.601379         323.391          154.43 
       0.607522          318.08         151.188 
       0.613639         316.199         148.056 
       0.619772         314.448         144.999 
       0.625918         310.364          142.01 
       0.632068         305.334          139.09 
       0.638161         302.646         136.272 
         0.6443         300.811         133.511 
       0.650464         296.034         130.822 
       0.656582         293.552         128.234 
       0.662703          291.56         125.723 
       0.668861         286.704          123.27 
       0.675024         285.636         120.882 
       0.681124         282.306         118.582 
       0.687237         279.511         116.336 
       0.693381         276.932         114.137 
       0.699536         273.843          111.99 
       0.705665         271.091         109.908 
       0.711789          269.04         107.881 
       0.717957         265.865         105.891 
        0.72409          263.61         103.964 
       0.730186         264.367         102.096 
       0.736317         259.721         100.265 
       0.742472         256.524          98.473 
       0.748622         253.275         96.7273 
        0.75476         253.956         95.0285 
       0.760888         250.854         93.3738 
       0.767043         247.853         91.7526 
       0.773185         246.243         90.1739 
       0.779291         242.695         88.6418 
       0.785407         241.778         87.1435 
       0.791564          239.41         85.6707 
       0.797719         236.103         84.2329 
       0.803834         237.223         82.8375 
       0.809972         234.992         81.4691 
       0.816124         231.851         80.1289 
       0.822261          229.52         78.8227 
       0.828378         229.733         77.5499 
       0.834502         225.894         76.3044 
       0.840667         225.605         75.0785 
       0.846816         222.724         73.8833 
       0.852925         221.345         72.7219 
       0.859047         219.088         71.5834 
       0.865192         218.781         70.4657 
       0.871341         215.838         69.3715 
       0.877463         214.138         68.3058 
       0.883569         213.903         67.2654 
       0.889708         212.097         66.2417 
       0.895864         210.209         65.2369 
       0.902008          208.32         64.2553 
       0.908149          206.28         63.2947 
       0.914301         205.912         62.3524 
       0.920448          204.73         61.4303 
       0.926574          202.35         60.5304 
       0.932687         201.538         59.6506 
       0.938823         200.049         58.7852 
       0.944975         198.315         57.9353 
       0.951105         196.755         57.1053 
       0.957225         196.024         56.2932 
       0.963368         194.432         55.4942 
       0.969511          192.15         54.7109 
       0.975621         191.091         53.9471 
       0.981748         189.704          53.196 
       0.987916         188.879         52.4546 
        0.99406         187.555         51.7303 
        1.00019         186.328         51.0212 
        1.00632         185.529         50.3261 
        1.01246         184.058         49.6431 
        1.01859         182.512         48.9739 
        1.02471         181.182         48.3181 
        1.03085         180.173         47.6721 
        1.03698         178.774         47.0393 
        1.04314         178.258         46.4155 
        1.04929         177.356         45.8046 
        1.05541         176.015         45.2072 
        1.06154         174.893         44.6191 
        1.06769         173.293         44.0407 
        1.07382          172.64         43.4745 
        1.07993          171.44         42.9196 
        1.08607         170.017         42.3722 
        1.09222          169.32         41.8339 
        1.09836          168.05         41.3056 
        1.10449         166.673         40.7872 
        1.11063          165.81         40.2772 
        1.11677         165.064         39.7762 
         1.1229         163.699         39.2846 
        1.12903         163.155          38.801 
        1.13518         162.018         38.3252 
        1.14131         161.062         37.8577 
        1.14745         159.839         37.3983 
        1.15359         158.288         36.9466 
        1.15973         157.911         36.5022 
        1.16584         157.088         36.0671 
        1.17197         156.198         35.6386 
        1.17811         154.802         35.2157 
        1.18424         154.064         34.8011 
        1.19038         153.353         34.3919 
        1.19652          152.09         33.9896 
        1.20267         151.295         33.5937 
        1.20881         150.309         33.2043 
        1.21495         149.937         32.8217 
        1.22108         148.684         32.4452 
         1.2272          147.65         32.0755 
        1.23334         147.233         31.7108 
        1.23949         146.619          31.351 
        1.24562          145.35         30.9978 
        1.25174         144.149         30.6505 
        1.25789         143.798         30.3076 
        1.26402         143.117         29.9706 
        1.27014         142.214         29.6395 
        1.27628         140.582         29.3125 
        1.28244         140.453         28.9898 
        1.28858         139.344         28.6725 
        1.29471         138.521         28.3607 
        1.30084         137.787         28.0538 
        1.30697         137.344          27.751 
        1.31312          136.35         27.4523 
        1.31925         135.273          27.159 
        1.32537         134.866         26.8702 
        1.33151         134.287         26.5847 
        1.33765           132.9         26.3035 
        1.34378         132.946          26.027 
        1.34992         132.285         25.7542 
        1.35606         131.208         25.4849 
         1.3622         130.906         25.2198 
        1.36833         129.416         24.9592 
        1.37445         129.113         24.7025 
        1.38059         128.456         24.4486 
        1.38675         127.537         24.1977 
        1.39288         126.902         23.9513 
        1.39901         125.853         23.7085 
        1.40515          125.62         23.4686 
         1.4113         124.935          23.232 
        1.41742         123.968         22.9997 
        1.42355         123.581         22.7701 
         1.4297         122.695          22.543 
        1.43585         121.872         22.3191 
        1.44198         121.161         22.0991 
        1.44809         120.353         21.8824 
        1.45423             120          21.668 
        1.46036         119.094         21.4568 
        1.46649          118.42         21.2483 
        1.47263         118.142         21.0425 
        1.47877         117.223         20.8395 
        1.48491         116.532         20.6389 
        1.49104         115.436         20.4413 
        1.49718           115.5         20.2463 
        1.50333         114.781         20.0534 
        1.50947         114.287         19.8635 
         1.5156         113.629         19.6764 
        1.52172         112.856         19.4916 
        1.52787         112.194         19.3089 
          1.534         111.822         19.1288 
        1.54013         111.233         18.9511 
        1.54627         110.319         18.7754 
        1.55241         109.829         18.6019 
        1.55855         109.289         18.4309 
        1.56467         108.344         18.2625 
         1.5708         108.064         18.0957 
        1.57695         107.611         17.9308 
        1.58308          106.98         17.7683 
        1.58922         106.684         17.6078 
        1.59535         106.132         17.4493 
         1.6015         105.413         17.2925 
        1.60764         104.733         17.1377 
        1.61376         104.112         16.9853 
        1.61989         103.551         16.8346 
        1.62604         103.065         16.6855 
        1.63218          102.72         16.5382 
        1.63831         101.928          16.393 
        1.64444         101.469         16.2496 
        1.65059         100.854         16.1075 
        1.65673         100.255         15.9673 
        1.66285         99.7017         15.8292 
        1.66898         99.1139         15.6927 
        1.67512         98.8296         15.5575 
        1.68127         98.2606         15.4238 
         1.6874          97.678          15.292 
        1.69353         97.0653         15.1618 
        1.69967         96.8495         15.0328 
        1.70581          96.309         14.9054 
        1.71193         95.7324         14.7799 
        1.71806         95.0037         14.6556 
        1.72421         94.6601         14.5326 
        1.73035         94.4381         14.4111 
        1.73649         93.7187          14.291 
        1.74262         93.0411         14.1723 
        1.74876         92.6839          14.055 
        1.75489         92.0611         13.9392 
        1.76101         91.5673         13.8248 
        1.76715         91.2246         13.7115 
        1.77329         90.6684         13.5993 
        1.77943         90.2908         13.4884 
        1.78557         89.9332         13.3789 
        1.79171         89.3855         13.2705 
        1.79785         88.8082         13.1634 
        1.80399         88.4339         13.0574 
        1.81012         87.8578         12.9528 
        1.81625         87.6269         12.8494 
        1.82239         87.2897         12.7469 
        1.82853         86.5387         12.6456 
        1.83466         86.1141         12.5456 
        1.84078         85.7523         12.4467 
        1.84692         85.4675         12.3487 
        1.85306          84.954         12.2517 
         1.8592         84.5487         12.1559 
        1.86533         84.0475         12.0611 
        1.87147         83.5328         11.9673 
        1.87761         83.0509         11.8744 
        1.88375          82.555         11.7826 
        1.88988         82.1659         11.6919 
        1.89601         81.7653         11.6021 
        1.90215         81.2832         11.5132 
        1.90829         80.9661         11.4253 
        1.91442         80.6054         11.3382 
        1.92056         80.1539         11.2522 
         1.9267         79.7665          11.167 
        1.93284         79.4722         11.0826 
        1.93897         79.0846         10.9992 
        1.94509         78.5581         10.9169 
        1.95123          78.249         10.8352 
        1.95737         77.6397         10.7543 
        1.96349         77.3815         10.6744 
        1.96964          76.989         10.5952 
        1.97578         76.4777         10.5167 
        1.98192         76.1409         10.4391 
        1.98805         75.6781         10.3623 
        1.99419         75.2699         10.2863 
        2.00033         74.8531         10.2111 
        2.00647         74.6457         10.1366 
         2.0126         74.1962          10.063 
        2.01874         73.9328         9.98996 
        2.02488         73.5788         9.91762 
        2.03101         73.1498         9.84614 
        2.03714          72.949         9.77543 
        2.04328         72.4412         9.70534 
        2.04941         71.8669         9.63599 
        2.05554         71.7842         9.56738 
        2.06167         71.4896         9.49934 
        2.06781         70.8538         9.43196 
        2.07396         70.5886         9.36514 
        2.08009         70.3193         9.29908 
        2.08622          69.881         9.23374 
        2.09237         69.4891          9.1689 
        2.09851         69.0868         9.10467 
        2.10464         68.8475         9.04117 
        2.11077         68.5294         8.97836 
        2.11691         68.1846           8.916 
        2.12305         67.7316         8.85424 
        2.12918            67.4         8.79321 
        2.13531         67.1563         8.73275 
        2.14145         66.6615         8.67273 
         2.1476         66.4477          8.6132 
        2.15372         66.1588         8.55454 
        2.15985         65.7393         8.49636 
        2.16599         65.3726         8.43856 
        2.17213          65.119         8.38136 
        2.17827         64.7345          8.3247 
         2.1844          64.477         8.26863 
        2.19054         64.1364         8.21305 
        2.19666         63.7274         8.15806 
         2.2028         63.5396         8.10353 
        2.20893          63.108         8.04947 
        2.21508         62.7582         7.99584 
        2.22122         62.4442         7.94269 
        2.22736         62.1242         7.89014 
        2.23349         61.9609         7.83807 
        2.23962         61.6205         7.78645 
        2.24577         61.2779         7.73525 
         2.2519         60.9892         7.68458 
        2.25802         60.7006         7.63445 
        2.26417         60.3509         7.58463 
        2.27031          60.033         7.53521 
        2.27644         59.8092         7.48637 
        2.28257          59.496         7.43797 
        2.28872         59.3117         7.38991 
        2.29486         59.0071         7.34229 
        2.30099         58.5451         7.29518 
        2.30712         58.3902         7.24847 
        2.31326         58.0815         7.20209 
         2.3194         57.7294         7.15615 
        2.32553         57.6032         7.11068 
        2.33166         57.0927         7.06563 
         2.3378         56.8522         7.02091 
        2.34394         56.5828         6.97657 
        2.35007         56.2991         6.93267 
        2.35619         56.1128          6.8892 
        2.36233          55.702         6.84601 
        2.36848         55.4689         6.80309 
        2.37462         55.1932         6.76064 
        2.38075         54.9894         6.71859 
        2.38689         54.7214         6.67686 
        2.39303         54.5204          6.6355 
        2.39916          54.274         6.59453 
        2.40529         53.9145         6.55391 
        2.41143         53.6503         6.51361 
        2.41757         53.3736         6.47362 
         2.4237         53.2493         6.43405 
        2.42983         52.8153         6.39482 
        2.43598         52.5519         6.35581 
        2.44211         52.3871         6.31719 
        2.44823         52.1082         6.27897 
        2.45437         51.8495         6.24097 
        2.46052         51.5345         6.20326 
        2.46665         51.3033         6.16592 
        2.47279         51.1032         6.12891 
        2.47892         50.8133         6.09217 
        2.48507         50.6269         6.05571 
         2.4912          50.312         6.01961 
