# k  (h/Mpc)    P(k)  (Mpc/h)^3    P_linear(k)  (Mpc/h)^3
     0.00783031         5716.22         5763.12 
       0.013688         6940.32         7073.84 
       0.019231         7036.94         7107.09 
      0.0249154         6518.01          6506.6 
      0.0312784         5552.62         5575.02 
      0.0375637            4678         4717.65 
      0.0433917          4106.3         4106.54 
      0.0492413         3658.93         3679.32 
      0.0555754         3372.14         3369.76 
      0.0619321         3072.76         3135.49 
       0.067871         2894.34         2920.56 
      0.0738098         2664.87         2676.77 
      0.0800417         2391.68         2391.06 
      0.0862327         2099.62         2103.85 
      0.0921407         1860.71         1857.49 
      0.0982031         1675.69         1654.42 
       0.104506         1504.83         1502.81 
       0.110769         1408.71         1402.67 
       0.116806         1357.57         1335.62 
       0.122832         1283.65         1277.85 
       0.129052         1220.96         1211.62 
       0.135211         1156.55         1132.07 
       0.141259         1059.45         1042.79 
       0.147318         961.742         950.935 
       0.153489         887.255         865.141 
       0.159709         831.212         794.148 
       0.165845          762.41         741.735 
       0.171974         743.842         704.507 
       0.178125         715.669         676.856 
       0.184229         675.274         652.674 
        0.19034         657.878         626.499 
       0.196428         630.392         595.856 
       0.202534          584.08         560.886 
       0.208729         562.974         523.696 
       0.214876         533.683          488.51 
       0.220989         494.686          457.98 
       0.227147         480.987         433.043 
        0.23329         462.443         413.673 
       0.239377         452.114         398.421 
       0.245482         431.095         385.051 
       0.251667         413.901         371.544 
       0.257832          407.87         356.911 
       0.263955         384.122          341.01 
       0.270079         368.128         324.308 
        0.27624         350.729         307.756 
       0.282372         339.712         292.547 
        0.28843           335.5         279.386 
       0.294538         318.993         268.154 
       0.300721         307.182         258.509 
        0.30691         302.314         249.992 
       0.313033         289.393         241.989 
       0.319153         284.247         233.927 
       0.325316         275.496         225.479 
        0.33145         267.376         216.838 
       0.337538         257.748         208.265 
       0.343633         249.328         200.039 
       0.349808         241.794         192.335 
       0.355968         235.938         185.419 
       0.362074         230.069           179.3 
       0.368217         225.954         173.713 
       0.374374         220.518         168.487 
       0.380519         211.402         163.424 
       0.386598         207.459         158.442 
       0.392688         201.658         153.446 
        0.39888         197.395         148.387 
       0.405048         193.003          143.48 
       0.411186         190.215         138.825 
       0.417313         185.733         134.462 
       0.423458         180.851         130.409 
       0.429607         176.802         126.641 
       0.435692         173.745          123.13 
       0.441815         169.388         119.754 
       0.447964         164.394         116.463 
       0.454126         161.514         113.219 
       0.460267         159.872         110.042 
       0.466387         156.189         106.953 
        0.47254         154.291         103.945 
       0.478662         149.136         101.074 
       0.484765         147.087          98.354 
       0.490885         144.207         95.7718 
       0.497035         142.821         93.3018 
       0.503198         140.069         90.9309 
       0.509342         136.397         88.6519 
       0.515458         134.641         86.4526 
       0.521598         131.343         84.3005 
       0.527764         129.981         82.1897 
       0.533884         129.142         80.1531 
           0.54         125.666         78.1857 
       0.546137         122.752         76.2859 
       0.552299         121.115         74.4523 
       0.558452         118.915         72.6912 
       0.564573         118.339         71.0038 
       0.570708          115.06         69.3723 
       0.576825         113.761         67.7988 
       0.582926         112.502         66.2761 
       0.589034         110.595         64.7923 
       0.595184         109.342         63.3373 
       0.601379          106.78         61.9134 
       0.607522         104.979         60.5444 
       0.613639         104.094         59.2254 
       0.619772         102.375         57.9472 
       0.625918         101.472         56.7079 
       0.632068         99.4832         55.5061 
       0.638161         98.0103         54.3505 
         0.6443         97.4572         53.2188 
       0.650464         95.3946         52.1143 
       0.656582         95.0163         51.0484 
       0.662703         93.7475         50.0117 
       0.668861         91.7081         48.9981 
       0.675024         91.6406         48.0121 
       0.681124         90.1182         47.0636 
       0.687237         88.4868         46.1393 
       0.693381         87.8888         45.2358 
       0.699536         86.7979         44.3553 
       0.705665         85.5548         43.5023 
       0.711789         84.3927         42.6727 
       0.717957         83.3567         41.8592 
        0.72409         82.6386         41.0717 
       0.730186         82.1495         40.3094 
       0.736317         80.6877         39.5625 
       0.742472         79.6599          38.832 
       0.748622         78.4761         38.1207 
        0.75476         78.0334         37.4288 
       0.760888         77.6166         36.7553 
       0.767043         76.0553         36.0959 
       0.773185         75.1483         35.4541 
       0.779291         74.3222         34.8316 
       0.785407         73.4415         34.2232 
       0.791564         73.3307         33.6257 
       0.797719         72.2447         33.0428 
       0.803834         71.6796         32.4775 
       0.809972         71.0438         31.9235 
       0.816124         70.1697         31.3813 
       0.822261         69.2521         30.8532 
       0.828378         69.0658         30.3391 
       0.834502         68.0738         29.8363 
       0.840667         67.6129         29.3417 
       0.846816         66.8944         28.8599 
       0.852925         66.1693          28.392 
       0.859047         65.9862         27.9336 
       0.865192           64.93         27.4839 
       0.871341         64.2119         27.0439 
       0.877463         63.7492         26.6156 
       0.883569         63.5941         26.1977 
       0.889708         62.9136         25.7868 
       0.895864         62.3821         25.3836 
       0.902008         61.7281           24.99 
       0.908149         61.0397         24.6049 
       0.914301         60.7216         24.2275 
       0.920448         60.4733         23.8583 
       0.926574         59.2935         23.4982 
       0.932687         59.0392         23.1464 
       0.938823         58.5207         22.8005 
       0.944975         57.8377         22.4609 
       0.951105          57.422         22.1295 
       0.957225         57.1955         21.8054 
       0.963368         56.6293         21.4867 
       0.969511         56.1359         21.1744 
       0.975621         55.7174           20.87 
       0.981748         55.1642         20.5709 
       0.987916         54.7592         20.2758 
        0.99406         54.4062         19.9876 
        1.00019         53.8187         19.7056 
        1.00632         53.4529         19.4293 
        1.01246         53.0632         19.1579 
        1.01859         52.7849         18.8922 
        1.02471          52.185         18.6319 
        1.03085         51.8824         18.3756 
        1.03698         51.5674         18.1247 
        1.04314         51.1576         17.8774 
        1.04929         50.6538         17.6353 
        1.05541          50.447         17.3988 
        1.06154         50.1181          17.166 
        1.06769         49.4784         16.9371 
        1.07382         49.1975         16.7132 
        1.07993         48.9559         16.4939 
        1.08607         48.5568         16.2776 
        1.09222         48.3458          16.065 
        1.09836         47.9177         15.8565 
        1.10449         47.6697         15.6519 
        1.11063         47.2206         15.4508 
        1.11677         47.1222         15.2533 
         1.1229          46.612         15.0595 
        1.12903          46.408          14.869 
        1.13518         46.2857         14.6817 
        1.14131         45.7689         14.4977 
        1.14745         45.3865         14.3169 
        1.15359          44.941         14.1393 
        1.15973         44.9068         13.9646 
        1.16584          44.556         13.7936 
        1.17197          44.033         13.6253 
        1.17811         43.8895         13.4592 
        1.18424         43.2971         13.2964 
        1.19038         43.2315         13.1359 
        1.19652         43.0285         12.9781 
        1.20267         42.7496         12.8228 
        1.20881         42.4397         12.6702 
        1.21495         42.2858         12.5203 
        1.22108         42.1325         12.3728 
         1.2272         41.7166         12.2281 
        1.23334         41.4819         12.0854 
        1.23949         41.2203         11.9446 
        1.24562         40.9163         11.8065 
        1.25174          40.662         11.6707 
        1.25789          40.609         11.5367 
        1.26402         40.2745          11.405 
        1.27014         40.1032         11.2758 
        1.27628         39.6805         11.1481 
        1.28244         39.6526         11.0222 
        1.28858         39.3072         10.8984 
        1.29471         39.0668         10.7767 
        1.30084         38.7647         10.6571 
        1.30697         38.7255         10.5391 
        1.31312         38.3658         10.4227 
        1.31925         38.0544         10.3085 
        1.32537          37.886         10.1961 
        1.33151         37.6403         10.0849 
        1.33765         37.5278         9.97552 
        1.34378          37.371         9.86796 
        1.34992         37.0614         9.76191 
        1.35606          36.817         9.65721 
         1.3622         36.6451         9.55423 
        1.36833         36.4972           9.453 
        1.37445           36.16          9.3533 
        1.38059          36.062         9.25473 
        1.38675         35.7295         9.15735 
        1.39288          35.661         9.06177 
        1.39901         35.4046          8.9676 
        1.40515         35.2549         8.87456 
         1.4113         35.2195         8.78288 
        1.41742         34.9631         8.69285 
        1.42355         34.6479         8.60391 
         1.4297          34.513         8.51595 
        1.43585         34.2933         8.42926 
        1.44198         34.1139         8.34411 
        1.44809         33.9046         8.26029 
        1.45423         33.8061         8.17732 
        1.46036         33.6605         8.09564 
        1.46649         33.4535         8.01505 
        1.47263         33.2302         7.93549 
        1.47877         33.0864         7.85705 
        1.48491         32.9625         7.77955 
        1.49104         32.6923         7.70326 
        1.49718         32.6347         7.62794 
        1.50333         32.4911         7.55351 
        1.50947         32.2507         7.48023 
         1.5156         32.1137         7.40803 
        1.52172         31.8868         7.33678 
        1.52787         31.7942         7.26634 
          1.534         31.5796          7.1969 
        1.54013         31.5637         7.12845 
        1.54627         31.2575         7.06076 
        1.55241         31.1149         6.99395 
        1.55855         31.0314         6.92809 
        1.56467         30.8649         6.86327 
         1.5708         30.7179          6.7991 
        1.57695         30.5916         6.73565 
        1.58308          30.314         6.67316 
        1.58922         30.1865         6.61142 
        1.59535         30.0897         6.55049 
         1.6015         30.0158         6.49024 
        1.60764         29.8047         6.43078 
        1.61376         29.6491         6.37223 
        1.61989         29.4343         6.31437 
        1.62604         29.3351         6.25709 
        1.63218         29.2098         6.20056 
        1.63831         29.0981         6.14486 
        1.64444         28.9422         6.08983 
        1.65059         28.8026         6.03534 
        1.65673         28.6851         5.98158 
        1.66285         28.6026         5.92862 
        1.66898         28.3816         5.87629 
        1.67512         28.3337         5.82448 
        1.68127          28.165         5.77326 
         1.6874         28.0186         5.72276 
        1.69353         27.9355          5.6729 
        1.69967         27.8016         5.62352 
        1.70581         27.6012         5.57475 
        1.71193         27.4719         5.52674 
        1.71806         27.4075         5.47919 
        1.72421          27.294         5.43211 
        1.73035         27.1293         5.38564 
        1.73649         26.9599         5.33972 
        1.74262         26.8185         5.29438 
        1.74876         26.7746         5.24953 
        1.75489         26.6151          5.2053 
        1.76101         26.5175         5.16159 
        1.76715         26.4266         5.11832 
        1.77329         26.2164          5.0755 
        1.77943         26.1733         5.03314 
        1.78557         26.0685         4.99134 
        1.79171         25.9454            4.95 
        1.79785         25.8236         4.90912 
        1.80399         25.6915         4.86872 
        1.81012         25.6315         4.82882 
        1.81625          25.424         4.78939 
        1.82239         25.3443         4.75034 
        1.82853         25.2355         4.71174 
        1.83466         25.1102         4.67362 
        1.84078         24.9886         4.63595 
        1.84692         24.9289         4.59864 
        1.85306         24.7613          4.5617 
         1.8592         24.7306         4.52522 
        1.86533         24.5614         4.48916 
        1.87147         24.4393         4.45345 
        1.87761         24.3379         4.41812 
        1.88375         24.3024         4.38321 
        1.88988         24.1441         4.34871 
        1.89601         24.0219         4.31457 
        1.90215         23.9252         4.28077 
        1.90829         23.8741         4.24735 
        1.91442         23.6868         4.21428 
        1.92056         23.6359         4.18159 
         1.9267           23.54         4.14922 
        1.93284         23.4823         4.11717 
        1.93897         23.3678         4.08552 
        1.94509         23.2647         4.05427 
        1.95123         23.1496         4.02326 
        1.95737         23.0435         3.99256 
        1.96349          22.953         3.96226 
        1.96964         22.9487         3.93219 
        1.97578         22.7268         3.90241 
        1.98192         22.6707         3.87301 
        1.98805          22.491          3.8439 
        1.99419         22.4909          3.8151 
        2.00033         22.3596         3.78657 
        2.00647         22.3068         3.75834 
         2.0126         22.1696         3.73045 
        2.01874         22.0871          3.7028 
        2.02488         21.9604         3.67541 
        2.03101         21.8623         3.64834 
        2.03714         21.8037         3.62157 
        2.04328         21.7194         3.59504 
        2.04941         21.6172          3.5688 
        2.05554         21.5619         3.54284 
        2.06167         21.4521          3.5171 
        2.06781         21.3906         3.49162 
        2.07396         21.3159         3.46635 
        2.08009         21.1783         3.44137 
        2.08622         21.1161         3.41667 
        2.09237         21.0752         3.39217 
        2.09851         20.9155          3.3679 
        2.10464         20.8054          3.3439 
        2.11077         20.7911         3.32017 
        2.11691         20.6779         3.29662 
        2.12305         20.6138          3.2733 
        2.12918         20.5364         3.25025 
        2.13531         20.4538         3.22743 
        2.14145         20.3363         3.20478 
         2.1476         20.2176         3.18231 
        2.15372         20.1943         3.16018 
        2.15985         20.1133         3.13823 
        2.16599         20.0086         3.11643 
        2.17213         19.9621         3.09486 
        2.17827          19.835         3.07349 
         2.1844         19.7785         3.05235 
        2.19054         19.7567          3.0314 
        2.19666          19.624         3.01068 
         2.2028         19.6035         2.99013 
        2.20893         19.4509         2.96977 
        2.21508          19.386         2.94957 
        2.22122         19.2847         2.92955 
        2.22736         19.2915         2.90976 
        2.23349         19.1394         2.89016 
        2.23962         19.1083         2.87072 
        2.24577         19.0205         2.85145 
         2.2519         18.9554         2.83239 
        2.25802         18.8204         2.81352 
        2.26417         18.7908         2.79478 
        2.27031         18.7262         2.77619 
        2.27644         18.6806         2.75782 
        2.28257         18.5713         2.73963 
        2.28872         18.5625         2.72156 
        2.29486         18.4571         2.70365 
        2.30099         18.3491         2.68595 
        2.30712         18.3043          2.6684 
        2.31326         18.2094         2.65097 
         2.3194         18.1409         2.63371 
        2.32553         18.1041         2.61663 
        2.33166         17.9801         2.59971 
         2.3378         17.9604         2.58292 
        2.34394          17.849         2.56627 
        2.35007         17.8114         2.54979 
        2.35619         17.7675         2.53347 
        2.36233         17.6463         2.51726 
        2.36848         17.5825         2.50116 
        2.37462          17.526         2.48524 
        2.38075         17.4793         2.46946 
        2.38689         17.3855         2.45381 
        2.39303         17.3291          2.4383 
        2.39916         17.2344         2.42294 
        2.40529         17.2023         2.40771 
        2.41143         17.1159          2.3926 
        2.41757         17.0333         2.37762 
         2.4237         16.9819         2.36279 
        2.42983         16.9392         2.34809 
        2.43598         16.8548         2.33347 
        2.44211         16.8013         2.31901 
        2.44823         16.7394         2.30469 
        2.45437         16.7052         2.29046 
        2.46052         16.5981         2.27634 
        2.46665         16.5925         2.26236 
        2.47279         16.4684         2.24851 
        2.47892          16.415         2.23476 
        2.48507         16.3629         2.22111 
         2.4912         16.2909         2.20761 
