# k  (h/Mpc)    P(k)  (Mpc/h)^3    P_linear(k)  (Mpc/h)^3
     0.00783031         3882.45         3925.23 
       0.013688         4297.37          4368.1 
       0.019231         3985.51         4015.21 
      0.0249154          3381.4         3367.81 
      0.0312784         2649.01         2645.67 
      0.0375637         2099.42         2103.88 
      0.0433917            1785         1777.86 
      0.0492413         1581.42         1581.95 
      0.0555754         1458.72         1452.09 
      0.0619321          1327.8         1343.02 
       0.067871         1221.45         1223.66 
      0.0738098         1082.69         1080.78 
      0.0800417         929.132         922.073 
      0.0862327         784.748         780.007 
      0.0921407         680.844         674.992 
      0.0982031         612.256         602.268 
       0.104506         559.632         557.585 
       0.110769         534.025         531.279 
       0.116806         516.093         509.645 
       0.122832         484.433         482.177 
       0.129052         449.021         444.289 
       0.135211         409.147         400.272 
       0.141259         364.202         357.112 
       0.147318         325.275         319.824 
       0.153489         298.367         291.197 
       0.159709         281.048         271.843 
       0.165845         263.658         259.539 
       0.171974         258.975         250.323 
       0.178125          248.31         240.744 
       0.184229         233.853         228.878 
        0.19034          222.06         214.424 
       0.196428         207.298         198.693 
       0.202534         189.094         183.406 
       0.208729         179.409         169.971 
       0.214876         169.871         159.445 
       0.220989         158.988         151.589 
       0.227147         155.019         145.518 
        0.23329         149.452         140.263 
       0.239377         144.967         134.955 
       0.245482         137.845         129.054 
       0.251667          130.47         122.494 
       0.257832         126.335         115.733 
       0.263955         118.081         109.299 
       0.270079          112.16         103.545 
        0.27624         106.848         98.6209 
       0.282372         103.057           94.53 
        0.28843         101.206         91.0525 
       0.294538         96.9158         87.8363 
       0.300721         92.7765         84.6297 
        0.30691         90.5856         81.3386 
       0.313033         86.5077         78.0015 
       0.319153         84.3118         74.6777 
       0.325316         80.4098         71.4699 
        0.33145         77.2636         68.5239 
       0.337538         74.4837         65.8849 
       0.343633         72.2567         63.5175 
       0.349808         69.7557         61.3312 
       0.355968         67.6389         59.2878 
       0.362074           66.21         57.3263 
       0.368217         64.1558          55.381 
       0.374374         62.3994         53.4549 
       0.380519         59.7252         51.5738 
       0.386598         57.9232         49.7876 
       0.392688         55.9539         48.0968 
        0.39888         54.8817         46.4895 
       0.405048         53.4345         45.0008 
       0.411186         51.9601         43.6097 
       0.417313         50.4569         42.2898 
       0.423458         48.9616         41.0176 
       0.429607         47.9962         39.7813 
       0.435692           47.17         38.5902 
       0.441815         45.3356         37.4291 
       0.447964         43.8166         36.3065 
       0.454126         43.0187         35.2296 
       0.460267         42.4907         34.2084 
       0.466387         41.2379         33.2418 
        0.47254         40.6025         32.3148 
       0.478662          39.188         31.4307 
       0.484765         38.3534         30.5824 
       0.490885         37.2055         29.7608 
       0.497035         36.6645         28.9611 
       0.503198         35.8635         28.1854 
       0.509342         34.7999         27.4391 
       0.515458         34.2458          26.724 
       0.521598         33.4101         26.0341 
       0.527764         32.8933         25.3679 
       0.533884         32.2428         24.7316 
           0.54          31.514         24.1191 
       0.546137         30.5673         23.5261 
       0.552299         29.9777         22.9504 
       0.558452         29.3134         22.3941 
       0.564573         29.0269         21.8578 
       0.570708         28.2487         21.3375 
       0.576825         27.8688         20.8358 
       0.582926         27.3687         20.3523 
       0.589034         26.7797         19.8843 
       0.595184         26.4226         19.4286 
       0.601379         25.7125         18.9844 
       0.607522         25.2096         18.5578 
       0.613639         24.8615         18.1462 
       0.619772         24.3507          17.746 
       0.625918         23.9224         17.3572 
       0.632068         23.6639         16.9799 
       0.638161         23.1531         16.6173 
         0.6443         22.8152         16.2627 
       0.650464         22.2175         15.9173 
       0.656582         22.0765         15.5846 
       0.662703         21.7388         15.2614 
       0.668861         21.1863         14.9456 
       0.675024         20.9049         14.6387 
       0.681124          20.779         14.3437 
       0.687237         20.3414         14.0562 
       0.693381         19.9165         13.7754 
       0.699536         19.7788         13.5019 
       0.705665         19.3788          13.237 
       0.711789         19.0652         12.9796 
       0.717957         18.6669         12.7273 
        0.72409         18.4729         12.4831 
       0.730186         18.3668          12.247 
       0.736317         17.9688         12.0157 
       0.742472         17.7592         11.7896 
       0.748622         17.4576         11.5695 
        0.75476         17.0326         11.3557 
       0.760888          16.987         11.1476 
       0.767043         16.6556         10.9439 
       0.773185         16.4461         10.7458 
       0.779291         16.2526         10.5538 
       0.785407         16.0196         10.3663 
       0.791564         15.8991         10.1821 
       0.797719         15.5087         10.0026 
       0.803834         15.4585          9.8286 
       0.809972         15.1444         9.65814 
       0.816124         14.9812         9.49139 
       0.822261         14.7992         9.32906 
       0.828378         14.6458         9.17104 
       0.834502         14.4771         9.01657 
       0.840667         14.3061          8.8647 
       0.846816         13.9988         8.71678 
       0.852925         13.9519         8.57319 
       0.859047         13.7683         8.43256 
       0.865192         13.5695         8.29465 
       0.871341         13.4039         8.15977 
       0.877463         13.2277         8.02851 
       0.883569         13.1354          7.9005 
       0.889708          12.921         7.77465 
       0.895864         12.7502         7.65124 
       0.902008         12.6226         7.53079 
       0.908149         12.4304         7.41303 
       0.914301         12.3411         7.29762 
       0.920448         12.1834         7.18479 
       0.926574         12.0895         7.07476 
       0.932687         11.9016         6.96729 
       0.938823         11.7337         6.86169 
       0.944975         11.6683         6.75806 
       0.951105         11.5343         6.65695 
       0.957225         11.4395          6.5581 
       0.963368         11.2571         6.46094 
       0.969511         11.1427         6.36576 
       0.975621         11.0472         6.27303 
       0.981748         10.8961         6.18192 
       0.987916         10.8215         6.09207 
        0.99406         10.6735         6.00435 
        1.00019         10.5978         5.91854 
        1.00632         10.5223          5.8345 
        1.01246         10.3718         5.75198 
        1.01859         10.2731          5.6712 
        1.02471         10.1557         5.59208 
        1.03085         10.0967         5.51421 
        1.03698         10.0045         5.43799 
        1.04314         9.87006          5.3629 
        1.04929         9.74706         5.28942 
        1.05541         9.68292         5.21761 
        1.06154         9.59386         5.14697 
        1.06769         9.50909         5.07755 
        1.07382         9.38123         5.00963 
        1.07993         9.30316         4.94312 
        1.08607         9.23864         4.87755 
        1.09222         9.12722         4.81311 
        1.09836         9.05862         4.74991 
        1.10449         8.97356         4.68793 
        1.11063         8.92175           4.627 
        1.11677         8.85139         4.56717 
         1.1229         8.75491         4.50852 
        1.12903         8.67265         4.45085 
        1.13518         8.58339         4.39415 
        1.14131         8.52393         4.33847 
        1.14745         8.39577          4.2838 
        1.15359         8.31706         4.23006 
        1.15973         8.26855         4.17723 
        1.16584         8.18615         4.12555 
        1.17197         8.10246         4.07467 
        1.17811         8.05032          4.0245 
        1.18424         7.99236         3.97533 
        1.19038         7.95068         3.92684 
        1.19652         7.85265         3.87919 
        1.20267          7.8148         3.83233 
        1.20881         7.70333         3.78626 
        1.21495         7.66081         3.74103 
        1.22108         7.60011         3.69654 
         1.2272         7.53089         3.65289 
        1.23334         7.49744         3.60985 
        1.23949         7.42242          3.5674 
        1.24562          7.3541         3.52576 
        1.25174         7.31952         3.48484 
        1.25789         7.23671         3.44446 
        1.26402         7.18866         3.40479 
        1.27014         7.15584         3.36584 
        1.27628         7.06829         3.32739 
        1.28244         7.04563         3.28947 
        1.28858         6.96873         3.25219 
        1.29471         6.89813         3.21558 
        1.30084          6.8456         3.17957 
        1.30697         6.81896         3.14406 
        1.31312         6.76033         3.10904 
        1.31925         6.71814         3.07467 
        1.32537         6.65501         3.04085 
        1.33151          6.6058         3.00743 
        1.33765          6.5619         2.97453 
        1.34378         6.53902         2.94219 
        1.34992         6.47376          2.9103 
        1.35606         6.41293         2.87883 
         1.3622         6.36399         2.84788 
        1.36833         6.34064         2.81745 
        1.37445         6.28703          2.7875 
        1.38059          6.2281         2.75788 
        1.38675         6.20018         2.72863 
        1.39288         6.15167         2.69992 
        1.39901         6.09514         2.67164 
        1.40515         6.05843         2.64371 
         1.4113         6.01679         2.61618 
        1.41742         5.98933         2.58916 
        1.42355         5.92849         2.56247 
         1.4297         5.88853         2.53607 
        1.43585            5.86         2.51006 
        1.44198         5.83109         2.48452 
        1.44809         5.78092         2.45938 
        1.45423         5.73738          2.4345 
        1.46036         5.70191         2.41001 
        1.46649         5.66768         2.38585 
        1.47263         5.62946           2.362 
        1.47877          5.5844         2.33849 
        1.48491         5.56799         2.31527 
        1.49104         5.52434         2.29241 
        1.49718         5.49439         2.26984 
        1.50333         5.45363         2.24755 
        1.50947         5.41752          2.2256 
         1.5156          5.3909         2.20397 
        1.52172         5.34284         2.18264 
        1.52787         5.33172         2.16154 
          1.534         5.28175         2.14076 
        1.54013         5.26329         2.12026 
        1.54627         5.21919             2.1 
        1.55241         5.17567            2.08 
        1.55855         5.16234         2.06029 
        1.56467         5.14445          2.0409 
         1.5708         5.08955         2.02169 
        1.57695         5.05876         2.00271 
        1.58308         5.02661         1.98401 
        1.58922         5.00885         1.96554 
        1.59535         4.98374         1.94732 
         1.6015         4.92504          1.9293 
        1.60764          4.9056         1.91151 
        1.61376         4.88458         1.89401 
        1.61989         4.84903          1.8767 
        1.62604         4.83497         1.85958 
        1.63218         4.80256         1.84268 
        1.63831         4.77182         1.82603 
        1.64444         4.73714         1.80958 
        1.65059         4.70987          1.7933 
        1.65673         4.69525         1.77724 
        1.66285          4.6633         1.76141 
        1.66898         4.64658         1.74578 
        1.67512         4.61925          1.7303 
        1.68127          4.5707           1.715 
         1.6874         4.56082         1.69992 
        1.69353         4.52236         1.68504 
        1.69967         4.50705         1.67029 
        1.70581         4.47776         1.65573 
        1.71193         4.45405          1.6414 
        1.71806         4.42748         1.62721 
        1.72421         4.40291         1.61315 
        1.73035         4.38852         1.59929 
        1.73649         4.36588         1.58558 
        1.74262         4.32585         1.57205 
        1.74876          4.3179         1.55867 
        1.75489         4.29549         1.54548 
        1.76101         4.25619         1.53244 
        1.76715         4.25664         1.51953 
        1.77329          4.2221         1.50676 
        1.77943         4.18898         1.49413 
        1.78557         4.18944         1.48166 
        1.79171         4.15808         1.46933 
        1.79785          4.1445         1.45714 
        1.80399         4.11528         1.44509 
        1.81012         4.09245          1.4332 
        1.81625         4.07005         1.42144 
        1.82239          4.0537          1.4098 
        1.82853         4.02166         1.39829 
        1.83466         3.99676         1.38693 
        1.84078         3.98021          1.3757 
        1.84692         3.96472         1.36458 
        1.85306         3.94509         1.35357 
         1.8592         3.93035          1.3427 
        1.86533         3.90837         1.33196 
        1.87147         3.89379         1.32132 
        1.87761         3.87125         1.31079 
        1.88375         3.85216         1.30039 
        1.88988         3.83483         1.29011 
        1.89601         3.80663         1.27994 
        1.90215         3.79287         1.26988 
        1.90829         3.77984         1.25992 
        1.91442         3.76021         1.25007 
        1.92056         3.74909         1.24034 
         1.9267         3.72449          1.2307 
        1.93284         3.70614         1.22116 
        1.93897         3.68435         1.21174 
        1.94509          3.6529         1.20243 
        1.95123         3.65529          1.1932 
        1.95737         3.63735         1.18407 
        1.96349          3.6163         1.17505 
        1.96964         3.59196          1.1661 
        1.97578         3.58228         1.15724 
        1.98192         3.56437         1.14849 
        1.98805         3.54954         1.13982 
        1.99419          3.5339         1.13125 
        2.00033         3.51006         1.12277 
        2.00647         3.50528         1.11437 
         2.0126         3.48616         1.10607 
        2.01874         3.46473         1.09785 
        2.02488         3.45817          1.0897 
        2.03101         3.43257         1.08165 
        2.03714         3.41372         1.07369 
        2.04328         3.40388          1.0658 
        2.04941         3.38531         1.05799 
        2.05554         3.37315         1.05027 
        2.06167         3.36576         1.04262 
        2.06781         3.34487         1.03504 
        2.07396         3.32726         1.02753 
        2.08009         3.31389          1.0201 
        2.08622         3.30737         1.01276 
        2.09237         3.28925         1.00547 
        2.09851         3.26979         0.99826 
        2.10464         3.26048        0.991128 
        2.11077         3.24093        0.984075 
        2.11691         3.23147        0.977075 
        2.12305         3.21865        0.970142 
        2.12918         3.20258        0.963294 
        2.13531         3.19164        0.956512 
        2.14145         3.17506        0.949779 
         2.1476           3.159        0.943104 
        2.15372         3.14466        0.936526 
        2.15985         3.13787        0.930005 
        2.16599         3.12398        0.923528 
        2.17213         3.11962        0.917119 
        2.17827          3.0926        0.910773 
         2.1844         3.08843        0.904492 
        2.19054         3.07611        0.898269 
        2.19666         3.06092        0.892114 
         2.2028         3.03984         0.88601 
        2.20893         3.04123        0.879961 
        2.21508         3.01774        0.873962 
        2.22122         3.00548        0.868017 
        2.22736         2.99069         0.86214 
        2.23349         2.97928        0.856318 
        2.23962         2.96957        0.850547 
        2.24577          2.9581        0.844825 
         2.2519         2.95716        0.839163 
        2.25802         2.92389        0.833563 
        2.26417         2.92008        0.827998 
        2.27031         2.90767        0.822479 
        2.27644         2.90005        0.817026 
        2.28257         2.88616        0.811624 
        2.28872         2.87171         0.80626 
        2.29486         2.86156        0.800945 
        2.30099         2.85393         0.79569 
        2.30712         2.83915         0.79048 
        2.31326         2.83211        0.785307 
         2.3194         2.81505        0.780184 
        2.32553         2.80853        0.775116 
        2.33166         2.79547        0.770095 
         2.3378         2.78757        0.765111 
        2.34394         2.77203        0.760171 
        2.35007          2.7638         0.75528 
        2.35619         2.75794        0.750439 
        2.36233         2.74329         0.74563 
        2.36848         2.73131        0.740852 
        2.37462         2.72468        0.736126 
        2.38075         2.71284        0.731447 
        2.38689         2.70605        0.726804 
        2.39303         2.69168        0.722202 
        2.39916         2.68279        0.717645 
        2.40529          2.6708        0.713128 
        2.41143         2.66894        0.708646 
        2.41757          2.6551        0.704201 
         2.4237         2.64622        0.699803 
        2.42983         2.63332        0.695442 
        2.43598         2.62739        0.691107 
        2.44211          2.6121        0.686817 
        2.44823         2.60385        0.682573 
        2.45437         2.59467        0.678352 
        2.46052         2.58957        0.674165 
        2.46665         2.57555         0.67002 
        2.47279         2.56691        0.665911 
        2.47892         2.55811        0.661834 
        2.48507         2.54883        0.657788 
         2.4912         2.53876        0.653783 
