# k  (h/Mpc)    Pcb(k)  (Mpc/h)^3    Pcb_linear(k)  (Mpc/h)^3
     0.00783031         10535.9         10605.4 
       0.013688         12003.4         12264.4 
       0.019231         11528.1         11658.9 
      0.0249154         10131.5         10081.2 
      0.0312784         8102.58         8124.06 
      0.0375637          6486.6         6537.24 
      0.0433917         5531.45         5518.26 
      0.0492413          4858.9         4876.28 
      0.0555754         4475.75         4457.68 
      0.0619321         4061.97         4151.06 
       0.067871         3815.71         3846.17 
      0.0738098         3469.72         3473.93 
      0.0800417         3046.98         3028.75 
      0.0862327         2605.36         2591.31 
      0.0921407         2268.55          2234.7 
      0.0982031         2022.76         1961.65 
       0.104506         1806.72         1777.89 
       0.110769         1704.71         1671.58 
       0.116806            1655         1605.98 
       0.122832         1569.16         1543.02 
       0.129052          1483.4          1456.8 
       0.135211          1397.9         1343.89 
       0.141259         1260.67          1216.3 
       0.147318          1131.6         1089.59 
       0.153489         1035.17          978.33 
       0.159709          971.86         893.691 
       0.165845         891.682         837.391 
       0.171974         876.291         801.397 
       0.178125         846.587         775.325 
       0.184229         795.218         749.388 
        0.19034         774.322         716.635 
       0.196428          740.19         675.495 
       0.202534         679.475         628.497 
       0.208729         655.714         580.377 
       0.214876         618.236         537.487 
       0.220989         574.784         502.855 
       0.227147         559.183         476.626 
        0.23329         537.653          457.41 
       0.239377         529.712         442.281 
       0.245482         503.359         427.903 
       0.251667         483.175         411.803 
       0.257832         475.097         393.345 
       0.263955         446.314         373.174 
       0.270079         426.425         352.593 
        0.27624         406.945         333.155 
       0.282372         395.505         316.222 
        0.28843         390.788         302.311 
       0.294538         370.748         290.796 
       0.300721         358.878         280.899 
        0.30691          352.49         271.755 
       0.313033         336.113         262.644 
       0.319153         330.153         253.051 
       0.325316         321.984         242.906 
        0.33145         312.576         232.671 
       0.337538         300.408         222.851 
       0.343633         290.925         213.754 
       0.349808         282.427         205.534 
       0.355968         276.511         198.294 
       0.362074         267.626         191.901 
       0.368217         264.307         185.944 
       0.374374         257.966         180.177 
       0.380519         247.222         174.448 
       0.386598         243.383         168.722 
       0.392688         236.339         163.009 
        0.39888         231.007         157.331 
       0.405048         225.586         151.936 
       0.411186         223.597         146.935 
       0.417313         219.104         142.323 
       0.423458         213.137         138.041 
       0.429607         207.188         134.036 
       0.435692          203.94         130.251 
       0.441815         199.506         126.541 
       0.447964         193.949         122.889 
       0.454126         190.999         119.293 
       0.460267         188.485          115.79 
       0.466387         183.838         112.418 
        0.47254         181.669         109.186 
       0.478662         176.296         106.136 
       0.484765         173.743         103.253 
       0.490885          170.88         100.508 
       0.497035         168.561         97.8737 
       0.503198         166.553         95.3284 
       0.509342         162.226           92.86 
       0.515458         159.644         90.4663 
       0.521598         155.848         88.1313 
       0.527764         154.407         85.8592 
       0.533884         153.301         83.6805 
           0.54         149.703         81.5842 
       0.546137         146.255          79.565 
       0.552299         144.467         77.6224 
       0.558452         142.016         75.7582 
       0.564573         141.335         73.9674 
       0.570708          137.59          72.227 
       0.576825         135.851         70.5414 
       0.582926         134.397         68.9095 
       0.589034         132.153         67.3246 
       0.595184         130.799         65.7783 
       0.601379         128.356         64.2705 
       0.607522         125.505         62.8231 
       0.613639         124.726         61.4284 
       0.619772         123.015         60.0755 
       0.625918         122.074         58.7637 
       0.632068         119.128         57.4923 
       0.638161          118.24         56.2705 
         0.6443         117.224         55.0751 
       0.650464         114.817         53.9085 
       0.656582         114.146         52.7826 
       0.662703         112.976         51.6876 
       0.668861         110.557         50.6173 
       0.675024         110.475          49.577 
       0.681124         108.614         48.5776 
       0.687237         107.317          47.605 
       0.693381         105.858         46.6555 
       0.699536         104.858          45.731 
       0.705665         103.694         44.8358 
       0.711789         102.216         43.9654 
       0.717957          101.04         43.1119 
        0.72409         99.9132         42.2855 
       0.730186         99.7372         41.4857 
       0.736317         98.2772         40.7022 
       0.742472         96.5958         39.9361 
       0.748622         95.2172         39.1906 
        0.75476         95.4442          38.466 
       0.760888         94.3415         37.7611 
       0.767043         92.5118         37.0714 
       0.773185         91.4426         36.4006 
       0.779291         90.5314         35.7504 
       0.785407         89.8976         35.1153 
       0.791564         89.1833         34.4917 
       0.797719         87.7649         33.8837 
       0.803834         87.6559         33.2942 
       0.809972         86.7986         32.7167 
       0.816124         85.3769         32.1518 
       0.822261         84.6221         31.6017 
       0.828378         84.3739         31.0663 
       0.834502         83.3974         30.5428 
       0.840667         82.7972         30.0282 
       0.846816         81.8351         29.5269 
       0.852925         80.9612         29.0403 
       0.859047         80.4667         28.5637 
       0.865192         79.6765         28.0963 
       0.871341         78.9115         27.6392 
       0.877463         78.1449         27.1943 
       0.883569         78.1226         26.7605 
       0.889708         77.2757         26.3339 
       0.895864         76.6358         25.9156 
       0.902008         75.7342         25.5074 
       0.908149         74.8221         25.1082 
       0.914301         74.6391          24.717 
       0.920448         74.5377         24.3345 
       0.926574          72.928         23.9616 
       0.932687         72.8292         23.5973 
       0.938823         72.3244         23.2393 
       0.944975         71.5173         22.8879 
       0.951105         70.8567         22.5451 
       0.957225         70.6187           22.21 
       0.963368         69.8917         21.8806 
       0.969511         69.4982         21.5579 
       0.975621         68.6297         21.2435 
       0.981748         68.2459         20.9345 
       0.987916         67.6536         20.6298 
        0.99406         67.4756         20.3324 
        1.00019         66.6291         20.0414 
        1.00632         66.0788         19.7564 
        1.01246         65.7939         19.4766 
        1.01859         65.4388         19.2027 
        1.02471         64.9231         18.9344 
        1.03085         64.2928         18.6703 
        1.03698         63.8824         18.4118 
        1.04314         63.4045         18.1572 
        1.04929         63.0667         17.9079 
        1.05541         62.5507         17.6644 
        1.06154         62.1192         17.4248 
        1.06769         61.6939         17.1894 
        1.07382          61.121          16.959 
        1.07993          60.938         16.7335 
        1.08607         60.4495         16.5111 
        1.09222         60.1674         16.2926 
        1.09836         59.6704         16.0783 
        1.10449         59.3043         15.8681 
        1.11063         58.8914         15.6614 
        1.11677         58.6425         15.4586 
         1.1229         58.0141         15.2597 
        1.12903         57.8039         15.0641 
        1.13518         57.4555         14.8718 
        1.14131         57.0246          14.683 
        1.14745         56.8048         14.4976 
        1.15359          56.056         14.3154 
        1.15973         56.0456         14.1362 
        1.16584         55.6519         13.9609 
        1.17197         55.2636         13.7884 
        1.17811          54.876         13.6183 
        1.18424         54.3009         13.4515 
        1.19038         54.1855         13.2871 
        1.19652         53.9226         13.1255 
        1.20267         53.4939         12.9665 
        1.20881          53.172         12.8103 
        1.21495         52.8583         12.6569 
        1.22108         52.7822          12.506 
         1.2272         52.2051          12.358 
        1.23334          52.063          12.212 
        1.23949         51.6497         12.0681 
        1.24562         51.2919         11.9268 
        1.25174         51.1208         11.7881 
        1.25789         50.8679         11.6511 
        1.26402         50.5126         11.5166 
        1.27014         50.3004         11.3845 
        1.27628         49.9092         11.2541 
        1.28244         49.9015         11.1256 
        1.28858         49.4301         10.9991 
        1.29471         49.0434          10.875 
        1.30084         48.6449         10.7529 
        1.30697         48.6989         10.6324 
        1.31312         48.3812         10.5137 
        1.31925         47.9559         10.3971 
        1.32537         47.7363         10.2824 
        1.33151         47.4857         10.1691 
        1.33765          47.283         10.0575 
        1.34378         46.9544         9.94786 
        1.34992         46.7688         9.83976 
        1.35606         46.3835         9.73303 
         1.3622         46.2881         9.62809 
        1.36833          46.037         9.52495 
        1.37445         45.6072         9.42338 
        1.38059         45.4756         9.32298 
        1.38675         45.1536         9.22381 
        1.39288         45.0277         9.12648 
        1.39901         44.6601         9.03061 
        1.40515         44.5194          8.9359 
         1.4113         44.3623         8.84259 
        1.41742         44.0495         8.75097 
        1.42355         43.8944         8.66048 
         1.4297         43.6947         8.57101 
        1.43585         43.4583         8.48284 
        1.44198         43.1301         8.39625 
        1.44809         42.8467         8.31103 
        1.45423         42.7735         8.22668 
        1.46036         42.5861         8.14366 
        1.46649         42.2635         8.06176 
        1.47263         42.0614         7.98092 
        1.47877         41.8846         7.90122 
        1.48491         41.5878         7.82249 
        1.49104         41.4367           7.745 
        1.49718         41.2646          7.6685 
        1.50333         41.0802         7.59292 
        1.50947         40.8264         7.51851 
         1.5156         40.7035         7.44521 
        1.52172         40.3913         7.37289 
        1.52787         40.2778         7.30139 
          1.534         39.9672         7.23092 
        1.54013         40.0046         7.16146 
        1.54627         39.6148         7.09279 
        1.55241         39.5013         7.02501 
        1.55855         39.2734         6.95821 
        1.56467         38.9476         6.89247 
         1.5708         39.0088         6.82739 
        1.57695         38.7419         6.76306 
        1.58308         38.5021         6.69971 
        1.58922         38.3407         6.63712 
        1.59535         38.3052         6.57536 
         1.6015         38.1559          6.5143 
        1.60764         37.8614         6.45404 
        1.61376         37.6729         6.39472 
        1.61989         37.3952          6.3361 
        1.62604         37.2936         6.27808 
        1.63218         36.9856         6.22082 
        1.63831         36.9753         6.16441 
        1.64444         36.8351         6.10868 
        1.65059         36.5587         6.05351 
        1.65673         36.4325         5.99909 
        1.66285         36.3105         5.94548 
        1.66898         36.0891         5.89252 
        1.67512         35.8579         5.84009 
        1.68127         35.8145         5.78826 
         1.6874         35.6677         5.73717 
        1.69353         35.4528         5.68673 
        1.69967         35.3218         5.63678 
        1.70581         35.1222         5.58745 
        1.71193         34.9631          5.5389 
        1.71806         34.8572         5.49082 
        1.72421         34.6493         5.44322 
        1.73035         34.5336         5.39624 
        1.73649         34.3216         5.34982 
        1.74262         34.1109         5.30399 
        1.74876         34.2005         5.25866 
        1.75489         33.8829         5.21396 
        1.76101          33.815         5.16979 
        1.76715         33.5769         5.12607 
        1.77329         33.3567         5.08281 
        1.77943         33.4007         5.04002 
        1.78557         33.2076          4.9978 
        1.79171         33.0052         4.95605 
        1.79785         32.9254         4.91477 
        1.80399         32.7093         4.87397 
        1.81012         32.5808         4.83369 
        1.81625         32.4025         4.79388 
        1.82239         32.2717         4.75446 
        1.82853         32.1773          4.7155 
        1.83466         31.9975         4.67702 
        1.84078         31.8559         4.63901 
        1.84692         31.7155         4.60136 
        1.85306         31.5698         4.56408 
         1.8592         31.4134         4.52728 
        1.86533         31.3339          4.4909 
        1.87147         31.1873         4.45488 
        1.87761         31.0595         4.41924 
        1.88375         30.9104         4.38403 
        1.88988         30.7635         4.34924 
        1.89601         30.6518         4.31481 
        1.90215         30.4792         4.28073 
        1.90829         30.3746         4.24704 
        1.91442         30.2376          4.2137 
        1.92056          30.141         4.18075 
         1.9267         30.0659         4.14812 
        1.93284         29.9324         4.11582 
        1.93897         29.7645         4.08393 
        1.94509         29.6351         4.05244 
        1.95123         29.5326         4.02121 
        1.95737         29.4331         3.99028 
        1.96349          29.345         3.95975 
        1.96964         29.1458         3.92946 
        1.97578         29.0103         3.89947 
        1.98192         28.8755         3.86986 
        1.98805         28.7405         3.84054 
        1.99419         28.6544         3.81153 
        2.00033         28.5488         3.78281 
        2.00647         28.4515         3.75439 
         2.0126         28.2767         3.72631 
        2.01874         28.2266         3.69848 
        2.02488         28.0216          3.6709 
        2.03101         27.9668         3.64366 
        2.03714         27.8547         3.61672 
        2.04328         27.7466         3.59002 
        2.04941         27.5511         3.56362 
        2.05554         27.4916          3.5375 
        2.06167         27.3722          3.5116 
        2.06781         27.2571         3.48596 
        2.07396          27.136         3.46055 
        2.08009         27.0131         3.43542 
        2.08622         26.9445         3.41058 
        2.09237          26.801         3.38594 
        2.09851         26.7408         3.36153 
        2.10464         26.6241          3.3374 
        2.11077         26.5349         3.31354 
        2.11691          26.348         3.28986 
        2.12305          26.264         3.26642 
        2.12918         26.1742         3.24325 
        2.13531          26.004         3.22031 
        2.14145         25.9744         3.19754 
         2.1476          25.864         3.17496 
        2.15372          25.782         3.15271 
        2.15985         25.6248         3.13066 
        2.16599         25.4876         3.10875 
        2.17213         25.4734         3.08708 
        2.17827         25.3485         3.06562 
         2.1844         25.2054         3.04438 
        2.19054          25.168         3.02333 
        2.19666          25.016         3.00252 
         2.2028          24.929         2.98188 
        2.20893         24.8696         2.96142 
        2.21508         24.7695         2.94114 
        2.22122         24.6681         2.92104 
        2.22736         24.5444         2.90117 
        2.23349         24.4999         2.88148 
        2.23962         24.3719         2.86197 
        2.24577         24.2709         2.84263 
         2.2519         24.1454         2.82349 
        2.25802         24.0267         2.80455 
        2.26417          23.929         2.78574 
        2.27031         23.8423         2.76708 
        2.27644         23.8075         2.74865 
        2.28257         23.7072         2.73039 
        2.28872         23.5948         2.71226 
        2.29486          23.522         2.69429 
        2.30099         23.4098         2.67653 
        2.30712         23.3301         2.65892 
        2.31326         23.2169         2.64143 
         2.3194           23.13         2.62412 
        2.32553         23.0632         2.60698 
        2.33166         22.9654         2.59001 
         2.3378         22.8526         2.57317 
        2.34394         22.7997         2.55647 
        2.35007          22.714         2.53994 
        2.35619         22.6256         2.52358 
        2.36233         22.5211         2.50733 
        2.36848         22.4686         2.49118 
        2.37462         22.3905         2.47521 
        2.38075         22.2562          2.4594 
        2.38689         22.1854         2.44371 
        2.39303         22.1024         2.42816 
        2.39916         21.9892         2.41277 
        2.40529         21.9268          2.3975 
        2.41143         21.8545         2.38236 
        2.41757         21.7349         2.36734 
         2.4237         21.6811         2.35248 
        2.42983         21.5464         2.33775 
        2.43598         21.4795          2.3231 
        2.44211         21.4029         2.30861 
        2.44823         21.3132         2.29427 
        2.45437         21.2809         2.28001 
        2.46052         21.1662         2.26587 
        2.46665         21.1216         2.25186 
        2.47279         20.9861         2.23798 
        2.47892         20.9478         2.22421 
        2.48507         20.8554         2.21054 
         2.4912         20.7854         2.19702 
