# k  (h/Mpc)    Pcb(k)  (Mpc/h)^3    Pcb_linear(k)  (Mpc/h)^3
     0.00783031         2150.11         2167.67 
       0.013688         2478.42         2509.69 
       0.019231         2374.01         2386.67 
      0.0249154         2069.41         2064.08 
      0.0312784         1665.24         1663.54 
      0.0375637         1337.02          1338.7 
      0.0433917         1134.42         1130.08 
      0.0492413         998.671         998.637 
      0.0555754         917.228          912.93 
      0.0619321         842.645         850.146 
       0.067871         786.786         787.713 
      0.0738098         711.854         711.484 
      0.0800417          623.15         620.312 
      0.0862327          532.19         530.725 
      0.0921407         459.818          457.69 
      0.0982031          406.33         401.767 
       0.104506          364.92         364.134 
       0.110769         343.593         342.361 
       0.116806         332.249         328.927 
       0.122832         316.814         316.032 
       0.129052         300.353         298.372 
       0.135211         278.848         275.247 
       0.141259         251.604         249.117 
       0.147318         224.753         223.165 
       0.153489         203.328         200.377 
       0.159709          187.24         183.042 
       0.165845         173.308         171.511 
       0.171974         168.497         164.139 
       0.178125         162.497         158.799 
       0.184229         155.748         153.487 
        0.19034         150.224         146.778 
       0.196428         141.889         138.352 
       0.202534          130.64         128.726 
       0.208729          122.79         118.871 
       0.214876         114.881         110.086 
       0.220989          106.38         102.993 
       0.227147         102.421          97.621 
        0.23329         98.4347         93.6852 
       0.239377         95.5779         90.5865 
       0.245482         91.9623         87.6417 
       0.251667          87.948         84.3442 
       0.257832         85.4534         80.5638 
       0.263955         80.3248         76.4323 
       0.270079         76.1509         72.2171 
        0.27624         71.9992         68.2358 
       0.282372         68.7992         64.7677 
        0.28843         66.9372         61.9185 
       0.294538         64.1447         59.5601 
       0.300721         61.5026         57.5329 
        0.30691         60.2145         55.6601 
       0.313033         57.9286          53.794 
       0.319153         56.5911         51.8291 
       0.325316          53.856         49.7515 
        0.33145         51.6564          47.655 
       0.337538         49.7432         45.6438 
       0.343633         48.1322         43.7806 
       0.349808         46.2836          42.097 
       0.355968         44.7418          40.614 
       0.362074         43.8083         39.3048 
       0.368217         42.4266         38.0846 
       0.374374         41.4144         36.9035 
       0.380519         39.7405         35.7301 
       0.386598         38.4702         34.5572 
       0.392688         37.1775          33.387 
        0.39888         36.3306         32.2241 
       0.405048         35.3202         31.1192 
       0.411186         34.2323         30.0949 
       0.417313         33.2047         29.1502 
       0.423458         32.1538         28.2733 
       0.429607         31.5777         27.4529 
       0.435692         30.9822         26.6777 
       0.441815          29.795         25.9179 
       0.447964         28.8404         25.1698 
       0.454126         28.3021         24.4334 
       0.460267         27.8816         23.7159 
       0.466387         27.0259         23.0253 
        0.47254         26.5358         22.3632 
       0.478662         25.6701         21.7385 
       0.484765         25.0782          21.148 
       0.490885         24.3132         20.5858 
       0.497035         23.8386         20.0463 
       0.503198         23.3615         19.5249 
       0.509342         22.6584         19.0194 
       0.515458         22.3085         18.5291 
       0.521598         21.7772         18.0509 
       0.527764         21.4077         17.5855 
       0.533884         20.8373         17.1393 
           0.54         20.4393         16.7099 
       0.546137         19.8101         16.2963 
       0.552299          19.436         15.8985 
       0.558452          18.984         15.5166 
       0.564573         18.7433         15.1498 
       0.570708         18.2877         14.7934 
       0.576825         17.9816         14.4481 
       0.582926         17.6147         14.1139 
       0.589034         17.2484         13.7893 
       0.595184          17.027         13.4726 
       0.601379         16.5556         13.1637 
       0.607522         16.2359         12.8673 
       0.613639         15.9411         12.5816 
       0.619772         15.6558         12.3045 
       0.625918         15.3357         12.0359 
       0.632068         15.1565         11.7754 
       0.638161         14.8396         11.5252 
         0.6443         14.5722         11.2804 
       0.650464         14.2057         11.0414 
       0.656582         14.0942         10.8108 
       0.662703         13.8821         10.5865 
       0.668861         13.5106         10.3673 
       0.675024         13.2904         10.1543 
       0.681124         13.2503         9.94956 
       0.687237         12.9492         9.75036 
       0.693381         12.6337         9.55589 
       0.699536         12.5557         9.36653 
       0.705665          12.301         9.18318 
       0.711789          12.072          9.0049 
       0.717957          11.815         8.83009 
        0.72409         11.6981         8.66084 
       0.730186         11.6233         8.49702 
       0.736317         11.3501         8.33654 
       0.742472         11.2113         8.17963 
       0.748622          11.029         8.02694 
        0.75476         10.7398         7.87853 
       0.760888         10.6836         7.73416 
       0.767043         10.4687         7.59289 
       0.773185         10.3351          7.4555 
       0.779291         10.2502         7.32232 
       0.785407         10.0608         7.19224 
       0.791564         9.94556         7.06453 
       0.797719         9.73418         6.93999 
       0.803834         9.67478         6.81926 
       0.809972          9.4788         6.70098 
       0.816124         9.36921         6.58526 
       0.822261         9.24998          6.4726 
       0.828378         9.13151         6.36294 
       0.834502         9.01923         6.25573 
       0.840667         8.91395         6.15032 
       0.846816          8.7141         6.04765 
       0.852925         8.66749         5.94798 
       0.859047          8.5395         5.85037 
       0.865192         8.41757         5.75464 
       0.871341         8.30666           5.661 
       0.877463         8.19144         5.56989 
       0.883569         8.12887         5.48103 
       0.889708         7.99085         5.39366 
       0.895864         7.88788         5.30799 
       0.902008         7.78732         5.22437 
       0.908149         7.67312         5.14262 
       0.914301         7.60608         5.06249 
       0.920448         7.51173         4.98416 
       0.926574         7.46074         4.90777 
       0.932687         7.32973         4.83315 
       0.938823         7.21849         4.75982 
       0.944975         7.18002         4.68786 
       0.951105         7.06306         4.61765 
       0.957225          7.0199         4.54901 
       0.963368         6.91226         4.48154 
       0.969511         6.83255         4.41545 
       0.975621         6.75647         4.35105 
       0.981748         6.65907         4.28777 
       0.987916         6.59981         4.22537 
        0.99406         6.53611         4.16444 
        1.00019         6.47294         4.10485 
        1.00632         6.41588         4.04648 
        1.01246         6.32301         3.98916 
        1.01859         6.25545         3.93306 
        1.02471         6.16607          3.8781 
        1.03085         6.13232         3.82401 
        1.03698         6.06653         3.77108 
        1.04314         5.99398         3.71892 
        1.04929         5.91266         3.66787 
        1.05541          5.8622         3.61799 
        1.06154         5.80687         3.56893 
        1.06769         5.77426          3.5207 
        1.07382         5.67308         3.47352 
        1.07993         5.61759         3.42732 
        1.08607         5.58467         3.38178 
        1.09222         5.50913         3.33702 
        1.09836         5.48752         3.29312 
        1.10449         5.38685         3.25008 
        1.11063         5.36523         3.20775 
        1.11677         5.31712          3.1662 
         1.1229         5.26246         3.12546 
        1.12903         5.21762          3.0854 
        1.13518         5.14496         3.04602 
        1.14131         5.09899         3.00735 
        1.14745         5.03254         2.96937 
        1.15359         4.98561         2.93205 
        1.15973         4.94002         2.89536 
        1.16584         4.90343         2.85946 
        1.17197         4.84977         2.82412 
        1.17811         4.80599         2.78927 
        1.18424         4.76422         2.75512 
        1.19038         4.73121         2.72144 
        1.19652         4.68858         2.68834 
        1.20267         4.64972         2.65579 
        1.20881         4.59494         2.62379 
        1.21495         4.55877         2.59237 
        1.22108         4.51424         2.56147 
         1.2272          4.4675         2.53115 
        1.23334         4.45543         2.50125 
        1.23949          4.3957         2.47176 
        1.24562          4.3674         2.44284 
        1.25174         4.33904         2.41442 
        1.25789         4.27056         2.38637 
        1.26402         4.25088         2.35882 
        1.27014          4.2198         2.33176 
        1.27628         4.17096         2.30506 
        1.28244         4.15255         2.27872 
        1.28858         4.11899         2.25283 
        1.29471         4.06491          2.2274 
        1.30084         4.02947         2.20238 
        1.30697         4.01713         2.17772 
        1.31312         3.97339         2.15339 
        1.31925         3.94065         2.12952 
        1.32537         3.91427         2.10603 
        1.33151          3.8751         2.08282 
        1.33765         3.84438         2.05997 
        1.34378          3.8335         2.03751 
        1.34992         3.79393         2.01536 
        1.35606         3.76505         1.99351 
         1.3622         3.73039         1.97201 
        1.36833         3.69939         1.95089 
        1.37445         3.66406         1.93008 
        1.38059         3.63354         1.90952 
        1.38675         3.60856         1.88921 
        1.39288         3.59166         1.86927 
        1.39901         3.54945         1.84964 
        1.40515          3.5324         1.83024 
         1.4113         3.50257         1.81113 
        1.41742         3.47941         1.79236 
        1.42355         3.44885         1.77383 
         1.4297         3.42351          1.7555 
        1.43585         3.40686         1.73744 
        1.44198         3.37359         1.71971 
        1.44809         3.35329         1.70225 
        1.45423         3.32623         1.68498 
        1.46036         3.30643         1.66797 
        1.46649         3.27796          1.6512 
        1.47263         3.26218         1.63464 
        1.47877         3.23722         1.61832 
        1.48491         3.21433         1.60219 
        1.49104         3.18908         1.58632 
        1.49718         3.17264         1.57065 
        1.50333         3.14196         1.55517 
        1.50947         3.11768         1.53993 
         1.5156         3.10265         1.52492 
        1.52172          3.0799          1.5101 
        1.52787         3.06121         1.49546 
          1.534         3.03991         1.48103 
        1.54013         3.02315          1.4668 
        1.54627         2.99372         1.45274 
        1.55241          2.9721         1.43885 
        1.55855         2.96085         1.42517 
        1.56467         2.94336         1.41171 
         1.5708         2.91666         1.39838 
        1.57695         2.89034          1.3852 
        1.58308         2.87064         1.37222 
        1.58922         2.86409         1.35941 
        1.59535         2.84257         1.34676 
         1.6015         2.81638         1.33425 
        1.60764         2.80742         1.32191 
        1.61376         2.78159         1.30976 
        1.61989         2.75972         1.29775 
        1.62604         2.74513         1.28587 
        1.63218          2.7327         1.27414 
        1.63831         2.71869         1.26259 
        1.64444         2.69455         1.25117 
        1.65059         2.68566         1.23987 
        1.65673         2.66161         1.22873 
        1.66285         2.64657         1.21775 
        1.66898         2.62927          1.2069 
        1.67512         2.61149         1.19616 
        1.68127         2.59443         1.18554 
         1.6874         2.58177         1.17508 
        1.69353         2.56126         1.16475 
        1.69967         2.54573         1.15452 
        1.70581         2.53373         1.14442 
        1.71193         2.51048         1.13447 
        1.71806         2.50195         1.12462 
        1.72421         2.48857         1.11487 
        1.73035         2.47016         1.10525 
        1.73649         2.45677         1.09574 
        1.74262         2.44309         1.08636 
        1.74876         2.43124         1.07707 
        1.75489         2.41168         1.06792 
        1.76101         2.39529         1.05887 
        1.76715         2.39095         1.04992 
        1.77329         2.37164         1.04105 
        1.77943           2.355         1.03229 
        1.78557         2.34525         1.02364 
        1.79171         2.33051         1.01509 
        1.79785         2.32184         1.00664 
        1.80399         2.30246        0.998281 
        1.81012         2.29377         0.99003 
        1.81625         2.27438        0.981877 
        1.82239         2.26809        0.973803 
        1.82853         2.25296        0.965824 
        1.83466         2.23328        0.957942 
        1.84078         2.22209        0.950157 
        1.84692         2.21045        0.942446 
        1.85306         2.19908         0.93481 
         1.8592         2.18836        0.927272 
        1.86533         2.17856        0.919821 
        1.87147         2.16836        0.912443 
        1.87761         2.15652        0.905143 
        1.88375         2.14091        0.897932 
        1.88988         2.12945        0.890807 
        1.89601         2.11497        0.883756 
        1.90215          2.1037        0.876775 
        1.90829         2.09879        0.869874 
        1.91442         2.08309        0.863046 
        1.92056         2.07751        0.856298 
         1.9267         2.06266        0.849614 
        1.93284         2.05373        0.842999 
        1.93897         2.03902        0.836466 
        1.94509         2.02408        0.830017 
        1.95123         2.02072        0.823619 
        1.95737         2.01139        0.817284 
        1.96349          1.9971        0.811033 
        1.96964         1.99016        0.804828 
        1.97578         1.97736        0.798686 
        1.98192         1.96175         0.79262 
        1.98805         1.95664        0.786616 
        1.99419         1.94509        0.780675 
        2.00033         1.93136        0.774792 
        2.00647         1.92826        0.768971 
         2.0126         1.91863         0.76322 
        2.01874         1.90764        0.757519 
        2.02488         1.90082        0.751871 
        2.03101         1.88597        0.746292 
        2.03714         1.87959        0.740774 
        2.04328         1.87075        0.735306 
        2.04941         1.86025        0.729897 
        2.05554         1.85109        0.724547 
        2.06167         1.84235        0.719244 
        2.06781          1.8332        0.713992 
        2.07396         1.82381        0.708786 
        2.08009         1.81804        0.703641 
        2.08622         1.80893        0.698552 
        2.09237         1.80267        0.693504 
        2.09851         1.78794        0.688506 
        2.10464         1.77974        0.683564 
        2.11077         1.77591        0.678677 
        2.11691         1.76293        0.673827 
        2.12305         1.75365        0.669025 
        2.12918         1.74591         0.66428 
        2.13531         1.74049        0.659581 
        2.14145         1.73113        0.654917 
         2.1476         1.71745        0.650293 
        2.15372         1.71256        0.645736 
        2.15985         1.70455        0.641219 
        2.16599         1.69846        0.636732 
        2.17213         1.69269        0.632293 
        2.17827         1.68007        0.627897 
         2.1844         1.67407        0.623547 
        2.19054         1.66571        0.619237 
        2.19666         1.65998        0.614973 
         2.2028         1.64755        0.610746 
        2.20893         1.64638        0.606557 
        2.21508         1.63549        0.602402 
        2.22122         1.62634        0.598285 
        2.22736          1.6195        0.594215 
        2.23349         1.61186        0.590184 
        2.23962         1.60924        0.586188 
        2.24577         1.59809        0.582225 
         2.2519          1.5928        0.578305 
        2.25802         1.58431        0.574427 
        2.26417         1.57788        0.570574 
        2.27031         1.57074        0.566752 
        2.27644         1.56262        0.562977 
        2.28257         1.55653        0.559236 
        2.28872         1.55058        0.555523 
        2.29486         1.54185        0.551843 
        2.30099         1.53473        0.548205 
        2.30712         1.53078        0.544598 
        2.31326         1.52438        0.541017 
         2.3194         1.51555         0.53747 
        2.32553          1.5107        0.533961 
        2.33166         1.50479        0.530485 
         2.3378         1.49989        0.527035 
        2.34394         1.48845        0.523615 
        2.35007         1.48266         0.52023 
        2.35619         1.47926        0.516879 
        2.36233         1.47218         0.51355 
        2.36848         1.46594        0.510243 
        2.37462         1.45989        0.506972 
        2.38075         1.45476        0.503733 
        2.38689         1.44896         0.50052 
        2.39303         1.44225        0.497335 
        2.39916         1.43716        0.494181 
        2.40529         1.42896        0.491055 
        2.41143         1.42369        0.487954 
        2.41757         1.41937        0.484878 
         2.4237         1.41068        0.481834 
        2.42983         1.40659        0.478817 
        2.43598         1.40284        0.475817 
        2.44211          1.3941        0.472848 
        2.44823         1.39013        0.469911 
        2.45437         1.38311        0.466991 
        2.46052         1.37802        0.464094 
        2.46665         1.37362        0.461226 
        2.47279         1.36647        0.458383 
        2.47892         1.36337        0.455562 
        2.48507         1.35616        0.452763 
         2.4912         1.35261        0.449992 
