# k  (h/Mpc)    Pcb(k)  (Mpc/h)^3    Pcb_linear(k)  (Mpc/h)^3
     0.00783031         4263.53         4287.71 
       0.013688         5463.28         5552.14 
       0.019231         5787.88          5836.5 
      0.0249154         5584.01         5580.82 
      0.0312784         4956.02          4980.6 
      0.0375637         4283.62         4322.32 
      0.0433917         3783.72          3788.3 
      0.0492413         3351.61         3374.31 
      0.0555754         3058.58         3058.63 
      0.0619321         2784.18         2840.94 
       0.067871         2655.66         2681.38 
      0.0738098         2507.93            2526 
      0.0800417         2331.88         2342.91 
      0.0862327         2116.54         2136.21 
      0.0921407            1913         1927.64 
      0.0982031         1724.53         1721.57 
       0.104506         1524.56          1535.1 
       0.110769         1386.46         1389.18 
       0.116806         1304.21         1286.75 
       0.122832         1219.94          1215.3 
       0.129052         1170.22         1162.19 
       0.135211         1134.43         1117.23 
       0.141259         1074.69         1070.01 
       0.147318         1006.75         1013.87 
       0.153489         948.527         947.192 
       0.159709         890.649          874.66 
       0.165845         807.566         804.404 
       0.171974         769.916         741.603 
       0.178125         723.478         689.793 
       0.184229         672.717         650.394 
        0.19034         653.794         621.301 
       0.196428         632.235         599.288 
       0.202534         598.381         580.245 
       0.208729         588.356         560.416 
       0.214876         568.429         537.948 
       0.220989         531.819         512.282 
       0.227147         516.999         484.078 
        0.23329         493.228         455.539 
       0.239377         475.323         428.937 
       0.245482         448.453         405.485 
       0.251667         427.914         385.769 
       0.257832         421.347         370.014 
       0.263955         399.519         357.339 
       0.270079         386.952         346.381 
        0.27624         372.083         335.846 
       0.282372         363.029         324.877 
        0.28843         360.033         313.144 
       0.294538         342.816         300.465 
       0.300721         328.745         287.249 
        0.30691         322.314         274.296 
       0.313033         307.895         262.372 
       0.319153         301.725         251.742 
       0.325316         292.108         242.456 
        0.33145         284.146         234.484 
       0.337538         275.255         227.484 
       0.343633         267.305         220.984 
       0.349808         259.983         214.549 
       0.355968         253.999         208.007 
       0.362074         248.426         201.337 
       0.368217         243.681         194.482 
       0.374374         237.858         187.653 
       0.380519         227.795         181.071 
       0.386598         223.364          174.96 
       0.392688         217.581         169.347 
        0.39888         213.068         164.155 
       0.405048         208.863          159.45 
       0.411186          205.77         155.103 
       0.417313         201.082         150.961 
       0.423458         196.116         146.906 
       0.429607         192.286         142.871 
       0.435692          188.87         138.878 
       0.441815         184.056         134.897 
       0.447964         178.893          130.98 
       0.454126         175.706         127.193 
       0.460267         174.193         123.614 
       0.466387         170.378         120.261 
        0.47254          168.48         117.094 
       0.478662         162.968         114.129 
       0.484765         160.795         111.321 
       0.490885         157.647         108.606 
       0.497035         156.453         105.945 
       0.503198         153.179         103.331 
       0.509342         149.299         100.773 
       0.515458         147.722          98.274 
       0.521598         144.213         95.8298 
       0.527764         142.658         93.4602 
       0.533884         141.834         91.2045 
           0.54         138.133         89.0468 
       0.546137         134.989         86.9746 
       0.552299         133.349         84.9827 
       0.558452         130.956         83.0709 
       0.564573         130.466         81.2298 
       0.570708         126.829         79.4318 
       0.576825         125.514          77.681 
       0.582926         124.159         75.9772 
       0.589034         122.212          74.315 
       0.595184         120.868         72.6868 
       0.601379         117.913         71.0953 
       0.607522         116.238         69.5673 
       0.613639         115.258         68.0975 
       0.619772         113.467         66.6761 
       0.625918         112.363         65.2996 
       0.632068         110.475         63.9649 
       0.638161         108.736         62.6794 
         0.6443         108.133         61.4172 
       0.650464         106.051         60.1823 
       0.656582         105.614          58.988 
       0.662703         104.309         57.8244 
       0.668861         102.072          56.685 
       0.675024         101.989         55.5755 
       0.681124         100.409         54.5075 
       0.687237         98.4853         53.4665 
       0.693381         97.9704         52.4495 
       0.699536         96.8485         51.4592 
       0.705665         95.3949         50.5005 
       0.711789         94.1988         49.5684 
       0.717957         93.0767         48.6539 
        0.72409         92.4274         47.7675 
       0.730186         91.7915         46.9077 
       0.736317         90.1316         46.0637 
       0.742472         89.1849         45.2366 
       0.748622         87.9031         44.4304 
        0.75476         87.2214         43.6458 
       0.760888         86.8546         42.8819 
       0.767043         85.2631         42.1341 
       0.773185         84.3677         41.4066 
       0.779291         83.4239         40.7012 
       0.785407         82.3362         40.0116 
       0.791564         82.3606         39.3341 
       0.797719         81.3135         38.6728 
       0.803834         80.5071         38.0309 
       0.809972         79.8542         37.4012 
       0.816124         79.0109         36.7842 
       0.822261         77.9925         36.1829 
       0.828378         77.7477         35.5969 
       0.834502         76.6396         35.0235 
       0.840667         76.2003         34.4592 
       0.846816         75.3232         33.9092 
       0.852925         74.6967         33.3749 
       0.859047         74.4398         32.8512 
       0.865192          73.259         32.3373 
       0.871341         72.4755         31.8342 
       0.877463         72.0556         31.3442 
       0.883569         71.8177          30.866 
       0.889708         71.1264         30.3954 
       0.895864         70.4484         29.9335 
       0.902008         69.8052         29.4823 
       0.908149         69.1319         29.0407 
       0.914301         68.7528         28.6076 
       0.920448          68.375         28.1837 
       0.926574         67.1509           27.77 
       0.932687         66.8567         27.3656 
       0.938823         66.2754         26.9678 
       0.944975         65.5966         26.5772 
       0.951105         65.0963         26.1957 
       0.957225         64.9131         25.8225 
       0.963368         64.2717         25.4554 
       0.969511         63.7102         25.0955 
       0.975621         63.2771         24.7446 
       0.981748         62.6301         24.3995 
       0.987916         62.2089          24.059 
        0.99406         61.7706         23.7263 
        1.00019         61.2233         23.4006 
        1.00632         60.8108         23.0815 
        1.01246         60.3588         22.7678 
        1.01859         60.0301         22.4606 
        1.02471         59.3542         22.1595 
        1.03085         59.1058          21.863 
        1.03698         58.7154         21.5725 
        1.04314         58.3272         21.2862 
        1.04929         57.7444         21.0058 
        1.05541         57.4756         20.7316 
        1.06154         57.1918         20.4617 
        1.06769         56.4097         20.1963 
        1.07382          56.218         19.9365 
        1.07993         55.8461         19.6819 
        1.08607         55.4333         19.4307 
        1.09222         55.1838         19.1838 
        1.09836         54.7118         18.9414 
        1.10449         54.4356         18.7036 
        1.11063         53.9611         18.4696 
        1.11677         53.9146         18.2397 
         1.1229         53.3131         18.0142 
        1.12903         53.1213         17.7924 
        1.13518         52.9656         17.5741 
        1.14131         52.3836         17.3596 
        1.14745         51.8912         17.1489 
        1.15359         51.4793         16.9417 
        1.15973         51.3444         16.7378 
        1.16584         51.0138         16.5383 
        1.17197         50.4136         16.3417 
        1.17811         50.2749         16.1478 
        1.18424         49.6599         15.9576 
        1.19038         49.5763         15.7699 
        1.19652         49.3591         15.5854 
        1.20267         49.0638         15.4038 
        1.20881         48.7159         15.2252 
        1.21495          48.508         15.0497 
        1.22108         48.3351         14.8771 
         1.2272         47.9524         14.7076 
        1.23334         47.6636         14.5404 
        1.23949         47.3611         14.3754 
        1.24562         46.9656         14.2134 
        1.25174         46.7298         14.0542 
        1.25789         46.6961          13.897 
        1.26402         46.3288         13.7425 
        1.27014         46.0526         13.5908 
        1.27628         45.6391         13.4409 
        1.28244         45.5732          13.293 
        1.28858         45.2032         13.1475 
        1.29471         45.0253         13.0046 
        1.30084         44.6605          12.864 
        1.30697         44.5261         12.7252 
        1.31312         44.1466         12.5883 
        1.31925         43.8435         12.4539 
        1.32537         43.6589         12.3215 
        1.33151         43.3802         12.1907 
        1.33765         43.2617         12.0618 
        1.34378         43.0611         11.9351 
        1.34992         42.7606         11.8101 
        1.35606         42.5296         11.6867 
         1.3622         42.2344         11.5652 
        1.36833         42.0437         11.4458 
        1.37445         41.7457         11.3281 
        1.38059         41.6101         11.2118 
        1.38675         41.2184         11.0968 
        1.39288         41.1796         10.9839 
        1.39901         40.8888         10.8726 
        1.40515         40.7174         10.7627 
         1.4113           40.68         10.6543 
        1.41742         40.4138         10.5478 
        1.42355         40.0367         10.4426 
         1.4297         39.8425         10.3385 
        1.43585         39.5893         10.2359 
        1.44198         39.4448         10.1351 
        1.44809         39.2386         10.0359 
        1.45423         39.1066          9.9376 
        1.46036         38.9097         9.84082 
        1.46649         38.6969         9.74532 
        1.47263         38.4342         9.65101 
        1.47877         38.3303           9.558 
        1.48491         38.1765         9.46608 
        1.49104         37.8819         9.37558 
        1.49718          37.759          9.2862 
        1.50333         37.6426         9.19785 
        1.50947         37.3637         9.11084 
         1.5156         37.2057          9.0251 
        1.52172         36.9126         8.94047 
        1.52787         36.7887         8.85676 
          1.534         36.6183         8.77424 
        1.54013         36.5156         8.69285 
        1.54627         36.1995         8.61237 
        1.55241         36.0781         8.53289 
        1.55855         35.9559         8.45454 
        1.56467          35.836          8.3774 
         1.5708         35.6316         8.30101 
        1.57695         35.4467         8.22547 
        1.58308         35.1527         8.15104 
        1.58922         34.9981         8.07749 
        1.59535          34.901         8.00489 
         1.6015         34.7712         7.93308 
        1.60764         34.6226          7.8622 
        1.61376         34.4271         7.79238 
        1.61989         34.1899         7.72336 
        1.62604          34.078         7.65503 
        1.63218         33.9236         7.58757 
        1.63831         33.8156         7.52109 
        1.64444         33.6337         7.45538 
        1.65059         33.4672         7.39031 
        1.65673         33.3266         7.32609 
        1.66285         33.2149         7.26281 
        1.66898         32.9997         7.20027 
        1.67512         32.9324         7.13835 
        1.68127         32.7533          7.0771 
         1.6874         32.5918         7.01672 
        1.69353         32.4704         6.95707 
        1.69967         32.3229         6.89799 
        1.70581         32.0776         6.83962 
        1.71193         31.9025         6.78215 
        1.71806         31.8524         6.72523 
        1.72421         31.7699         6.66885 
        1.73035         31.5505         6.61318 
        1.73649         31.3667         6.55817 
        1.74262         31.2078         6.50383 
        1.74876         31.0923         6.45008 
        1.75489         30.9826         6.39704 
        1.76101         30.8697         6.34463 
        1.76715         30.7389         6.29273 
        1.77329         30.5427         6.24136 
        1.77943         30.4833         6.19054 
        1.78557         30.3271         6.14036 
        1.79171         30.1843         6.09074 
        1.79785         30.0515         6.04166 
        1.80399         29.9374         5.99313 
        1.81012         29.8454         5.94521 
        1.81625         29.6234         5.89783 
        1.82239         29.5318          5.8509 
        1.82853         29.4019         5.80451 
        1.83466         29.2675         5.75867 
        1.84078         29.1248         5.71338 
        1.84692         29.0685         5.66851 
        1.85306         28.8736         5.62407 
         1.8592         28.8122         5.58017 
        1.86533         28.6086         5.53677 
        1.87147         28.4966         5.49379 
        1.87761         28.3928         5.45125 
        1.88375         28.3489         5.40921 
        1.88988         28.1274         5.36766 
        1.89601         28.0192         5.32653 
        1.90215         27.9068          5.2858 
        1.90829         27.8418         5.24551 
        1.91442         27.6086         5.20565 
        1.92056         27.5845         5.16624 
         1.9267         27.4569         5.12719 
        1.93284         27.3999         5.08853 
        1.93897         27.2516         5.05035 
        1.94509         27.1375         5.01264 
        1.95123         26.9789         4.97522 
        1.95737         26.9041         4.93816 
        1.96349         26.7687         4.90157 
        1.96964         26.7825         4.86525 
        1.97578         26.5415         4.82929 
        1.98192         26.4545         4.79377 
        1.98805         26.2499          4.7586 
        1.99419         26.2677         4.72378 
        2.00033         26.1222          4.6893 
        2.00647         26.0327         4.65517 
         2.0126         25.8987         4.62144 
        2.01874         25.7752           4.588 
        2.02488         25.6445         4.55486 
        2.03101         25.5423         4.52211 
        2.03714         25.4458         4.48972 
        2.04328         25.3681          4.4576 
        2.04941         25.2408         4.42584 
        2.05554         25.2126          4.3944 
        2.06167         25.0708         4.36323 
        2.06781         24.9679         4.33236 
        2.07396         24.9199         4.30174 
        2.08009         24.7677         4.27148 
        2.08622         24.6654         4.24154 
        2.09237         24.6144         4.21184 
        2.09851          24.414         4.18241 
        2.10464         24.3469         4.15332 
        2.11077          24.322         4.12454 
        2.11691         24.1718         4.09597 
        2.12305          24.092         4.06767 
        2.12918         23.9897         4.03971 
        2.13531         23.9133         4.01201 
        2.14145         23.7562         3.98451 
         2.1476         23.6413         3.95723 
        2.15372         23.5875         3.93035 
        2.15985         23.5146         3.90369 
        2.16599         23.4088         3.87721 
        2.17213         23.3625           3.851 
        2.17827         23.1854         3.82504 
         2.1844         23.1276         3.79935 
        2.19054         23.0829         3.77388 
        2.19666         22.9583         3.74869 
         2.2028         22.9002          3.7237 
        2.20893         22.7226         3.69893 
        2.21508         22.6693         3.67436 
        2.22122         22.5585         3.65001 
        2.22736         22.5327         3.62592 
        2.23349         22.4167         3.60206 
        2.23962         22.3696         3.57841 
        2.24577         22.2573         3.55495 
         2.2519         22.1764         3.53173 
        2.25802         22.0087         3.50876 
        2.26417         21.9837         3.48593 
        2.27031         21.9142         3.46328 
        2.27644         21.8799          3.4409 
        2.28257         21.7218         3.41872 
        2.28872         21.7004          3.3967 
        2.29486         21.5965         3.37487 
        2.30099         21.4634         3.35328 
        2.30712         21.3933         3.33188 
        2.31326         21.3151         3.31062 
         2.3194         21.2377         3.28957 
        2.32553         21.1723         3.26873 
        2.33166         21.0446         3.24808 
         2.3378         21.0219         3.22759 
        2.34394         20.8939         3.20726 
        2.35007         20.8201         3.18714 
        2.35619         20.7594         3.16722 
        2.36233         20.6704         3.14742 
        2.36848         20.5782         3.12776 
        2.37462         20.4991          3.1083 
        2.38075         20.4252         3.08903 
        2.38689         20.3526          3.0699 
        2.39303          20.275         3.05094 
        2.39916         20.1942         3.03216 
        2.40529         20.1218         3.01355 
        2.41143          20.043         2.99507 
        2.41757         19.9364         2.97674 
         2.4237         19.8792         2.95861 
        2.42983         19.8293         2.94062 
        2.43598         19.7429         2.92274 
        2.44211         19.6422         2.90504 
        2.44823         19.6215         2.88752 
        2.45437         19.5519          2.8701 
        2.46052          19.428         2.85281 
        2.46665         19.4007          2.8357 
        2.47279         19.2687         2.81873 
        2.47892         19.2227         2.80189 
        2.48507         19.1496         2.78517 
         2.4912         19.0887         2.76862 
