# k  (h/Mpc)    Pcb(k)  (Mpc/h)^3    Pcb_linear(k)  (Mpc/h)^3
     0.00783031         324.987         327.914 
       0.013688         400.117         401.394 
       0.019231         404.541         404.807 
      0.0249154         371.303         372.703 
      0.0312784         320.086         320.167 
      0.0375637         269.744         269.151 
      0.0433917         230.838         230.717 
      0.0492413         202.951         202.557 
      0.0555754         181.872         182.049 
      0.0619321         168.743         168.187 
       0.067871         157.528         157.747 
      0.0738098         146.824         147.122 
      0.0800417         133.949         134.419 
      0.0862327         120.232         120.369 
      0.0921407         106.783         106.751 
      0.0982031         93.8911         93.9576 
       0.104506         83.3928         83.0408 
       0.110769         75.3285         75.0303 
       0.116806         69.7701          69.744 
       0.122832         66.3579         66.1859 
       0.129052         63.3654         63.4259 
       0.135211         60.6513         60.7622 
       0.141259         57.6851         57.6583 
       0.147318         54.0501         53.8933 
       0.153489         49.6546         49.5738 
       0.159709         45.2735         45.1501 
       0.165845         41.4992         41.1613 
       0.171974         37.9997         37.8594 
       0.178125         35.5421         35.3408 
       0.184229          33.793         33.5512 
        0.19034          32.314         32.2606 
       0.196428         31.3603         31.2101 
       0.202534         30.4234         30.1472 
       0.208729         29.0593         28.8909 
       0.214876         27.5084         27.4166 
       0.220989         26.0316         25.7851 
       0.227147         24.2223         24.1041 
        0.23329         22.6693         22.5314 
       0.239377         21.3642         21.1808 
       0.245482         20.2009         20.0796 
       0.251667         19.4391         19.2095 
       0.257832         18.7094          18.527 
       0.263955         18.1443          17.947 
       0.270079         17.5727         17.3833 
        0.27624         17.0285         16.7736 
       0.282372         16.3528         16.1005 
        0.28843         15.5791         15.3829 
       0.294538         14.8466         14.6406 
       0.300721         14.1905         13.9165 
        0.30691         13.4702         13.2565 
       0.313033         12.9168         12.6904 
       0.319153         12.3502         12.2111 
       0.325316         12.0627         11.8016 
        0.33145         11.6769         11.4404 
       0.337538         11.3293         11.1019 
       0.343633         10.9553           10.76 
       0.349808         10.6232         10.4003 
       0.355968         10.2528         10.0264 
       0.362074         9.86308         9.65044 
       0.368217          9.5036         9.27963 
       0.374374         9.11991         8.92859 
       0.380519         8.83383         8.60847 
       0.386598         8.56307         8.32344 
       0.392688         8.32563         8.06798 
        0.39888         8.06927         7.83113 
       0.405048          7.8532         7.60924 
       0.411186         7.64152         7.39488 
       0.417313         7.40281         7.18121 
       0.423458          7.2029         6.96549 
       0.429607         6.96739         6.75006 
       0.435692         6.75639         6.54007 
       0.441815         6.55806         6.33616 
       0.447964         6.39272         6.14287 
       0.454126         6.17808         5.96192 
       0.460267         6.01526         5.79422 
       0.466387         5.84066         5.63851 
        0.47254         5.70638         5.49048 
       0.478662          5.5737         5.34857 
       0.484765         5.41635         5.21058 
       0.490885         5.28157         5.07462 
       0.497035         5.18143         4.93976 
       0.503198         5.02946         4.80701 
       0.509342         4.90558          4.6785 
       0.515458         4.77238         4.55553 
       0.521598         4.65784         4.43756 
       0.527764         4.53124         4.32473 
       0.533884         4.44563         4.21839 
           0.54          4.3354         4.11708 
       0.546137         4.24178         4.01932 
       0.552299         4.14603         3.92409 
       0.558452         4.03415         3.83135 
       0.564573         3.95692         3.74133 
       0.570708         3.86712         3.65331 
       0.576825         3.77036          3.5678 
       0.582926         3.69807         3.48494 
       0.589034         3.59262         3.40468 
       0.595184         3.52264         3.32687 
       0.601379         3.44418         3.25161 
       0.607522         3.38485         3.17979 
       0.613639         3.32606         3.11068 
       0.619772         3.23625         3.04347 
       0.625918          3.1808         2.97799 
       0.632068         3.12501         2.91422 
       0.638161         3.05064         2.85275 
         0.6443          2.9875         2.79246 
       0.650464         2.91919         2.73357 
       0.656582         2.87433         2.67672 
       0.662703         2.81728         2.62146 
       0.668861         2.76994         2.56753 
       0.675024         2.70786         2.51521 
       0.681124         2.65073         2.46504 
       0.687237         2.61006         2.41627 
       0.693381         2.56211         2.36864 
       0.699536         2.49698         2.32221 
       0.705665         2.45595         2.27716 
       0.711789         2.41587         2.23326 
       0.717957          2.3668         2.19015 
        0.72409         2.32564         2.14836 
       0.730186          2.2824         2.10791 
       0.736317         2.25566          2.0683 
       0.742472         2.21328         2.02961 
       0.748622         2.16874         1.99201 
        0.75476         2.12553         1.95548 
       0.760888         2.08911         1.91994 
       0.767043         2.06511         1.88517 
       0.773185          2.0206         1.85132 
       0.779291         1.99096         1.81849 
       0.785407         1.95654         1.78639 
       0.791564          1.9262         1.75485 
       0.797719         1.89725         1.72407 
       0.803834         1.86851         1.69422 
       0.809972         1.83667         1.66498 
       0.816124         1.80264         1.63637 
       0.822261         1.76979         1.60851 
       0.828378         1.74654          1.5814 
       0.834502         1.72459         1.55491 
       0.840667         1.68716         1.52886 
       0.846816         1.66177         1.50348 
       0.852925          1.6444         1.47885 
       0.859047         1.61834         1.45472 
       0.865192         1.59109         1.43105 
       0.871341         1.56804         1.40789 
       0.877463         1.54905         1.38534 
       0.883569         1.52022         1.36335 
       0.889708         1.49728         1.34172 
       0.895864         1.47601          1.3205 
       0.902008         1.45141         1.29979 
       0.908149         1.43246         1.27954 
       0.914301         1.40437         1.25968 
       0.920448         1.38725         1.24027 
       0.926574         1.36647         1.22133 
       0.932687          1.3472         1.20283 
       0.938823         1.33406         1.18466 
       0.944975         1.31346         1.16681 
       0.951105         1.29666          1.1494 
       0.957225         1.28271         1.13238 
       0.963368         1.26298         1.11564 
       0.969511         1.24297         1.09924 
       0.975621         1.22348         1.08326 
       0.981748         1.21225         1.06756 
       0.987916         1.19383         1.05208 
        0.99406         1.17541         1.03696 
        1.00019          1.1642         1.02216 
        1.00632         1.14462         1.00767 
        1.01246         1.13007        0.993445 
        1.01859         1.11737        0.979514 
        1.02471         1.10108        0.965868 
        1.03085         1.09047        0.952436 
        1.03698          1.0734        0.939289 
        1.04314         1.06147        0.926334 
        1.04929         1.04601        0.913655 
        1.05541         1.03511        0.901264 
        1.06154         1.02037        0.889073 
        1.06769         1.00734         0.87709 
        1.07382        0.995534        0.865367 
        1.07993         0.98013        0.853886 
        1.08607        0.973662        0.842566 
        1.09222        0.958574         0.83144 
        1.09836         0.95109        0.820528 
        1.10449        0.938968        0.809826 
        1.11063        0.924146        0.799302 
        1.11677        0.912264         0.78897 
         1.1229        0.902901        0.778838 
        1.12903        0.891101        0.768876 
        1.13518        0.882969        0.759079 
        1.14131        0.870589        0.749459 
        1.14745        0.855622        0.740011 
        1.15359        0.850106        0.730724 
        1.15973        0.836961        0.721593 
        1.16584        0.832768         0.71266 
        1.17197        0.821469        0.703865 
        1.17811        0.813085        0.695191 
        1.18424        0.805954        0.686689 
        1.19038        0.794077        0.678306 
        1.19652        0.783615        0.670065 
        1.20267        0.778361        0.661962 
        1.20881        0.766929        0.653994 
        1.21495         0.76103         0.64617 
        1.22108         0.75219        0.638476 
         1.2272        0.745659        0.630925 
        1.23334        0.735806         0.62348 
        1.23949        0.727719        0.616137 
        1.24562        0.720575        0.608932 
        1.25174        0.713319        0.601854 
        1.25789        0.706139        0.594867 
        1.26402        0.696213        0.588004 
        1.27014        0.689362        0.581266 
        1.27628        0.684798        0.574613 
        1.28244        0.674189        0.568051 
        1.28858        0.668312        0.561601 
        1.29471          0.6629        0.555266 
        1.30084         0.65435        0.549033 
        1.30697        0.647811        0.542888 
        1.31312        0.638569        0.536827 
        1.31925        0.634273        0.530878 
        1.32537        0.628692        0.525025 
        1.33151        0.623254        0.519239 
        1.33765         0.61617        0.513544 
        1.34378        0.608166        0.507946 
        1.34992        0.604166        0.502427 
        1.35606        0.596977        0.496978 
         1.3622        0.591696         0.49162 
        1.36833        0.585594        0.486354 
        1.37445        0.577997        0.481167 
        1.38059         0.57316         0.47604 
        1.38675        0.571355        0.470976 
        1.39288        0.563385        0.466005 
        1.39901        0.558185        0.461108 
        1.40515        0.553313        0.456271 
         1.4113        0.546799        0.451505 
        1.41742        0.541779        0.446825 
        1.42355        0.539196        0.442202 
         1.4297        0.531731        0.437631 
        1.43585        0.527106        0.433127 
        1.44198        0.524612        0.428703 
        1.44809        0.517473        0.424349 
        1.45423        0.513083         0.42004 
        1.46036         0.50843        0.415798 
        1.46649        0.504239        0.411613 
        1.47263        0.498943        0.407483 
        1.47877        0.493756        0.403411 
        1.48491        0.489892        0.399388 
        1.49104        0.484368        0.395429 
        1.49718        0.481171         0.39152 
        1.50333        0.476984        0.387658 
        1.50947        0.472827        0.383856 
         1.5156        0.467945         0.38011 
        1.52172        0.464088        0.376415 
        1.52787        0.459607        0.372761 
          1.534        0.456087         0.36916 
        1.54013        0.451027         0.36561 
        1.54627        0.447784        0.362101 
        1.55241        0.443432        0.358637 
        1.55855        0.439154        0.355223 
        1.56467        0.437537        0.351863 
         1.5708        0.432371        0.348537 
        1.57695        0.429277        0.345249 
        1.58308        0.425345        0.342011 
        1.58922        0.421827        0.338812 
        1.59535        0.417906        0.335655 
         1.6015        0.414535        0.332534 
        1.60764        0.411426        0.329454 
        1.61376        0.406792        0.326421 
        1.61989         0.40448        0.323424 
        1.62604        0.400931        0.320458 
        1.63218        0.398225        0.317531 
        1.63831        0.394704        0.314647 
        1.64444        0.391105        0.311797 
        1.65059        0.388264        0.308977 
        1.65673         0.38476        0.306194 
        1.66285         0.38203        0.303453 
        1.66898        0.379444        0.300745 
        1.67512         0.37531        0.298064 
        1.68127        0.372061        0.295414 
         1.6874        0.370456        0.292802 
        1.69353        0.366634        0.290223 
        1.69967        0.364175        0.287669 
        1.70581        0.360793        0.285147 
        1.71193        0.358211        0.282664 
        1.71806        0.355145        0.280206 
        1.72421        0.352701        0.277772 
        1.73035        0.349406        0.275369 
        1.73649        0.347581        0.272996 
        1.74262        0.344622        0.270652 
        1.74876        0.341613        0.268335 
        1.75489        0.339183        0.266049 
        1.76101        0.336189         0.26379 
        1.76715        0.333786        0.261555 
        1.77329        0.331203        0.259342 
        1.77943        0.328477        0.257155 
        1.78557        0.326537        0.254996 
        1.79171        0.324127        0.252861 
        1.79785        0.321469         0.25075 
        1.80399        0.318963        0.248663 
        1.81012        0.316988        0.246604 
        1.81625        0.314397        0.244568 
        1.82239         0.31248        0.242552 
        1.82853        0.309104         0.24056 
        1.83466        0.307364        0.238592 
        1.84078        0.304743        0.236648 
        1.84692        0.302891        0.234723 
        1.85306        0.301128        0.232817 
         1.8592        0.298704        0.230934 
        1.86533        0.296801        0.229074 
        1.87147        0.294496        0.227232 
        1.87761        0.292689        0.225409 
        1.88375        0.289755        0.223608 
        1.88988        0.288168        0.221829 
        1.89601        0.285789        0.220069 
        1.90215        0.284135        0.218325 
        1.90829        0.281819        0.216602 
        1.91442        0.280219        0.214897 
        1.92056         0.27799        0.213212 
         1.9267        0.275842        0.211543 
        1.93284        0.273994        0.209891 
        1.93897        0.272218         0.20826 
        1.94509        0.270626         0.20665 
        1.95123        0.268257        0.205052 
        1.95737        0.266957         0.20347 
        1.96349        0.264748        0.201909 
        1.96964        0.262877         0.20036 
        1.97578        0.260984        0.198826 
        1.98192        0.259667        0.197312 
        1.98805        0.257977        0.195813 
        1.99419        0.255871        0.194329 
        2.00033        0.254301         0.19286 
        2.00647        0.252968        0.191407 
         2.0126        0.250773        0.189971 
        2.01874        0.249411        0.188547 
        2.02488        0.247891        0.187137 
        2.03101        0.245865        0.185744 
        2.03714        0.244183        0.184366 
        2.04328        0.242898        0.183001 
        2.04941        0.241223        0.181651 
        2.05554        0.239706        0.180315 
        2.06167        0.238409        0.178991 
        2.06781        0.235934        0.177679 
        2.07396        0.234629         0.17638 
        2.08009        0.233151        0.175095 
        2.08622        0.231909        0.173824 
        2.09237        0.230825        0.172564 
        2.09851        0.229258        0.171316 
        2.10464        0.227684        0.170082 
        2.11077        0.226112        0.168862 
        2.11691        0.224606        0.167651 
        2.12305         0.22324        0.166452 
        2.12918        0.221991        0.165268 
        2.13531        0.220359        0.164095 
        2.14145        0.218997         0.16293 
         2.1476        0.217793        0.161776 
        2.15372        0.216774        0.160638 
        2.15985        0.214979         0.15951 
        2.16599        0.213397         0.15839 
        2.17213        0.212549        0.157282 
        2.17827        0.211236        0.156184 
         2.1844        0.210101        0.155098 
        2.19054        0.208596        0.154022 
        2.19666        0.206876        0.152958 
         2.2028         0.20615        0.151902 
        2.20893        0.205079        0.150856 
        2.21508        0.203286        0.149819 
        2.22122        0.202001        0.148791 
        2.22736         0.20115        0.147775 
        2.23349        0.199899        0.146769 
        2.23962        0.198981        0.145771 
        2.24577        0.197285        0.144782 
         2.2519        0.196611        0.143803 
        2.25802        0.195037        0.142835 
        2.26417        0.193982        0.141873 
        2.27031        0.192724        0.140919 
        2.27644        0.191763        0.139977 
        2.28257        0.190608        0.139043 
        2.28872        0.189507        0.138116 
        2.29486        0.188413        0.137198 
        2.30099        0.187387        0.136289 
        2.30712        0.186362        0.135389 
        2.31326        0.184895        0.134495 
         2.3194        0.184776         0.13361 
        2.32553        0.183605        0.132734 
        2.33166        0.182516        0.131866 
         2.3378        0.181405        0.131005 
        2.34394        0.179975        0.130152 
        2.35007         0.17915        0.129307 
        2.35619        0.177974         0.12847 
        2.36233        0.176769        0.127639 
        2.36848        0.176119        0.126814 
        2.37462        0.174897        0.125998 
        2.38075        0.174373        0.125189 
        2.38689        0.173161        0.124387 
        2.39303        0.172613        0.123592 
        2.39916        0.171013        0.122805 
        2.40529        0.170314        0.122025 
        2.41143        0.169472        0.121251 
        2.41757        0.168435        0.120483 
         2.4237         0.16763        0.119724 
        2.42983        0.166589        0.118971 
        2.43598        0.166114        0.118222 
        2.44211        0.164971        0.117481 
        2.44823        0.164374        0.116748 
        2.45437        0.162937         0.11602 
        2.46052        0.162376        0.115297 
        2.46665        0.161393        0.114581 
        2.47279        0.160498        0.113872 
        2.47892        0.159621        0.113168 
        2.48507        0.158675        0.112469 
         2.4912        0.158071        0.111778 
