# k  (h/Mpc)    P(k)  (Mpc/h)^3    P_linear(k)  (Mpc/h)^3
     0.00783031           11449         11615.6 
       0.013688         14285.3         14187.1 
       0.019231         14315.9         14293.9 
      0.0249154         12917.1         13152.9 
      0.0312784         11194.9         11294.6 
      0.0375637          9503.4         9492.66 
      0.0433917         8028.85         8135.89 
      0.0492413          7117.1         7142.08 
      0.0555754         6270.05          6418.4 
      0.0619321         5961.76         5929.27 
       0.067871         5446.69         5560.95 
      0.0738098         5075.79         5186.21 
      0.0800417         4592.09         4738.23 
      0.0862327         4162.43         4242.86 
      0.0921407         3755.47         3762.77 
      0.0982031         3296.79         3311.75 
       0.104506          3011.9         2926.91 
       0.110769         2730.94         2644.53 
       0.116806         2534.11         2458.18 
       0.122832         2412.33         2332.75 
       0.129052         2260.24         2235.45 
       0.135211         2165.72         2141.55 
       0.141259         2083.49         2032.14 
       0.147318         1965.87         1899.43 
       0.153489         1799.53         1747.19 
       0.159709            1681         1591.27 
       0.165845         1584.04         1450.68 
       0.171974         1472.08          1334.3 
       0.178125          1389.3         1245.53 
       0.184229         1325.15         1182.46 
        0.19034         1246.29         1136.97 
       0.196428         1228.16         1099.94 
       0.202534         1191.43         1062.48 
       0.208729         1136.91          1018.2 
       0.214876          1082.5         966.244 
       0.220989         1043.05         908.743 
       0.227147         988.186         849.496 
        0.23329         942.051         794.067 
       0.239377         917.353         746.468 
       0.245482         854.277         707.657 
       0.251667         846.251          676.99 
       0.257832         814.346          652.94 
       0.263955         788.784         632.497 
       0.270079         760.669         612.632 
        0.27624         752.523         591.145 
       0.282372         721.321          567.42 
        0.28843         706.067         542.129 
       0.294538         669.893         515.968 
       0.300721         664.923         490.448 
        0.30691         634.295         467.188 
       0.313033         621.123         447.238 
       0.319153         603.272         430.345 
       0.325316         585.117         415.912 
        0.33145         569.096         403.185 
       0.337538         560.712         391.253 
       0.343633         543.813         379.204 
       0.349808         525.244         366.533 
       0.355968         520.626         353.349 
       0.362074         511.529         340.101 
       0.368217         496.812         327.033 
       0.374374          476.06         314.659 
       0.380519         473.173          303.38 
       0.386598         460.909         293.334 
       0.392688         458.154         284.331 
        0.39888         444.668         275.984 
       0.405048         435.784         268.164 
       0.411186         428.044          260.61 
       0.417313         419.779          253.08 
       0.423458         411.853         245.477 
       0.429607         404.255         237.886 
       0.435692         394.524         230.484 
       0.441815          391.09         223.298 
       0.447964         382.779         216.486 
       0.454126         372.757         210.109 
       0.460267          366.62         204.198 
       0.466387         362.357         198.712 
        0.47254         355.304         193.494 
       0.478662         354.147         188.494 
       0.484765         342.257          183.63 
       0.490885         338.825         178.839 
       0.497035         332.586         174.086 
       0.503198         327.292         169.408 
       0.509342         324.666         164.878 
       0.515458         320.727         160.545 
       0.521598         313.604         156.388 
       0.527764         308.531         152.411 
       0.533884         305.983         148.663 
           0.54         301.632         145.093 
       0.546137         300.224         141.648 
       0.552299         293.931         138.292 
       0.558452          291.88         135.023 
       0.564573         287.404         131.851 
       0.570708         282.095         128.749 
       0.576825         277.317         125.735 
       0.582926         274.887         122.815 
       0.589034          272.26         119.987 
       0.595184         269.532         117.244 
       0.601379         266.143         114.593 
       0.607522         261.685         112.061 
       0.613639         260.289         109.626 
       0.619772         254.504         107.257 
       0.625918         253.302         104.949 
       0.632068         249.386         102.702 
       0.638161         248.308         100.536 
         0.6443         244.212         98.4109 
       0.650464         241.733         96.3354 
       0.656582         239.938         94.3319 
       0.662703         238.499         92.3847 
       0.668861         234.164          90.484 
       0.675024         231.407         88.6401 
       0.681124         230.341         86.8722 
       0.687237         227.476         85.1532 
       0.693381         223.979         83.4747 
       0.699536         222.094         81.8385 
       0.705665         220.636         80.2511 
       0.711789         218.126         78.7039 
       0.717957         217.123         77.1843 
        0.72409         214.512         75.7117 
       0.730186         211.971         74.2862 
       0.736317         209.614         72.8903 
       0.742472         208.518         71.5268 
       0.748622          206.78         70.2015 
        0.75476         205.021         68.9141 
       0.760888         202.304         67.6619 
       0.767043         202.144         66.4363 
       0.773185         199.692         65.2436 
       0.779291         196.057         64.0866 
       0.785407         195.636         62.9552 
       0.791564         193.653         61.8436 
       0.797719         191.154          60.759 
       0.803834         190.082         59.7071 
       0.809972         188.886         58.6765 
       0.816124         188.553         57.6681 
       0.822261         186.055         56.6865 
       0.828378         184.339         55.7312 
       0.834502         183.941         54.7974 
       0.840667         181.187         53.8793 
       0.846816         179.812         52.9851 
       0.852925         179.101         52.1169 
       0.859047         177.225         51.2665 
       0.865192         175.493         50.4323 
       0.871341         174.023         49.6161 
       0.877463         172.751         48.8216 
       0.883569         172.107         48.0465 
       0.889708         170.372         47.2843 
       0.895864         168.311         46.5366 
       0.902008         167.619         45.8067 
       0.908149         167.027         45.0928 
       0.914301         164.952         44.3931 
       0.920448         163.769          43.709 
       0.926574         162.835         43.0417 
       0.932687         162.556         42.3898 
       0.938823          160.38         41.7491 
       0.944975         158.958         41.1202 
       0.951105         158.331         40.5066 
       0.957225         156.737         39.9067 
       0.963368         154.915         39.3169 
       0.969511         154.497          38.739 
       0.975621         153.453         38.1759 
       0.981748         153.041         37.6226 
       0.987916         151.312         37.0768 
        0.99406         150.072         36.5439 
        1.00019         149.981         36.0226 
        1.00632         148.417          35.512 
        1.01246         147.518         35.0105 
        1.01859         146.763         34.5196 
        1.02471         145.208         34.0387 
        1.03085         143.899         33.5653 
        1.03698         143.359          33.102 
        1.04314         142.035         32.6454 
        1.04929         141.119         32.1986 
        1.05541         140.669         31.7619 
        1.06154         139.584         31.3323 
        1.06769         139.439           30.91 
        1.07382         138.146         30.4969 
        1.07993          136.99         30.0922 
        1.08607         136.188         29.6933 
        1.09222         135.687         29.3012 
        1.09836         134.495         28.9167 
        1.10449         133.257         28.5395 
        1.11063          132.29         28.1686 
        1.11677         131.978         27.8045 
         1.1229         130.763         27.4474 
        1.12903         130.113         27.0963 
        1.13518         129.821         26.7511 
        1.14131         128.433         26.4121 
        1.14745         127.989         26.0791 
        1.15359         127.059         25.7518 
        1.15973         126.576           25.43 
        1.16584         125.234         25.1152 
        1.17197         124.724         24.8053 
        1.17811         124.012         24.4996 
        1.18424         123.417            24.2 
        1.19038         123.051         23.9045 
        1.19652         122.056         23.6141 
        1.20267         121.266         23.3285 
        1.20881         120.287         23.0477 
        1.21495         119.771          22.772 
        1.22108         119.147         22.5009 
         1.2272         118.073         22.2348 
        1.23334         117.607         21.9724 
        1.23949         116.671         21.7136 
        1.24562         116.096         21.4597 
        1.25174         115.135         21.2102 
        1.25789         114.673          20.964 
        1.26402         113.919         20.7221 
        1.27014           113.3         20.4847 
        1.27628         112.767         20.2502 
        1.28244         112.248          20.019 
        1.28858         111.777         19.7917 
        1.29471         110.553         19.5684 
        1.30084         110.297         19.3488 
        1.30697         109.445         19.1322 
        1.31312         109.076         18.9186 
        1.31925         108.126         18.7089 
        1.32537         107.712         18.5027 
        1.33151         106.694         18.2988 
        1.33765         106.401         18.0981 
        1.34378         105.762         17.9008 
        1.34992         105.506         17.7063 
        1.35606         104.794         17.5142 
         1.3622          103.88         17.3254 
        1.36833          103.48         17.1398 
        1.37445         102.854          16.957 
        1.38059         102.318         16.7764 
        1.38675         101.609         16.5979 
        1.39288         101.277         16.4227 
        1.39901         100.841         16.2501 
        1.40515          100.08         16.0797 
         1.4113         99.3801         15.9117 
        1.41742         99.1407         15.7468 
        1.42355         98.3708         15.5839 
         1.4297         97.9413         15.4228 
        1.43585         97.1719          15.264 
        1.44198         96.8718         15.1081 
        1.44809         96.2406         14.9547 
        1.45423         95.6859         14.8028 
        1.46036         95.4379         14.6533 
        1.46649         94.6859         14.5059 
        1.47263         94.1304         14.3603 
        1.47877         93.9229         14.2168 
        1.48491         93.0079          14.075 
        1.49104         92.8237         13.9355 
        1.49718         92.1244         13.7977 
        1.50333         91.6871         13.6616 
        1.50947         91.2774         13.5276 
         1.5156         90.6822         13.3956 
        1.52172         90.1679         13.2654 
        1.52787         89.8203         13.1366 
          1.534         89.2093         13.0097 
        1.54013         88.6989         12.8846 
        1.54627         88.4032          12.761 
        1.55241         87.7456         12.6389 
        1.55855         87.4462         12.5186 
        1.56467         87.0766         12.4002 
         1.5708         86.4164         12.2829 
        1.57695         86.3215         12.1671 
        1.58308         85.4261         12.0529 
        1.58922          85.337         11.9402 
        1.59535         84.8499          11.829 
         1.6015         84.2553          11.719 
        1.60764          83.867         11.6104 
        1.61376          83.623         11.5035 
        1.61989         83.0239         11.3979 
        1.62604          82.792         11.2934 
        1.63218         82.2967         11.1902 
        1.63831         81.5519         11.0886 
        1.64444         81.3483         10.9882 
        1.65059         80.8717         10.8888 
        1.65673         80.2419         10.7907 
        1.66285         80.0514         10.6941 
        1.66898         79.6016         10.5987 
        1.67512         79.1183         10.5042 
        1.68127         78.8125         10.4108 
         1.6874         78.3604         10.3188 
        1.69353         77.9266         10.2279 
        1.69967         77.4398         10.1379 
        1.70581         77.2685          10.049 
        1.71193         76.9536         9.96148 
        1.71806         76.3801         9.87485 
        1.72421         75.9547         9.78907 
        1.73035         75.6259         9.70441 
        1.73649         75.2513         9.62076 
        1.74262         74.8387         9.53817 
        1.74876         74.5207         9.45649 
        1.75489         73.9142         9.37594 
        1.76101         73.7477         9.29634 
        1.76715         73.2274         9.21756 
        1.77329         72.9899          9.1396 
        1.77943         72.4451          9.0625 
        1.78557         72.3207          8.9864 
        1.79171         71.7402         8.91117 
        1.79785          71.437         8.83677 
        1.80399         71.1735         8.76325 
        1.81012         70.9015         8.69066 
        1.81625         70.3782         8.61892 
        1.82239         70.1158         8.54788 
        1.82853         69.8187         8.47767 
        1.83466          69.397         8.40832 
        1.84078         69.1212         8.33982 
        1.84692         68.6228         8.27197 
        1.85306         68.3014         8.20478 
         1.8592         67.9312         8.13845 
        1.86533          67.643         8.07289 
        1.87147         67.1543         8.00797 
        1.87761         66.9588         7.94373 
        1.88375         66.6164         7.88027 
        1.88988         66.3172         7.81757 
        1.89601         65.9044         7.75552 
        1.90215         65.5962         7.69409 
        1.90829         65.3393         7.63336 
        1.91442         64.9865         7.57327 
        1.92056         64.4897         7.51389 
         1.9267         64.3589         7.45508 
        1.93284         63.9359         7.39686 
        1.93897         63.5692         7.33937 
        1.94509         63.3439         7.28262 
        1.95123         62.9878         7.22632 
        1.95737         62.7416         7.17057 
        1.96349         62.2694         7.11556 
        1.96964         62.0884         7.06096 
        1.97578         61.8177         7.00691 
        1.98192            61.5         6.95354 
        1.98805         61.2647         6.90071 
        1.99419         60.8186         6.84843 
        2.00033         60.5624         6.79666 
        2.00647         60.3066         6.74544 
         2.0126         59.8525         6.69483 
        2.01874         59.5835         6.64467 
        2.02488         59.3984         6.59497 
        2.03101         59.1123         6.54587 
        2.03714         58.7417         6.49732 
        2.04328         58.5556         6.44921 
        2.04941         58.2401         6.40162 
        2.05554         57.9742         6.35454 
        2.06167         57.6337         6.30787 
        2.06781         57.3568         6.26167 
        2.07396          57.047         6.21586 
        2.08009         56.8534         6.17058 
        2.08622         56.5796         6.12581 
        2.09237         56.2195         6.08139 
        2.09851         56.0818         6.03741 
        2.10464         55.7163         5.99393 
        2.11077         55.3652         5.95093 
        2.11691          55.141         5.90826 
        2.12305         54.9224           5.866 
        2.12918         54.6697         5.82426 
        2.13531         54.2935         5.78292 
        2.14145          54.076         5.74188 
         2.1476          53.846         5.70119 
        2.15372         53.5688          5.6611 
        2.15985          53.287         5.62136 
        2.16599         53.0325         5.58188 
        2.17213         52.8249         5.54282 
        2.17827          52.531         5.50414 
         2.1844          52.228         5.46587 
        2.19054         51.9724         5.42794 
        2.19666         51.7004         5.39043 
         2.2028         51.6208         5.35324 
        2.20893          51.336         5.31638 
        2.21508         51.0594         5.27983 
        2.22122         50.8349          5.2436 
        2.22736          50.623         5.20779 
        2.23349         50.3364         5.17233 
        2.23962         49.9979         5.13717 
        2.24577           49.76         5.10231 
         2.2519         49.4982         5.06782 
        2.25802          49.414          5.0337 
        2.26417         49.0283          4.9998 
        2.27031         48.8764         4.96619 
        2.27644         48.6884         4.93297 
        2.28257         48.3689         4.90007 
        2.28872         48.1039          4.8674 
        2.29486          47.954         4.83503 
        2.30099         47.7343         4.80302 
        2.30712         47.5263         4.77129 
        2.31326         47.1976         4.73979 
         2.3194         46.9577         4.70859 
        2.32553         46.7267         4.67772 
        2.33166          46.525         4.64715 
         2.3378         46.2788          4.6168 
        2.34394         46.0462         4.58671 
        2.35007         45.7857         4.55694 
        2.35619         45.6199         4.52746 
        2.36233          45.501         4.49818 
        2.36848         45.2119         4.46909 
        2.37462         44.9874         4.44032 
        2.38075         44.8281         4.41183 
        2.38689         44.6104         4.38357 
        2.39303         44.4024         4.35555 
        2.39916         44.1889         4.32781 
        2.40529         43.9969         4.30032 
        2.41143         43.8094         4.27304 
        2.41757         43.5102         4.24599 
         2.4237         43.4181         4.21922 
        2.42983         43.1503         4.19268 
        2.43598          42.932          4.1663 
        2.44211         42.7859         4.14019 
        2.44823         42.5476         4.11436 
        2.45437         42.3505         4.08868 
        2.46052         42.0532          4.0632 
        2.46665         41.9103         4.03798 
        2.47279         41.7575         4.01298 
        2.47892         41.5832         3.98817 
        2.48507         41.3125         3.96356 
         2.4912         41.2157         3.93919 
