# k  (h/Mpc)    Pcb(k)  (Mpc/h)^3    Pcb_linear(k)  (Mpc/h)^3
     0.00783031         17661.5         17925.5 
       0.013688         22045.8         21832.3 
       0.019231         21686.7         21634.7 
      0.0249154         19000.3         19422.3 
      0.0312784         15988.7         16164.6 
      0.0375637         13249.7           13218 
      0.0433917         10985.6           11150 
      0.0492413         9724.24          9751.9 
      0.0555754         8578.63          8827.5 
      0.0619321         8286.92         8246.21 
       0.067871         7572.83         7783.05 
      0.0738098         7047.98         7244.39 
      0.0800417          6300.3         6542.88 
      0.0862327         5636.25         5754.24 
      0.0921407         5039.37          5011.2 
      0.0982031         4381.29         4350.94 
       0.104506         4018.15         3831.45 
       0.110769         3670.93         3489.87 
       0.116806         3457.05         3292.51 
       0.122832         3314.23         3171.98 
       0.129052         3111.56         3068.27 
       0.135211         2976.96         2938.38 
       0.141259         2856.01         2762.27 
       0.147318         2677.16         2542.84 
       0.153489         2428.69         2300.57 
       0.159709         2264.68         2069.76 
       0.165845         2146.99         1880.19 
       0.171974          2015.7         1739.81 
       0.178125         1913.23         1645.53 
       0.184229         1829.66         1585.69 
        0.19034         1740.04         1542.12 
       0.196428         1710.32         1498.14 
       0.202534         1650.79          1441.6 
       0.208729         1573.29         1367.44 
       0.214876         1503.88         1280.97 
       0.220989         1444.33         1190.99 
       0.227147         1378.33         1106.07 
        0.23329         1317.34          1034.3 
       0.239377         1291.24         978.943 
       0.245482         1209.37         937.977 
       0.251667         1203.36         907.149 
       0.257832         1156.32         881.444 
       0.263955         1119.57         855.536 
       0.270079          1079.6         825.801 
        0.27624         1067.22         790.986 
       0.282372         1023.19         752.714 
        0.28843         1011.41         714.081 
       0.294538         959.439         677.164 
       0.300721         952.624         644.233 
        0.30691         914.916         616.666 
       0.313033         896.575         594.465 
       0.319153         877.625         575.947 
       0.325316         850.658         559.289 
        0.33145         830.307         542.943 
       0.337538         815.141         525.907 
       0.343633         796.054         507.592 
       0.349808         767.893         488.171 
       0.355968         762.314          468.65 
       0.362074         753.973         450.122 
       0.368217         730.488         433.024 
       0.374374         701.675         417.761 
       0.380519         701.677         404.413 
       0.386598         681.521         392.612 
       0.392688         679.106         381.702 
        0.39888         658.847         370.994 
       0.405048         649.635         360.274 
       0.411186         640.291         349.452 
       0.417313         627.075          338.51 
       0.423458         614.863          327.61 
       0.429607         607.318         317.084 
       0.435692         593.341         307.253 
       0.441815         587.662         298.055 
       0.447964         575.789         289.567 
       0.454126         568.875         281.691 
       0.460267         555.326         274.284 
       0.466387         548.786         267.193 
        0.47254         543.801         260.224 
       0.478662         539.099         253.351 
       0.484765         521.341         246.559 
       0.490885         517.652         239.883 
       0.497035         507.457          233.37 
       0.503198         503.584         227.099 
       0.509342         499.418         221.151 
       0.515458         495.156          215.56 
       0.521598          481.97         210.244 
       0.527764         474.962          205.14 
       0.533884         472.163         200.256 
           0.54         466.524         195.519 
       0.546137         463.685         190.884 
       0.552299         456.143         186.327 
       0.558452         453.113         181.875 
       0.564573         447.309         177.562 
       0.570708          441.07         173.385 
       0.576825         430.506         169.381 
       0.582926         430.362         165.545 
       0.589034         426.253         161.847 
       0.595184         423.062         158.256 
       0.601379         415.883         154.761 
       0.607522         410.444         151.404 
       0.613639         409.415         148.156 
       0.619772         401.575         144.983 
       0.625918         399.575          141.88 
       0.632068         393.287         138.854 
       0.638161         391.683         135.939 
         0.6443         385.656          133.09 
       0.650464         382.909         130.324 
       0.656582         379.108         127.667 
       0.662703         378.603         125.093 
       0.668861         372.461         122.579 
       0.675024         369.117         120.132 
       0.681124          366.02         117.774 
       0.687237         362.968         115.471 
       0.693381         357.691         113.216 
       0.699536         353.345         111.017 
       0.705665         351.636         108.887 
       0.711789         350.276         106.816 
       0.717957         347.296         104.786 
        0.72409         344.834         102.822 
       0.730186           340.1         100.922 
       0.736317         337.471         99.0604 
       0.742472         335.238         97.2394 
       0.748622         332.285         95.4662 
        0.75476         328.208         93.7411 
       0.760888         324.932         92.0615 
       0.767043         325.204         90.4168 
       0.773185         321.687         88.8162 
       0.779291         317.274          87.264 
       0.785407           316.5         85.7472 
       0.791564         312.769         84.2577 
       0.797719         310.387         82.8049 
       0.803834         307.038         81.3961 
       0.809972         306.635         80.0156 
       0.816124         305.637         78.6644 
       0.822261         302.175         77.3484 
       0.828378          299.91         76.0667 
       0.834502         296.808         74.8131 
       0.840667         294.815         73.5799 
       0.846816         293.492         72.3781 
       0.852925         291.741         71.2109 
       0.859047         289.432         70.0673 
       0.865192           285.9         68.9452 
       0.871341         283.754         67.8473 
       0.877463         283.397         66.7785 
       0.883569         281.346         65.7357 
       0.889708         278.433         64.7101 
       0.895864         277.207         63.7041 
       0.902008         274.754         62.7218 
       0.908149         272.615          61.761 
       0.914301         270.105         60.8191 
       0.920448          268.78         59.8979 
       0.926574         265.797         58.9992 
       0.932687         265.907          58.121 
       0.938823          262.97         57.2577 
       0.944975          262.27         56.4101 
       0.951105         260.302         55.5829 
       0.957225         258.756         54.7739 
       0.963368         255.214         53.9784 
       0.969511          254.44         53.1988 
       0.975621         252.438          52.439 
       0.981748         251.621         51.6922 
       0.987916         250.159         50.9554 
        0.99406         247.074         50.2359 
        1.00019         246.291         49.5318 
        1.00632         245.029          48.842 
        1.01246         242.956         48.1645 
        1.01859         243.402          47.501 
        1.02471          239.24          46.851 
        1.03085         238.302          46.211 
        1.03698          237.17         45.5845 
        1.04314         234.966          44.967 
        1.04929         233.571         44.3625 
        1.05541         233.904         43.7716 
        1.06154         230.375         43.1902 
        1.06769         230.029         42.6185 
        1.07382         228.207         42.0591 
        1.07993          226.92         41.5112 
        1.08607         226.442         40.9708 
        1.09222         224.274         40.4395 
        1.09836         222.691         39.9184 
        1.10449         220.835         39.4071 
        1.11063         219.175         38.9044 
        1.11677         218.667         38.4106 
         1.1229         216.788         37.9263 
        1.12903         216.014         37.4501 
        1.13518         214.552         36.9816 
        1.14131         212.912         36.5216 
        1.14745          212.81         36.0696 
        1.15359         210.876         35.6253 
        1.15973         209.145         35.1883 
        1.16584         208.107         34.7607 
        1.17197         208.154         34.3397 
        1.17811         205.392         33.9243 
        1.18424          204.63         33.5171 
        1.19038         204.133         33.1155 
        1.19652         202.263         32.7207 
        1.20267         201.789         32.3324 
        1.20881           200.2         31.9505 
        1.21495         199.006         31.5754 
        1.22108         197.788         31.2064 
         1.2272         196.555         30.8443 
        1.23334         196.039         30.4871 
        1.23949         194.028         30.1348 
        1.24562         193.349         29.7891 
        1.25174         192.494         29.4493 
        1.25789         191.266         29.1139 
        1.26402         189.307         28.7843 
        1.27014         188.326         28.4607 
        1.27628         187.533         28.1412 
        1.28244         187.465         27.8259 
        1.28858         185.397          27.516 
        1.29471         184.327         27.2115 
        1.30084         183.511         26.9119 
        1.30697         181.994         26.6164 
        1.31312         180.767          26.325 
        1.31925         179.912         26.0389 
        1.32537         179.625         25.7573 
        1.33151         177.921         25.4789 
        1.33765         176.788         25.2048 
        1.34378         176.265         24.9353 
        1.34992         175.323         24.6696 
        1.35606         175.216         24.4072 
         1.3622         173.249         24.1491 
        1.36833         172.027         23.8954 
        1.37445         171.554         23.6455 
        1.38059         170.041         23.3984 
        1.38675         169.569         23.1543 
        1.39288         168.646         22.9147 
        1.39901         168.146         22.6786 
        1.40515         166.408         22.4453 
         1.4113         165.956         22.2154 
        1.41742         164.624         21.9896 
        1.42355         163.977         21.7665 
         1.4297         162.728         21.5459 
        1.43585         162.102         21.3285 
        1.44198         161.397         21.1149 
        1.44809         160.571         20.9047 
        1.45423         159.881         20.6966 
        1.46036         158.541         20.4917 
        1.46649         157.673         20.2895 
        1.47263          156.87         20.0899 
        1.47877         155.651         19.8931 
        1.48491         154.455         19.6986 
        1.49104         154.391         19.5072 
        1.49718         153.002         19.3182 
        1.50333          152.27         19.1314 
        1.50947         151.444         18.9475 
         1.5156         150.741         18.7663 
        1.52172         150.047         18.5874 
        1.52787         148.761         18.4106 
          1.534         148.349         18.2363 
        1.54013         147.571         18.0644 
        1.54627         146.681         17.8944 
        1.55241         145.693         17.7267 
        1.55855         144.932         17.5613 
        1.56467         143.931         17.3985 
         1.5708         143.072         17.2373 
        1.57695         142.793         17.0779 
        1.58308         142.013         16.9209 
        1.58922         141.332         16.7658 
        1.59535         140.374         16.6127 
         1.6015          139.87         16.4614 
        1.60764         139.146          16.312 
        1.61376         138.202         16.1648 
        1.61989         137.441         16.0194 
        1.62604         136.432         15.8755 
        1.63218         136.284         15.7334 
        1.63831         135.277         15.5934 
        1.64444         134.535          15.455 
        1.65059         133.783          15.318 
        1.65673         132.965         15.1828 
        1.66285         132.499         15.0497 
        1.66898         131.613         14.9181 
        1.67512         131.135         14.7878 
        1.68127         130.265          14.659 
         1.6874         129.436          14.532 
        1.69353         129.072         14.4066 
        1.69967         128.247         14.2824 
        1.70581         127.478         14.1597 
        1.71193           126.9          14.039 
        1.71806         126.353         13.9193 
        1.72421          125.68         13.8009 
        1.73035         125.325          13.684 
        1.73649         124.436         13.5684 
        1.74262         123.648         13.4543 
        1.74876         123.143         13.3415 
        1.75489         122.356         13.2302 
        1.76101         121.552         13.1201 
        1.76715         121.159         13.0112 
        1.77329         120.614         12.9034 
        1.77943         119.912         12.7968 
        1.78557         119.525         12.6916 
        1.79171         118.501         12.5875 
        1.79785          117.96         12.4845 
        1.80399          117.29         12.3828 
        1.81012         116.835         12.2823 
        1.81625         116.316          12.183 
        1.82239         115.775         12.0847 
        1.82853          114.97         11.9875 
        1.83466         114.392         11.8914 
        1.84078         113.878         11.7965 
        1.84692         112.994         11.7025 
        1.85306         112.798         11.6095 
         1.8592         112.041         11.5175 
        1.86533         111.311         11.4267 
        1.87147         110.755         11.3367 
        1.87761         110.049         11.2477 
        1.88375         109.589         11.1597 
        1.88988         108.992         11.0727 
        1.89601          108.36         10.9867 
        1.90215         107.802         10.9015 
        1.90829         107.397         10.8172 
        1.91442         106.918         10.7338 
        1.92056           106.1         10.6514 
         1.9267         105.832         10.5698 
        1.93284         105.227         10.4889 
        1.93897         104.538         10.4091 
        1.94509         104.237         10.3303 
        1.95123         103.588         10.2521 
        1.95737         103.022         10.1747 
        1.96349         102.529         10.0983 
        1.96964          101.71         10.0224 
        1.97578         101.241         9.94729 
        1.98192         101.016          9.8731 
        1.98805         100.394         9.79967 
        1.99419         99.9868         9.72698 
        2.00033          99.326         9.65499 
        2.00647          99.021         9.58376 
         2.0126         98.2562         9.51337 
        2.01874         97.6904         9.44359 
        2.02488         97.4399         9.37444 
        2.03101         96.7218         9.30612 
        2.03714         96.1752         9.23855 
        2.04328         95.7699         9.17157 
        2.04941         95.3563         9.10532 
        2.05554         94.7388         9.03977 
        2.06167         94.4568         8.97478 
        2.06781         93.7469         8.91042 
        2.07396         93.5147          8.8466 
        2.08009         93.0032         8.78352 
        2.08622         92.3588         8.72114 
        2.09237         92.0752         8.65923 
        2.09851         91.6094         8.59793 
        2.10464         91.1001         8.53732 
        2.11077         90.5321         8.47737 
        2.11691         90.2916         8.41786 
        2.12305         89.7311         8.35893 
        2.12918         89.2076         8.30071 
        2.13531         88.7903         8.24303 
        2.14145         88.2135         8.18578 
         2.1476         87.7852         8.12901 
        2.15372         87.4535         8.07306 
        2.15985         87.0157         8.01758 
        2.16599         86.4155         7.96247 
        2.17213         86.1559         7.90794 
        2.17827         85.6015         7.85394 
         2.1844         85.1513         7.80048 
        2.19054          84.869         7.74751 
        2.19666         84.4234         7.69511 
         2.2028         84.0173         7.64315 
        2.20893         83.6175         7.59165 
        2.21508         83.1056         7.54056 
        2.22122         82.7467         7.48993 
        2.22736         82.2994         7.43988 
        2.23349         81.8728         7.39029 
        2.23962         81.5741         7.34113 
        2.24577         81.2237         7.29238 
         2.2519         80.8538         7.24414 
        2.25802         80.3692         7.19641 
        2.26417         79.9927         7.14899 
        2.27031         79.5419         7.10195 
        2.27644         79.0049         7.05547 
        2.28257         78.6728         7.00942 
        2.28872         78.4795         6.96368 
        2.29486         77.9102         6.91837 
        2.30099         77.2755         6.87356 
        2.30712         77.1748         6.82912 
        2.31326         76.7498         6.78501 
         2.3194         76.3862         6.74131 
        2.32553         76.1041         6.69807 
        2.33166         75.6989         6.65523 
         2.3378         75.1799         6.61271 
        2.34394         74.8278         6.57054 
        2.35007         74.5654         6.52881 
        2.35619         74.1735         6.48749 
        2.36233         73.7518         6.44643 
        2.36848         73.4084         6.40564 
        2.37462         72.9862          6.3653 
        2.38075          72.708         6.32534 
        2.38689         72.3202         6.28569 
        2.39303         71.9002         6.24639 
        2.39916         71.6155         6.20747 
        2.40529          71.445         6.16888 
        2.41143         70.7902          6.1306 
        2.41757         70.6044         6.09262 
         2.4237         70.2652         6.05504 
        2.42983         69.8938         6.01778 
        2.43598         69.4994         5.98073 
        2.44211         69.2544         5.94406 
        2.44823         68.9081         5.90779 
        2.45437         68.4923         5.87171 
        2.46052         68.2405         5.83591 
        2.46665          67.933         5.80047 
        2.47279         67.5223         5.76534 
        2.47892         67.2393         5.73048 
        2.48507         66.8134         5.69587 
         2.4912         66.5279         5.66162 
