# k  (h/Mpc)    P(k)  (Mpc/h)^3    P_linear(k)  (Mpc/h)^3
     0.00783031         11452.4         11649.5 
       0.013688         13833.1         13759.6 
       0.019231         13328.8           13308 
      0.0249154           11529         11722.7 
      0.0312784         9607.73         9667.14 
      0.0375637         7997.78         7965.06 
      0.0433917         6787.41         6853.16 
      0.0492413         6122.31         6133.48 
      0.0555754         5516.89         5634.55 
      0.0619321         5265.78         5235.18 
       0.067871         4745.79         4828.51 
      0.0738098         4280.99         4348.54 
      0.0800417         3721.18         3799.52 
      0.0862327         3262.25         3280.72 
      0.0921407         2907.71         2870.08 
      0.0982031          2581.4         2561.53 
       0.104506         2432.88         2353.24 
       0.110769         2283.96         2224.34 
       0.116806         2168.64         2130.45 
       0.122832         2072.04         2029.83 
       0.129052         1907.17         1897.91 
       0.135211         1766.18         1740.08 
       0.141259         1643.55         1575.47 
       0.147318         1512.49         1422.11 
       0.153489         1373.74         1293.94 
       0.159709         1294.94         1199.31 
       0.165845         1246.12         1135.62 
       0.171974         1185.63         1090.59 
       0.178125         1137.27         1051.28 
       0.184229         1090.93         1007.92 
        0.19034         1016.61          955.44 
       0.196428         984.453         895.384 
       0.202534         939.039         832.703 
       0.208729         881.828         773.167 
       0.214876         833.178         722.973 
       0.220989         802.767         683.555 
       0.227147         766.322          653.15 
        0.23329          737.47         628.856 
       0.239377         722.255         606.987 
       0.245482         674.254         584.225 
       0.251667         666.473         558.813 
       0.257832         639.149         531.433 
       0.263955         614.612         503.724 
       0.270079         589.033         477.343 
        0.27624         579.549          453.67 
       0.282372         556.294         433.537 
        0.28843         542.253         416.767 
       0.294538         515.577         402.089 
       0.300721         512.246         388.382 
        0.30691         488.861         374.827 
       0.313033         478.329         361.064 
       0.319153         462.861         346.948 
       0.325316           449.3         332.733 
        0.33145         435.077         319.114 
       0.337538         428.089         306.575 
       0.343633         414.187         295.197 
       0.349808         399.792         284.871 
       0.355968         395.695         275.496 
       0.362074         388.083         266.817 
       0.368217         377.122         258.381 
       0.374374         361.357         250.027 
       0.380519         358.486         241.759 
       0.386598         349.057         233.693 
       0.392688         345.698          225.88 
        0.39888         336.099         218.336 
       0.405048         328.242          211.29 
       0.411186         322.122         204.771 
       0.417313         315.872         198.681 
       0.423458         309.377         192.895 
       0.429607         303.557         187.342 
       0.435692         295.371          182.01 
       0.441815         292.749         176.761 
       0.447964         286.738         171.627 
       0.454126         277.555         166.648 
       0.460267         273.523         161.877 
       0.466387         270.336         157.335 
        0.47254         264.244         152.998 
       0.478662         263.522         148.892 
       0.484765         254.496         144.975 
       0.490885         251.497         141.197 
       0.497035         247.411          137.53 
       0.503198         242.307          133.97 
       0.509342         240.114         130.521 
       0.515458         236.856         127.193 
       0.521598         231.843         123.965 
       0.527764         228.583         120.845 
       0.533884         225.949         117.867 
           0.54         222.525         115.003 
       0.546137         221.191         112.234 
       0.552299         216.539         109.551 
       0.558452         214.734         106.964 
       0.564573         211.437          104.47 
       0.570708          207.04         102.045 
       0.576825         204.217         99.6987 
       0.582926         201.515         97.4296 
       0.589034         199.427         95.2294 
       0.595184          197.28         93.0869 
       0.601379         194.808         91.0007 
       0.607522         191.333         88.9985 
       0.613639         190.062         87.0668 
       0.619772         186.026         85.1884 
       0.625918         184.638         83.3614 
       0.632068         182.084         81.5868 
       0.638161         180.982         79.8798 
         0.6443         178.212         78.2097 
       0.650464         176.444         76.5819 
       0.656582         174.432         75.0128 
       0.662703         173.179         73.4878 
       0.668861         170.164         71.9973 
       0.675024         168.035         70.5476 
       0.681124         167.236         69.1531 
       0.687237         164.686          67.794 
       0.693381         162.212         66.4658 
       0.699536         161.182         65.1713 
       0.705665         160.249         63.9174 
       0.711789          157.64          62.698 
       0.717957         157.234         61.5025 
        0.72409         155.019         60.3451 
       0.730186          152.93         59.2249 
       0.736317         151.543         58.1274 
       0.742472         150.626         57.0539 
       0.748622         149.212         56.0089 
        0.75476         147.915         54.9925 
       0.760888         146.035         54.0031 
       0.767043         145.569         53.0344 
       0.773185         144.055         52.0918 
       0.779291         141.444         51.1776 
       0.785407         140.945         50.2844 
       0.791564         139.794          49.407 
       0.797719         137.495         48.5513 
       0.803834         136.908         47.7216 
       0.809972         135.751         46.9084 
       0.816124         135.268         46.1127 
       0.822261         133.773         45.3378 
       0.828378          132.53         44.5833 
       0.834502         132.213         43.8454 
       0.840667         130.183         43.1197 
       0.846816         128.862         42.4126 
       0.852925          128.35          41.726 
       0.859047         126.858         41.0534 
       0.865192         125.852         40.3935 
       0.871341         124.776         39.7478 
       0.877463         123.611         39.1193 
       0.883569         123.188         38.5061 
       0.889708         122.053         37.9031 
       0.895864         120.774         37.3116 
       0.902008         120.036          36.734 
       0.908149         119.518         36.1692 
       0.914301         118.189         35.6155 
       0.920448         117.301          35.074 
       0.926574         116.556         34.5457 
       0.932687         116.449         34.0296 
       0.938823         114.655         33.5223 
       0.944975         113.552         33.0243 
       0.951105         113.081         32.5382 
       0.957225         111.931         32.0629 
       0.963368         110.827         31.5956 
       0.969511         110.715         31.1376 
       0.975621          110.05         30.6913 
       0.981748         109.404         30.2527 
       0.987916          108.24         29.8199 
        0.99406         107.462         29.3973 
        1.00019         107.124         28.9838 
        1.00632         106.103         28.5787 
        1.01246         105.541         28.1808 
        1.01859         104.498         27.7912 
        1.02471         103.851         27.4096 
        1.03085         102.902         27.0338 
        1.03698         102.588         26.6659 
        1.04314         101.557         26.3034 
        1.04929         101.025         25.9484 
        1.05541           100.3         25.6016 
        1.06154         99.8435         25.2602 
        1.06769         99.5669         24.9247 
        1.07382         98.7615         24.5963 
        1.07993         98.0146         24.2747 
        1.08607         97.3157         23.9576 
        1.09222         97.0806         23.6458 
        1.09836         96.2029           23.34 
        1.10449         95.5672         23.0401 
        1.11063         94.8758         22.7451 
        1.11677         94.5245         22.4554 
         1.1229         93.5907         22.1713 
        1.12903          92.966          21.892 
        1.13518         93.0192         21.6172 
        1.14131         92.2273         21.3474 
        1.14745         91.5418         21.0824 
        1.15359         91.0459         20.8218 
        1.15973         90.6614         20.5656 
        1.16584         89.8229         20.3149 
        1.17197         89.4154          20.068 
        1.17811         88.9308         19.8246 
        1.18424         88.4046         19.5859 
        1.19038         87.9861         19.3504 
        1.19652         87.4406          19.119 
        1.20267         86.7085         18.8914 
        1.20881         86.2611         18.6675 
        1.21495           85.73         18.4477 
        1.22108         85.4212         18.2314 
         1.2272         84.5334         18.0192 
        1.23334         84.2947         17.8099 
        1.23949         83.7199         17.6034 
        1.24562           83.28         17.4008 
        1.25174         82.7958         17.2017 
        1.25789         82.4959         17.0052 
        1.26402         81.8852         16.8121 
        1.27014         81.4199         16.6224 
        1.27628         81.0818         16.4352 
        1.28244         80.5115         16.2505 
        1.28858         80.3857         16.0689 
        1.29471         79.7425         15.8905 
        1.30084         79.3438          15.715 
        1.30697         78.8444         15.5419 
        1.31312         78.4412         15.3711 
        1.31925         77.9424         15.2035 
        1.32537         77.6871         15.0386 
        1.33151         76.9588         14.8755 
        1.33765         76.6624          14.715 
        1.34378         76.2551         14.5572 
        1.34992         75.9813         14.4016 
        1.35606         75.5526         14.2479 
         1.3622          74.875         14.0968 
        1.36833         74.7786         13.9483 
        1.37445         74.2847         13.8019 
        1.38059         73.7805         13.6573 
        1.38675         73.3827         13.5144 
        1.39288         73.0488         13.3741 
        1.39901         72.7916         13.2359 
        1.40515         72.2969         13.0994 
         1.4113         71.9497         12.9648 
        1.41742         71.8447         12.8327 
        1.42355         71.2217         12.7021 
         1.4297         71.0214          12.573 
        1.43585         70.4321         12.4458 
        1.44198         70.0811         12.3208 
        1.44809         69.8079         12.1978 
        1.45423          69.474          12.076 
        1.46036         69.2603         11.9561 
        1.46649         68.7853         11.8378 
        1.47263         68.3607          11.721 
        1.47877         68.2159         11.6059 
        1.48491         67.7702         11.4921 
        1.49104          67.472         11.3801 
        1.49718         67.0286         11.2695 
        1.50333          66.739         11.1602 
        1.50947          66.452         11.0526 
         1.5156         66.0785         10.9466 
        1.52172         65.7723          10.842 
        1.52787         65.6369         10.7385 
          1.534         65.1106         10.6365 
        1.54013         64.7152          10.536 
        1.54627         64.5962         10.4366 
        1.55241         64.0645         10.3384 
        1.55855         63.8731         10.2417 
        1.56467         63.4889         10.1465 
         1.5708         63.3308         10.0522 
        1.57695         63.1325         9.95903 
        1.58308         62.5632         9.86723 
        1.58922         62.4139         9.77653 
        1.59535          62.259         9.68701 
         1.6015         61.6638         9.59849 
        1.60764         61.5185         9.51113 
        1.61376         61.1922          9.4251 
        1.61989         60.8594         9.34007 
        1.62604         60.6888         9.25591 
        1.63218         60.4563         9.17285 
        1.63831         59.9456           9.091 
        1.64444         59.7606         9.01012 
        1.65059          59.477         8.93005 
        1.65673         59.2326         8.85104 
        1.66285         58.8519         8.77321 
        1.66898         58.6532          8.6963 
        1.67512         58.2318         8.62016 
        1.68127          58.043         8.54487 
         1.6874         57.8082         8.47066 
        1.69353         57.5445         8.39737 
        1.69967         57.2209         8.32478 
        1.70581         57.1068         8.25309 
        1.71193          56.912         8.18251 
        1.71806         56.3488         8.11262 
        1.72421           56.24          8.0434 
        1.73035         55.9974         7.97507 
        1.73649         55.6333         7.90756 
        1.74262         55.4996         7.84088 
        1.74876          55.191         7.77493 
        1.75489          54.939         7.70989 
        1.76101         54.7602          7.6456 
        1.76715         54.3676         7.58197 
        1.77329         54.1753         7.51898 
        1.77943         53.8245         7.45669 
        1.78557         53.6975          7.3952 
        1.79171         53.4274          7.3344 
        1.79785         53.1454         7.27427 
        1.80399          53.057         7.21483 
        1.81012         52.7424         7.15614 
        1.81625         52.3404         7.09813 
        1.82239         52.2228         7.04068 
        1.82853         51.8985          6.9839 
        1.83466         51.6976          6.9278 
        1.84078          51.431         6.87238 
        1.84692         51.1478         6.81748 
        1.85306         50.9585         6.76312 
         1.8592         50.6485         6.70943 
        1.86533         50.5268         6.65636 
        1.87147         50.2652         6.60381 
        1.87761         50.0866         6.55181 
        1.88375         49.8327         6.50043 
        1.88988         49.7132         6.44966 
        1.89601         49.4113          6.3994 
        1.90215         49.1682         6.34965 
        1.90829         49.0574         6.30045 
        1.91442         48.7702         6.25176 
        1.92056         48.4475         6.20365 
         1.9267         48.2732         6.15599 
        1.93284         48.0407          6.1088 
        1.93897          47.883          6.0622 
        1.94509         47.6021         6.01619 
        1.95123         47.4427         5.97054 
        1.95737         47.2492         5.92534 
        1.96349         46.9263         5.88072 
        1.96964         46.9056         5.83644 
        1.97578         46.5799         5.79259 
        1.98192         46.3775         5.74928 
        1.98805           46.29         5.70642 
        1.99419         45.9622         5.66399 
        2.00033         45.7597         5.62197 
        2.00647         45.5822         5.58039 
         2.0126         45.2549          5.5393 
        2.01874         45.2316         5.49857 
        2.02488          45.028         5.45821 
        2.03101         44.7761         5.41834 
        2.03714         44.5804          5.3789 
        2.04328         44.3724         5.33981 
        2.04941         44.1201         5.30114 
        2.05554         43.9044         5.26289 
        2.06167         43.7957         5.22496 
        2.06781         43.5671          5.1874 
        2.07396         43.4163         5.15016 
        2.08009         43.2583         5.11336 
        2.08622         42.9619         5.07695 
        2.09237         42.8104         5.04083 
        2.09851         42.6629         5.00506 
        2.10464         42.4682         4.96969 
        2.11077         42.3042         4.93471 
        2.11691         42.0304         4.89999 
        2.12305         41.8847         4.86561 
        2.12918         41.6859         4.83164 
        2.13531         41.4635         4.79799 
        2.14145         41.2681         4.76459 
         2.1476         41.1373         4.73146 
        2.15372         40.8944         4.69882 
        2.15985         40.7674         4.66645 
        2.16599         40.6362          4.6343 
        2.17213         40.4901         4.60249 
        2.17827         40.2418         4.57099 
         2.1844         40.0902          4.5398 
        2.19054         39.8667         4.50891 
        2.19666         39.7072         4.47834 
         2.2028         39.5177         4.44803 
        2.20893         39.4379         4.41799 
        2.21508         39.2806         4.38819 
        2.22122         39.0388         4.35866 
        2.22736          38.933         4.32946 
        2.23349         38.7613         4.30054 
        2.23962          38.458         4.27187 
        2.24577         38.3237         4.24344 
         2.2519         38.1452         4.21531 
        2.25802         38.0978         4.18747 
        2.26417         37.8601         4.15982 
        2.27031         37.7233         4.13238 
        2.27644         37.5277         4.10528 
        2.28257          37.401         4.07842 
        2.28872         37.1591         4.05175 
        2.29486         37.1102         4.02533 
        2.30099         36.9295         3.99919 
        2.30712           36.79         3.97328 
        2.31326         36.5708         3.94755 
         2.3194         36.4175         3.92207 
        2.32553         36.2864         3.89686 
        2.33166         36.1759         3.87188 
         2.3378         35.8878         3.84709 
        2.34394         35.8115          3.8225 
        2.35007          35.638         3.79817 
        2.35619         35.4924         3.77408 
        2.36233         35.3903         3.75014 
        2.36848          35.214         3.72636 
        2.37462         35.0284         3.70284 
        2.38075         34.9512         3.67954 
        2.38689         34.8274         3.65643 
        2.39303         34.6283         3.63352 
        2.39916         34.4151         3.61083 
        2.40529         34.2844         3.58833 
        2.41143         34.2153         3.56602 
        2.41757         34.0764         3.54388 
         2.4237          33.943         3.52197 
        2.42983         33.7279         3.50025 
        2.43598         33.5976         3.47866 
        2.44211         33.4529         3.45729 
        2.44823          33.349         3.43614 
        2.45437         33.1894         3.41511 
        2.46052         32.9817         3.39425 
        2.46665         32.9145         3.37359 
        2.47279         32.7768         3.35311 
        2.47892         32.6081         3.33279 
        2.48507         32.4885         3.31262 
         2.4912         32.3751         3.29266 
