# k  (h/Mpc)    Pcb(k)  (Mpc/h)^3    Pcb_linear(k)  (Mpc/h)^3
     0.00783031         445.084         447.938 
       0.013688         586.545         591.516 
       0.019231         634.326         636.558 
      0.0249154          625.13         625.734 
      0.0312784          577.08         577.975 
      0.0375637         518.382          519.49 
      0.0433917         469.635         469.113 
      0.0492413           427.4         427.846 
      0.0555754         394.711         393.977 
      0.0619321         366.014         368.052 
       0.067871         346.615         347.113 
      0.0738098         325.779         326.118 
      0.0800417         302.404         302.244 
      0.0862327         276.405         276.768 
      0.0921407          251.88         252.259 
      0.0982031         229.094         228.817 
       0.104506         207.317         207.944 
       0.110769         191.062         191.501 
       0.116806         179.949         179.474 
       0.122832         169.991         170.287 
       0.129052         162.581         162.444 
       0.135211         155.495         155.045 
       0.141259         147.234         147.284 
       0.147318         138.138         138.729 
       0.153489         129.355         129.454 
       0.159709         120.417         120.136 
       0.165845          111.13         111.633 
       0.171974         104.875          104.31 
       0.178125         98.8919          98.322 
       0.184229         93.7703         93.6181 
        0.19034         90.4855         89.8172 
       0.196428         87.0424         86.5101 
       0.202534         83.1735         83.2771 
       0.208729         80.2091         79.8076 
       0.214876         76.8509         76.0871 
       0.220989         72.2481         72.1966 
       0.227147         69.1649         68.2807 
        0.23329         65.6139         64.5979 
       0.239377         62.4801         61.3388 
       0.245482         59.5649         58.5352 
       0.251667         56.9233         56.1477 
       0.257832         55.3013         54.1207 
       0.263955         53.1583          52.315 
       0.270079         51.4232         50.5779 
        0.27624         49.3902         48.8026 
       0.282372         47.6347         46.9641 
        0.28843         46.2184          45.095 
       0.294538         44.2455         43.2117 
       0.300721         42.2054          41.379 
        0.30691         40.8591         39.6808 
       0.313033         39.2503         38.1698 
       0.319153         38.2792           36.83 
       0.325316         36.5936         35.6253 
        0.33145         35.4805         34.5276 
       0.337538         34.5319         33.4914 
       0.343633         33.5978         32.4699 
       0.349808         32.4864         31.4317 
       0.355968         31.4128         30.3893 
       0.362074         30.5723         29.3644 
       0.368217         29.5461         28.3613 
       0.374374         28.8218         27.4065 
       0.380519         27.6774         26.5176 
       0.386598         26.8094         25.7057 
       0.392688         26.0328         24.9553 
        0.39888         25.4311         24.2426 
       0.405048         24.7877          23.569 
       0.411186         24.1052         22.9202 
       0.417313         23.4726         22.2835 
       0.423458         22.7383         21.6537 
       0.429607         22.2819         21.0333 
       0.435692         21.7621         20.4341 
       0.441815         21.0207         19.8531 
       0.447964          20.386         19.2968 
       0.454126         19.9877         18.7686 
       0.460267         19.6567         18.2719 
       0.466387         19.0863         17.8031 
        0.47254         18.7103         17.3525 
       0.478662         18.2107         16.9203 
       0.484765         17.8016          16.502 
       0.490885           17.32         16.0923 
       0.497035         16.8865         15.6892 
       0.503198         16.5434         15.2957 
       0.509342         16.0984         14.9154 
       0.515458         15.8248         14.5501 
       0.521598         15.4655         14.1973 
       0.527764         15.2099         13.8577 
       0.533884         14.7569         13.5349 
           0.54         14.4837         13.2248 
       0.546137         14.0892          12.924 
       0.552299         13.8361         12.6311 
       0.558452         13.5529          12.347 
       0.564573         13.3236         12.0719 
       0.570708         13.0316         11.8033 
       0.576825         12.7747         11.5425 
       0.582926         12.5011         11.2901 
       0.589034         12.2855         11.0453 
       0.595184         12.0947         10.8072 
       0.601379         11.7859         10.5754 
       0.607522         11.5695          10.353 
       0.613639         11.3042         10.1383 
       0.619772         11.1483         9.92929 
       0.625918         10.9207         9.72582 
       0.632068         10.7629         9.52782 
       0.638161         10.5511         9.33683 
         0.6443         10.3492         9.14936 
       0.650464         10.1199         8.96609 
       0.656582         10.0237         8.78909 
       0.662703         9.85842         8.61694 
       0.668861         9.60221         8.44872 
       0.675024         9.45615         8.28524 
       0.681124         9.41394         8.12802 
       0.687237         9.19625         7.97472 
       0.693381          8.9662         7.82471 
       0.699536         8.90342         7.67824 
       0.705665         8.74155         7.53605 
       0.711789         8.55706         7.39752 
       0.717957          8.4016         7.26149 
        0.72409         8.29851         7.12966 
       0.730186         8.21407         7.00196 
       0.736317         8.04299         6.87679 
       0.742472         7.93877          6.7543 
       0.748622         7.82098         6.63499 
        0.75476         7.64007         6.51886 
       0.760888         7.57128         6.40573 
       0.767043         7.39119         6.29486 
       0.773185         7.30849         6.18685 
       0.779291         7.26075         6.08199 
       0.785407         7.11701         5.97943 
       0.791564          7.0242         5.87861 
       0.797719         6.90036         5.78018 
       0.803834         6.81472         5.68466 
       0.809972         6.70336         5.59098 
       0.816124         6.61588         5.49925 
       0.822261          6.5278         5.40985 
       0.828378         6.42139         5.32274 
       0.834502         6.34488          5.2375 
       0.840667         6.27726         5.15359 
       0.846816         6.16608         5.07178 
       0.852925          6.0795         4.99228 
       0.859047         6.00259         4.91432 
       0.865192         5.92166         4.83779 
       0.871341         5.83942         4.76285 
       0.877463         5.75761         4.68985 
       0.883569         5.68856         4.61858 
       0.889708         5.61965         4.54844 
       0.895864         5.54665         4.47959 
       0.902008         5.45905         4.41232 
       0.908149          5.3958         4.34649 
       0.914301         5.34214         4.28191 
       0.920448         5.27089         4.21871 
       0.926574         5.23313         4.15702 
       0.932687         5.14766         4.09672 
       0.938823          5.0644          4.0374 
       0.944975         5.02131         3.97914 
       0.951105         4.93467         3.92224 
       0.957225         4.89229         3.86656 
       0.963368         4.84705         3.81179 
       0.969511         4.79124         3.75809 
       0.975621         4.72344         3.70571 
       0.981748         4.63928         3.65422 
       0.987916         4.59893         3.60338 
        0.99406         4.56916         3.55371 
        1.00019         4.51172         3.50509 
        1.00632         4.46901         3.45742 
        1.01246         4.40383         3.41058 
        1.01859         4.35617         3.36469 
        1.02471         4.28838         3.31971 
        1.03085         4.25704          3.2754 
        1.03698         4.21381           3.232 
        1.04314         4.17291         3.18921 
        1.04929         4.12199          3.1473 
        1.05541         4.06602         3.10632 
        1.06154         4.03661         3.06597 
        1.06769         4.00783         3.02629 
        1.07382         3.94558         2.98744 
        1.07993         3.89766         2.94937 
        1.08607         3.87001         2.91181 
        1.09222         3.81506         2.87487 
        1.09836         3.80108         2.83862 
        1.10449         3.72763         2.80304 
        1.11063          3.7009         2.76804 
        1.11677         3.67032         2.73365 
         1.1229         3.62051         2.69991 
        1.12903         3.60009         2.66672 
        1.13518         3.54764         2.63405 
        1.14131         3.51802         2.60196 
        1.14745         3.47937         2.57043 
        1.15359          3.4479         2.53942 
        1.15973         3.41283          2.5089 
        1.16584         3.37675         2.47904 
        1.17197          3.3407         2.44961 
        1.17811         3.30884         2.42058 
        1.18424         3.27651         2.39211 
        1.19038         3.24357         2.36402 
        1.19652         3.22327         2.33639 
        1.20267         3.19586         2.30921 
        1.20881         3.15699         2.28247 
        1.21495         3.13078         2.25619 
        1.22108         3.10482         2.23034 
         1.2272         3.06084         2.20496 
        1.23334         3.04836         2.17991 
        1.23949         3.01878          2.1552 
        1.24562         2.99074         2.13094 
        1.25174         2.96477          2.1071 
        1.25789         2.92943         2.08355 
        1.26402         2.89954          2.0604 
        1.27014         2.87427         2.03766 
        1.27628         2.85214          2.0152 
        1.28244         2.83182         1.99304 
        1.28858         2.80238         1.97124 
        1.29471         2.77032         1.94982 
        1.30084         2.75207         1.92874 
        1.30697         2.73403         1.90794 
        1.31312         2.70919         1.88742 
        1.31925         2.68555         1.86727 
        1.32537         2.66541         1.84743 
        1.33151         2.63664         1.82782 
        1.33765         2.61767          1.8085 
        1.34378         2.59319          1.7895 
        1.34992         2.57749         1.77076 
        1.35606         2.55241         1.75225 
         1.3622         2.53445         1.73404 
        1.36833         2.50809         1.71613 
        1.37445         2.48779         1.69849 
        1.38059          2.4682         1.68105 
        1.38675         2.44913          1.6638 
        1.39288         2.43162         1.64687 
        1.39901         2.40897         1.63019 
        1.40515         2.38796          1.6137 
         1.4113         2.37724         1.59744 
        1.41742         2.34936         1.58147 
        1.42355         2.32785          1.5657 
         1.4297         2.31948         1.55009 
        1.43585         2.29582          1.5347 
        1.44198         2.27986         1.51958 
        1.44809         2.26294         1.50469 
        1.45423         2.24798         1.48995 
        1.46036         2.22992         1.47544 
        1.46649         2.20249         1.46111 
        1.47263         2.19536         1.44696 
        1.47877         2.18418         1.43301 
        1.48491          2.1558         1.41922 
        1.49104         2.14648         1.40564 
        1.49718         2.12645         1.39223 
        1.50333         2.11278         1.37898 
        1.50947         2.09937         1.36592 
         1.5156         2.08241         1.35306 
        1.52172          2.0687         1.34036 
        1.52787         2.05133          1.3278 
          1.534          2.0404         1.31542 
        1.54013         2.02226          1.3032 
        1.54627         2.00721         1.29113 
        1.55241         1.98969          1.2792 
        1.55855         1.97916         1.26744 
        1.56467          1.9651         1.25586 
         1.5708         1.95041          1.2444 
        1.57695         1.93321         1.23306 
        1.58308         1.91727         1.22189 
        1.58922         1.91317         1.21085 
        1.59535         1.89174         1.19996 
         1.6015         1.87742         1.18918 
        1.60764         1.86814         1.17854 
        1.61376         1.85309         1.16806 
        1.61989         1.84305          1.1577 
        1.62604         1.82505         1.14744 
        1.63218         1.82075         1.13731 
        1.63831         1.80442         1.12733 
        1.64444         1.79148         1.11747 
        1.65059         1.78275          1.1077 
        1.65673         1.76707         1.09806 
        1.66285         1.75621         1.08856 
        1.66898         1.74722         1.07917 
        1.67512         1.72921         1.06988 
        1.68127         1.71721         1.06069 
         1.6874         1.71357         1.05162 
        1.69353         1.69731         1.04267 
        1.69967          1.6873          1.0338 
        1.70581         1.68036         1.02504 
        1.71193         1.66339         1.01641 
        1.71806         1.65397         1.00786 
        1.72421         1.64528        0.999399 
        1.73035         1.62831        0.991043 
        1.73649         1.62869        0.982784 
        1.74262         1.61261        0.974626 
        1.74876         1.60255        0.966556 
        1.75489          1.5941        0.958594 
        1.76101         1.57962        0.950725 
        1.76715         1.57208        0.942933 
        1.77329         1.56329         0.93522 
        1.77943         1.55348         0.92759 
        1.78557         1.54699        0.920057 
        1.79171         1.53695        0.912607 
        1.79785         1.52556        0.905238 
        1.80399          1.5147        0.897952 
        1.81012         1.50607        0.890756 
        1.81625         1.49576        0.883643 
        1.82239          1.4875        0.876597 
        1.82853         1.47911        0.869631 
        1.83466         1.46839        0.862748 
        1.84078         1.45858        0.855948 
        1.84692          1.4522        0.849209 
        1.85306         1.44629        0.842536 
         1.8592         1.43411        0.835944 
        1.86533         1.42783        0.829428 
        1.87147         1.41437        0.822973 
        1.87761         1.40974        0.816585 
        1.88375         1.40157        0.810272 
        1.88988         1.39218        0.804033 
        1.89601          1.3841        0.797856 
        1.90215         1.37741         0.79174 
        1.90829         1.36922        0.785691 
        1.91442         1.36064        0.779705 
        1.92056         1.35624        0.773787 
         1.9267         1.34673        0.767924 
        1.93284          1.3374        0.762119 
        1.93897          1.3301        0.756386 
        1.94509         1.32523        0.750723 
        1.95123         1.31396        0.745105 
        1.95737         1.30792         0.73954 
        1.96349         1.30069        0.734047 
        1.96964         1.29498        0.728593 
        1.97578         1.28383        0.723193 
        1.98192         1.27801        0.717858 
        1.98805         1.27217        0.712577 
        1.99419         1.26554        0.707349 
        2.00033         1.25912        0.702172 
        2.00647         1.25179        0.697047 
         2.0126         1.24691        0.691983 
        2.01874         1.23894        0.686961 
        2.02488         1.22998        0.681985 
        2.03101         1.22477        0.677067 
        2.03714         1.21956        0.672203 
        2.04328         1.21057        0.667382 
        2.04941         1.20408        0.662611 
        2.05554         1.19904        0.657891 
        2.06167          1.1926        0.653211 
        2.06781         1.18326        0.648576 
        2.07396           1.181        0.643979 
        2.08009         1.17295        0.639435 
        2.08622         1.16754         0.63494 
        2.09237         1.16121         0.63048 
        2.09851          1.1541        0.626061 
        2.10464         1.15111        0.621693 
        2.11077         1.14176        0.617372 
        2.11691         1.13723        0.613082 
        2.12305         1.13331        0.608833 
        2.12918         1.12482        0.604634 
        2.13531         1.11967        0.600475 
        2.14145         1.11365        0.596346 
         2.1476         1.11038        0.592251 
        2.15372         1.10214        0.588214 
        2.15985         1.09705        0.584212 
        2.16599         1.09328        0.580235 
        2.17213         1.08685          0.5763 
        2.17827         1.07935        0.572403 
         2.1844          1.0766        0.568545 
        2.19054         1.07084        0.564721 
        2.19666         1.06628        0.560938 
         2.2028          1.0592        0.557187 
        2.20893          1.0547        0.553468 
        2.21508         1.04962        0.549779 
        2.22122         1.04693        0.546122 
        2.22736         1.03679        0.542507 
        2.23349         1.03307        0.538925 
        2.23962          1.0294        0.535374 
        2.24577          1.0239        0.531851 
         2.2519          1.0189        0.528366 
        2.25802         1.01628        0.524917 
        2.26417          1.0085        0.521489 
        2.27031         1.00483        0.518089 
        2.27644         1.00177        0.514729 
        2.28257        0.994004          0.5114 
        2.28872        0.992315        0.508093 
        2.29486        0.985344        0.504817 
        2.30099        0.981893        0.501576 
        2.30712         0.97735        0.498362 
        2.31326        0.972901        0.495171 
         2.3194        0.969332         0.49201 
        2.32553         0.96366        0.488882 
        2.33166        0.960115        0.485783 
         2.3378        0.954959        0.482706 
        2.34394        0.950566        0.479655 
        2.35007        0.944364        0.476635 
        2.35619        0.939999        0.473644 
        2.36233        0.935826        0.470672 
        2.36848        0.933731         0.46772 
        2.37462        0.930468        0.464799 
        2.38075        0.923734        0.461906 
        2.38689        0.921124        0.459036 
        2.39303        0.916202         0.45619 
        2.39916        0.912105        0.453372 
        2.40529        0.910515        0.450577 
        2.41143        0.902918        0.447804 
        2.41757        0.901075        0.445054 
         2.4237        0.896098        0.442331 
        2.42983        0.892016        0.439632 
        2.43598        0.889083        0.436948 
        2.44211        0.883383        0.434291 
        2.44823        0.881432        0.431662 
        2.45437        0.877382        0.429047 
        2.46052        0.873906        0.426452 
        2.46665        0.869737        0.423884 
        2.47279        0.865566        0.421337 
        2.47892        0.862267        0.418809 
        2.48507        0.859595          0.4163 
         2.4912        0.854867        0.413817 
