# k  (h/Mpc)    Pcb(k)  (Mpc/h)^3    Pcb_linear(k)  (Mpc/h)^3
     0.00783031         16198.2         16436.2 
       0.013688         20083.6           19900 
       0.019231         19723.8         19678.5 
      0.0249154         17320.7         17684.9 
      0.0312784         14671.8           14821 
      0.0375637         12312.8         12288.4 
      0.0433917         10384.7         10543.7 
      0.0492413          9326.1         9369.85 
      0.0555754         8313.62         8561.25 
      0.0619321         7998.25         7975.59 
       0.067871         7238.45         7435.22 
      0.0738098          6630.2         6801.98 
      0.0800417         5839.43         6040.05 
      0.0862327         5182.04         5264.79 
      0.0921407         4640.48         4600.25 
      0.0982031         4087.86         4058.99 
       0.104506         3818.89          3665.7 
       0.110769         3547.92         3418.83 
       0.116806         3365.82         3264.79 
       0.122832         3225.28         3136.37 
       0.129052         2996.75         2982.76 
       0.135211         2820.67         2787.01 
       0.141259         2665.94         2558.73 
       0.147318         2474.68         2319.28 
       0.153489         2242.23          2094.6 
       0.159709         2104.13         1910.34 
       0.165845         2017.68         1777.71 
       0.171974         1913.52         1687.93 
       0.178125         1828.88         1625.49 
       0.184229         1755.83         1572.78 
        0.19034         1658.97         1513.94 
       0.196428         1619.87         1441.23 
       0.202534         1552.15         1354.68 
       0.208729         1469.49         1260.32 
       0.214876         1398.74         1170.16 
       0.220989         1344.75         1092.18 
       0.227147         1286.09         1029.55 
        0.23329         1234.75         982.526 
       0.239377         1213.65         947.177 
       0.245482         1137.45         917.204 
       0.251667          1131.1         886.835 
       0.257832         1085.39          852.92 
       0.263955         1048.22         814.689 
       0.270079         1008.53         773.485 
        0.27624         995.332         732.079 
       0.282372         953.493         693.884 
        0.28843         941.357         661.171 
       0.294538         893.011          633.73 
       0.300721         888.112         610.881 
        0.30691         851.785         591.184 
       0.313033         834.988         572.909 
       0.319153         816.523         554.274 
       0.325316         790.894         534.407 
        0.33145         770.856         513.589 
       0.337538         757.292         492.676 
       0.343633         737.868          472.42 
       0.349808         711.418         453.516 
       0.355968         706.404         436.678 
       0.362074         697.927         422.029 
       0.368217         676.561         408.891 
       0.374374         648.732         396.714 
       0.380519         648.615         384.982 
       0.386598         630.118          373.32 
       0.392688         627.593         361.488 
        0.39888         608.843         349.396 
       0.405048         599.026         337.539 
       0.411186         590.311         326.269 
       0.417313         578.081         315.763 
       0.423458         566.803         306.036 
       0.429607         559.232         297.098 
       0.435692         545.945         288.859 
       0.441815          540.93          280.95 
       0.447964         529.712         273.238 
       0.454126         521.891         265.632 
       0.460267          510.28         258.118 
       0.466387         504.336          250.75 
        0.47254         497.874          243.57 
       0.478662         494.649         236.725 
       0.484765         477.947         230.237 
       0.490885         474.309         224.092 
       0.497035         465.073         218.268 
       0.503198         460.672         212.707 
       0.509342          456.97          207.36 
       0.515458         452.745         202.184 
       0.521598         440.893         197.118 
       0.527764         433.989          192.15 
       0.533884         431.475         187.339 
           0.54          425.78         182.673 
       0.546137         423.443          178.16 
       0.552299         415.852         173.821 
       0.558452         413.509         169.676 
       0.564573         407.911         165.713 
       0.570708         401.615         161.879 
       0.576825         392.187         158.177 
       0.582926         391.536         154.594 
       0.589034         387.959         151.107 
       0.595184         384.693         147.693 
       0.601379         378.421         144.348 
       0.607522         373.319         141.125 
       0.613639         372.041         138.014 
       0.619772         364.189         134.996 
       0.625918         362.763         132.077 
       0.632068         356.882         129.255 
       0.638161         355.444         126.548 
         0.6443         349.646         123.901 
       0.650464         346.859         121.316 
       0.656582         343.827         118.817 
       0.662703         343.088         116.382 
       0.668861         337.237         113.999 
       0.675024         333.997          111.68 
       0.681124         331.328         109.451 
       0.687237         328.218         107.282 
       0.693381         323.428         105.166 
       0.699536         319.786         103.106 
       0.705665         317.632         101.111 
       0.711789         316.176         99.1714 
       0.717957         313.584         97.2685 
        0.72409         311.038          95.425 
       0.730186         306.987         93.6395 
       0.736317         304.191         91.8894 
       0.742472         302.368         90.1775 
       0.748622         299.476          88.511 
        0.75476         296.049         86.8909 
       0.760888         292.984         85.3148 
       0.767043         293.177         83.7724 
       0.773185         289.771         82.2721 
       0.779291         285.332         80.8177 
       0.785407         284.726         79.3968 
       0.791564         281.212         78.0014 
       0.797719           278.8         76.6404 
       0.803834         276.238         75.3205 
       0.809972         275.602         74.0269 
       0.816124         274.681          72.761 
       0.822261         271.459         71.5281 
       0.828378         269.089         70.3276 
       0.834502         266.978         69.1537 
       0.840667         264.682         67.9993 
       0.846816         263.166         66.8746 
       0.852925         261.654         65.7827 
       0.859047         259.502         64.7131 
       0.865192         256.306          63.664 
       0.871341         254.412         62.6376 
       0.877463         253.579         61.6388 
       0.883569         252.158         60.6644 
       0.889708         249.317         59.7062 
       0.895864         247.591         58.7664 
       0.902008         245.811          57.849 
       0.908149         244.248         56.9518 
       0.914301         241.433         56.0723 
       0.920448         240.184         55.2123 
       0.926574         237.749         54.3735 
       0.932687          237.89         53.5539 
       0.938823         235.086         52.7485 
       0.944975          234.18         51.9578 
       0.951105         232.568         51.1862 
       0.957225         230.963         50.4318 
       0.963368         227.819           49.69 
       0.969511         227.058         48.9632 
       0.975621         224.971         48.2549 
       0.981748         224.665         47.5589 
       0.987916         222.931         46.8723 
        0.99406          220.27         46.2019 
        1.00019         219.863         45.5459 
        1.00632         218.354         44.9034 
        1.01246         216.595         44.2724 
        1.01859         216.808         43.6546 
        1.02471         213.279         43.0494 
        1.03085         211.946         42.4536 
        1.03698         210.992         41.8704 
        1.04314         208.956         41.2957 
        1.04929         207.817         40.7332 
        1.05541         208.026         40.1835 
        1.06154         205.016         39.6427 
        1.06769         204.723          39.111 
        1.07382             203         38.5908 
        1.07993         201.576         38.0814 
        1.08607         201.127         37.5791 
        1.09222         199.504         37.0854 
        1.09836          198.01         36.6012 
        1.10449         196.022         36.1262 
        1.11063         194.528         35.6592 
        1.11677         194.079         35.2007 
         1.1229          192.49          34.751 
        1.12903         191.717         34.3089 
        1.13518         190.397         33.8741 
        1.14131         188.769         33.4471 
        1.14745          188.77         33.0278 
        1.15359         187.051         32.6156 
        1.15973         185.551         32.2103 
        1.16584         184.386         31.8137 
        1.17197          184.19         31.4233 
        1.17811         182.097         31.0382 
        1.18424         181.247         30.6608 
        1.19038         180.795         30.2885 
        1.19652         179.179         29.9226 
        1.20267         178.711         29.5627 
        1.20881         177.188         29.2088 
        1.21495         176.122         28.8613 
        1.22108         174.991         28.5196 
         1.2272         173.767         28.1841 
        1.23334         173.343         27.8534 
        1.23949         171.742         27.5271 
        1.24562         170.989         27.2071 
        1.25174         169.965         26.8926 
        1.25789         168.802         26.5821 
        1.26402         167.291         26.2771 
        1.27014         166.179         25.9776 
        1.27628         165.685          25.682 
        1.28244         165.506         25.3903 
        1.28858         163.701         25.1036 
        1.29471          162.51          24.822 
        1.30084          162.08          24.545 
        1.30697         160.517         24.2718 
        1.31312         159.606         24.0024 
        1.31925         158.767         23.7379 
        1.32537         158.306         23.4777 
        1.33151         156.773         23.2204 
        1.33765         155.808         22.9672 
        1.34378         155.314         22.7183 
        1.34992         154.578         22.4729 
        1.35606         154.371         22.2306 
         1.3622         152.688         21.9924 
        1.36833         151.431         21.7582 
        1.37445         150.928         21.5275 
        1.38059         149.728         21.2995 
        1.38675         149.241         21.0742 
        1.39288         148.449         20.8531 
        1.39901         148.119         20.6353 
        1.40515         146.409         20.4201 
         1.4113          145.86         20.2081 
        1.41742         144.743         19.9999 
        1.42355          144.13         19.7943 
         1.4297         143.215         19.5909 
        1.43585         142.448         19.3905 
        1.44198         141.734         19.1937 
        1.44809           141.1         18.9999 
        1.45423         140.427         18.8082 
        1.46036          139.26         18.6194 
        1.46649         138.369         18.4331 
        1.47263         137.594         18.2493 
        1.47877         136.809          18.068 
        1.48491         135.544          17.889 
        1.49104         135.563         17.7127 
        1.49718         134.318         17.5387 
        1.50333         133.675         17.3667 
        1.50947         133.018         17.1974 
         1.5156         132.305         17.0306 
        1.52172         131.527         16.8661 
        1.52787          130.51         16.7033 
          1.534         130.096          16.543 
        1.54013         129.363         16.3849 
        1.54627         128.647         16.2285 
        1.55241         127.741         16.0743 
        1.55855         127.001         15.9222 
        1.56467         126.299         15.7725 
         1.5708          125.42         15.6243 
        1.57695         125.081         15.4778 
        1.58308         124.426         15.3336 
        1.58922         123.925          15.191 
        1.59535         122.956         15.0504 
         1.6015         122.556         14.9113 
        1.60764         121.844         14.7741 
        1.61376          121.03         14.6389 
        1.61989         120.327         14.5054 
        1.62604         119.476         14.3732 
        1.63218         119.332         14.2428 
        1.63831         118.369         14.1142 
        1.64444         117.779         13.9872 
        1.65059         117.216         13.8615 
        1.65673         116.287         13.7375 
        1.66285          115.94         13.6153 
        1.66898         115.227         13.4946 
        1.67512          114.74         13.3751 
        1.68127         113.973          13.257 
         1.6874         113.131         13.1405 
        1.69353         112.877         13.0255 
        1.69967         112.267         12.9116 
        1.70581         111.484         12.7991 
        1.71193         110.945         12.6884 
        1.71806         110.456         12.5788 
        1.72421         109.747         12.4702 
        1.73035          109.53         12.3631 
        1.73649         108.736         12.2572 
        1.74262         107.986         12.1527 
        1.74876         107.663         12.0493 
        1.75489         106.836         11.9473 
        1.76101         106.142         11.8465 
        1.76715         105.732         11.7468 
        1.77329         105.372         11.6481 
        1.77943         104.515         11.5505 
        1.78557         104.216         11.4541 
        1.79171         103.303         11.3588 
        1.79785         102.847         11.2646 
        1.80399         102.196         11.1715 
        1.81012         101.792         11.0796 
        1.81625         101.328         10.9887 
        1.82239         100.894         10.8987 
        1.82853         100.153         10.8098 
        1.83466         99.5779          10.722 
        1.84078         99.1703         10.6352 
        1.84692         98.4564         10.5492 
        1.85306         98.1513         10.4641 
         1.8592         97.5957         10.3801 
        1.86533         96.8606          10.297 
        1.87147         96.4623         10.2148 
        1.87761           95.86         10.1334 
        1.88375         95.2864          10.053 
        1.88988         94.9405         9.97352 
        1.89601         94.3215         9.89489 
        1.90215         93.7839         9.81705 
        1.90829         93.4124         9.74008 
        1.91442         92.9529         9.66393 
        1.92056         92.2708         9.58866 
         1.9267         92.0258         9.51412 
        1.93284         91.4696         9.44033 
        1.93897         90.9562         9.36746 
        1.94509         90.5819         9.29552 
        1.95123         90.0485         9.22415 
        1.95737         89.5198         9.15348 
        1.96349         89.0491         9.08373 
        1.96964         88.3654          9.0145 
        1.97578         87.9968         8.94597 
        1.98192         87.8682         8.87829 
        1.98805          87.138          8.8113 
        1.99419         86.8513           8.745 
        2.00033         86.3211         8.67934 
        2.00647          85.959         8.61439 
         2.0126         85.4358          8.5502 
        2.01874         84.8006         8.48657 
        2.02488          84.578         8.42353 
        2.03101         83.9145         8.36126 
        2.03714          83.389         8.29966 
        2.04328         83.1605         8.23862 
        2.04941         82.7197         8.17825 
        2.05554         82.2811         8.11852 
        2.06167         81.8904         8.05931 
        2.06781         81.3015         8.00068 
        2.07396         80.9926         7.94255 
        2.08009          80.708          7.8851 
        2.08622         80.1421         7.82828 
        2.09237         79.8032         7.77192 
        2.09851         79.4273         7.71609 
        2.10464         78.9441         7.66091 
        2.11077         78.6008         7.60633 
        2.11691         78.2597         7.55217 
        2.12305         77.6654         7.49853 
        2.12918         77.2718         7.44553 
        2.13531         76.9746         7.39305 
        2.14145          76.373         7.34095 
         2.1476         75.9744         7.28929 
        2.15372         75.7613         7.23839 
        2.15985         75.3295         7.18792 
        2.16599         74.8568         7.13779 
        2.17213         74.5522          7.0882 
        2.17827         74.1291         7.03908 
         2.1844         73.7161         6.99048 
        2.19054          73.523         6.94232 
        2.19666         73.0705         6.89467 
         2.2028         72.7889         6.84744 
        2.20893         72.3054         6.80062 
        2.21508         71.9645         6.75419 
        2.22122         71.5618         6.70818 
        2.22736         71.2444         6.66269 
        2.23349         70.8269         6.61764 
        2.23962         70.5381         6.57297 
        2.24577         70.2004         6.52868 
         2.2519         69.8618         6.48486 
        2.25802         69.4984         6.44152 
        2.26417         69.0781         6.39844 
        2.27031          68.799         6.35573 
        2.27644         68.3316         6.31352 
        2.28257         68.0131          6.2717 
        2.28872         67.7446         6.23018 
        2.29486         67.2285         6.18905 
        2.30099         66.7773         6.14837 
        2.30712          66.676         6.10804 
        2.31326         66.3283           6.068 
         2.3194         65.9902         6.02834 
        2.32553         65.6563         5.98911 
        2.33166         65.3506         5.95024 
         2.3378          64.902         5.91166 
        2.34394         64.5718         5.87341 
        2.35007         64.3141         5.83556 
        2.35619          64.023         5.79808 
        2.36233         63.6677         5.76085 
        2.36848         63.3822         5.72386 
        2.37462         62.9133         5.68728 
        2.38075         62.7879         5.65105 
        2.38689         62.3902         5.61511 
        2.39303         62.0124         5.57949 
        2.39916         61.7342         5.54421 
        2.40529         61.5916         5.50924 
        2.41143         61.1184         5.47455 
        2.41757         60.8623         5.44014 
         2.4237         60.5903         5.40609 
        2.42983         60.2628         5.37233 
        2.43598         59.9053         5.33877 
        2.44211         59.6582         5.30556 
        2.44823         59.3659          5.2727 
        2.45437         58.9771         5.24002 
        2.46052         58.7944          5.2076 
        2.46665         58.5396         5.17551 
        2.47279         58.1086          5.1437 
        2.47892         57.9392         5.11214 
        2.48507         57.5683         5.08081 
         2.4912          57.281          5.0498 
