# k  (h/Mpc)    Pcb(k)  (Mpc/h)^3    Pcb_linear(k)  (Mpc/h)^3
     0.00783031         5081.65         5141.05 
       0.013688         6237.03         6217.94 
       0.019231         6157.45         6147.59 
      0.0249154         5466.68         5524.51 
      0.0312784         4617.02         4629.79 
      0.0375637         3853.93         3838.64 
      0.0433917         3277.42         3293.62 
      0.0492413         2928.59         2926.95 
      0.0555754         2642.13         2674.37 
      0.0619321         2507.66         2491.43 
       0.067871         2299.78         2322.63 
      0.0738098         2103.65         2124.82 
      0.0800417         1859.24         1886.81 
      0.0862327         1636.05         1644.63 
      0.0921407         1444.06         1437.04 
      0.0982031         1269.33         1267.96 
       0.104506         1168.57         1145.11 
       0.110769         1086.98         1067.99 
       0.116806         1028.61         1019.87 
       0.122832         992.134         979.757 
       0.129052         931.128         931.769 
       0.135211         872.441          870.62 
       0.141259         812.732         799.309 
       0.147318          745.22         724.509 
       0.153489         672.177         654.323 
       0.159709         621.142         596.762 
       0.165845         587.507         555.331 
       0.171974         553.084         527.285 
       0.178125         532.674         507.779 
       0.184229         515.473         491.314 
        0.19034         485.647         472.934 
       0.196428         471.476         450.221 
       0.202534         450.822         423.183 
       0.208729         420.558         393.707 
       0.214876         391.699         365.543 
       0.220989         373.536         341.183 
       0.227147         351.136         321.618 
        0.23329         336.371         306.928 
       0.239377         327.851         295.886 
       0.245482          309.22         286.522 
       0.251667         304.984         277.035 
       0.257832         294.329         266.441 
       0.263955         282.308         254.498 
       0.270079         269.903         241.627 
        0.27624         262.485         228.692 
       0.282372           250.9          216.76 
        0.28843          240.38         206.541 
       0.294538         229.878         197.969 
       0.300721         226.366         190.831 
        0.30691         216.333         184.678 
       0.313033          210.94         178.969 
       0.319153         202.009         173.148 
       0.325316         197.655         166.942 
        0.33145         190.158         160.438 
       0.337538          186.27         153.906 
       0.343633         179.323         147.578 
       0.349808         173.399         141.673 
       0.355968         169.596         136.412 
       0.362074         164.569         131.836 
       0.368217         159.938         127.732 
       0.374374         155.064         123.928 
       0.380519         151.896         120.263 
       0.386598         147.785          116.62 
       0.392688         145.153         112.924 
        0.39888         141.138         109.147 
       0.405048         137.553         105.443 
       0.411186         134.333         101.922 
       0.417313         130.825         98.6403 
       0.423458         127.812         95.6016 
       0.429607         124.655         92.8095 
       0.435692         120.541         90.2359 
       0.441815         119.484         87.7653 
       0.447964         117.374         85.3561 
       0.454126         112.154         82.9801 
       0.460267          110.81         80.6327 
       0.466387         108.732         78.3312 
        0.47254         106.573         76.0882 
       0.478662         105.236         73.9499 
       0.484765         102.107         71.9231 
       0.490885         100.227         70.0036 
       0.497035         98.9462          68.184 
       0.503198         96.1414          66.447 
       0.509342         94.1246         64.7766 
       0.515458         92.6552         63.1598 
       0.521598         91.2802         61.5771 
       0.527764         89.7783         60.0253 
       0.533884          88.315         58.5223 
           0.54         86.4959         57.0648 
       0.546137         85.5946         55.6548 
       0.552299         84.2331         54.2994 
       0.558452         82.1178         53.0045 
       0.564573         80.6353         51.7665 
       0.570708         79.5556          50.569 
       0.576825         78.2997         49.4125 
       0.582926         76.6722          48.293 
       0.589034         75.1909          47.204 
       0.595184         74.2423         46.1375 
       0.601379         73.2285         45.0924 
       0.607522         71.4661         44.0857 
       0.613639         71.2459         43.1138 
       0.619772         69.5689         42.1712 
       0.625918         68.9011         41.2593 
       0.632068         68.0177         40.3777 
       0.638161         67.0417          39.532 
         0.6443         66.0403         38.7051 
       0.650464         65.1227         37.8976 
       0.656582         64.3456          37.117 
       0.662703         63.0756         36.3563 
       0.668861         62.3064         35.6118 
       0.675024         61.5105         34.8874 
       0.681124         60.5772         34.1911 
       0.687237         59.5057         33.5137 
       0.693381         58.9726         32.8526 
       0.699536         57.9743          32.209 
       0.705665         58.1951         31.5859 
       0.711789         56.6063         30.9799 
       0.717957         56.0928         30.3855 
        0.72409         55.3359         29.8096 
       0.730186         54.4315         29.2518 
       0.736317         54.2154         28.7051 
       0.742472         53.4034         28.1703 
       0.748622          52.872         27.6497 
        0.75476         52.2324         27.1436 
       0.760888         51.4335         26.6513 
       0.767043         50.8884         26.1694 
       0.773185         50.2271         25.7008 
       0.779291         49.9613         25.2464 
       0.785407         49.4602         24.8026 
       0.791564          48.728         24.3667 
       0.797719          47.878         23.9415 
       0.803834         47.7469         23.5292 
       0.809972         46.9595         23.1251 
       0.816124         46.3818         22.7296 
       0.822261         46.0289         22.3445 
       0.828378          45.714         21.9695 
       0.834502         45.1486         21.6028 
       0.840667         44.7151         21.2421 
       0.846816         44.0582         20.8908 
       0.852925         43.6971         20.5497 
       0.859047          43.123         20.2156 
       0.865192         42.8084         19.8878 
       0.871341         42.6336         19.5672 
       0.877463         41.7619         19.2552 
       0.883569         41.4581         18.9508 
       0.889708         41.1867         18.6515 
       0.895864         40.7801         18.3579 
       0.902008         40.4077         18.0713 
       0.908149         40.0479          17.791 
       0.914301         39.8244         17.5163 
       0.920448         39.2833         17.2476 
       0.926574         38.9333         16.9856 
       0.932687         38.6021         16.7296 
       0.938823         38.0263          16.478 
       0.944975         37.9046          16.231 
       0.951105         37.5217         15.9899 
       0.957225         37.0507         15.7543 
       0.963368         37.0227         15.5225 
       0.969511         36.6576         15.2955 
       0.975621          36.348         15.0742 
       0.981748         35.8759         14.8568 
       0.987916         35.6779         14.6423 
        0.99406         35.4102         14.4329 
        1.00019          34.979          14.228 
        1.00632         34.7863         14.0273 
        1.01246         34.5722         13.8301 
        1.01859         34.0557         13.6371 
        1.02471         34.0598         13.4481 
        1.03085         33.7261          13.262 
        1.03698         33.2786         13.0798 
        1.04314         33.0322         12.9003 
        1.04929         32.8114         12.7246 
        1.05541         32.4562         12.5528 
        1.06154         32.3809         12.3839 
        1.06769         32.0974         12.2178 
        1.07382         31.8462         12.0553 
        1.07993         31.7078         11.8962 
        1.08607         31.2958         11.7392 
        1.09222         31.1954          11.585 
        1.09836         30.8932         11.4338 
        1.10449         30.6694         11.2854 
        1.11063         30.2844         11.1395 
        1.11677          30.171         10.9963 
         1.1229         30.0426         10.8558 
        1.12903         29.6314         10.7177 
        1.13518         29.5479         10.5819 
        1.14131          29.432         10.4485 
        1.14745         29.0814         10.3175 
        1.15359         29.0311         10.1887 
        1.15973         28.6799         10.0621 
        1.16584         28.4303         9.93821 
        1.17197         28.4274         9.81625 
        1.17811           28.08         9.69596 
        1.18424          27.843         9.57804 
        1.19038         27.7977         9.46175 
        1.19652         27.6368         9.34744 
        1.20267          27.431         9.23502 
        1.20881         27.1894         9.12448 
        1.21495         27.0137         9.01592 
        1.22108         26.8427         8.90916 
         1.2272         26.5544         8.80438 
        1.23334         26.4793         8.70105 
        1.23949         26.3251         8.59914 
        1.24562           26.15         8.49915 
        1.25174         26.0309          8.4009 
        1.25789         25.8136         8.30391 
        1.26402         25.6832         8.20864 
        1.27014         25.4063         8.11509 
        1.27628         25.2871         8.02272 
        1.28244         25.1645         7.93162 
        1.28858         25.0583         7.84206 
        1.29471          24.893         7.75409 
        1.30084         24.7326         7.66755 
        1.30697         24.5493         7.58221 
        1.31312         24.3225         7.49804 
        1.31925         24.2387         7.41542 
        1.32537         24.1381         7.33414 
        1.33151         23.9427         7.25378 
        1.33765         23.8856         7.17468 
        1.34378         23.7331         7.09692 
        1.34992          23.447         7.02026 
        1.35606         23.3762         6.94457 
         1.3622         23.2391         6.87014 
        1.36833         23.0877         6.79698 
        1.37445         23.0851         6.72492 
        1.38059         22.8851         6.65369 
        1.38675         22.6408         6.58333 
        1.39288         22.6221         6.51426 
        1.39901          22.428         6.44622 
        1.40515         22.3476           6.379 
         1.4113         22.2164         6.31277 
        1.41742         21.9995         6.24773 
        1.42355         21.9767         6.18349 
         1.4297         21.8438         6.11997 
        1.43585         21.7861         6.05736 
        1.44198         21.5697         5.99587 
        1.44809         21.4703         5.93535 
        1.45423         21.3827         5.87544 
        1.46036         21.3102         5.81647 
        1.46649          21.156         5.75829 
        1.47263         21.0138         5.70086 
        1.47877         20.9336         5.64423 
        1.48491         20.8338         5.58829 
        1.49104         20.7664         5.53323 
        1.49718         20.5669         5.47887 
        1.50333          20.522         5.42515 
        1.50947         20.4309         5.37226 
         1.5156          20.264         5.32016 
        1.52172         20.1304         5.26875 
        1.52787         20.1309         5.21792 
          1.534         19.9501         5.16782 
        1.54013         19.7945         5.11843 
        1.54627         19.7543          5.0696 
        1.55241         19.6298          5.0214 
        1.55855         19.5143          4.9739 
        1.56467         19.4357         4.92714 
         1.5708         19.3855         4.88085 
        1.57695         19.1894         4.83509 
        1.58308         19.2189         4.79002 
        1.58922         19.0715          4.7455 
        1.59535         18.9527         4.70156 
         1.6015         18.8625         4.65811 
        1.60764          18.821         4.61524 
        1.61376          18.674         4.57303 
        1.61989         18.5412         4.53131 
        1.62604          18.532         4.49001 
        1.63218         18.4024         4.44926 
        1.63831         18.3642         4.40911 
        1.64444         18.2095         4.36945 
        1.65059         18.1252         4.33017 
        1.65673         18.0578         4.29142 
        1.66285         17.9611         4.25326 
        1.66898         17.9121         4.21555 
        1.67512         17.8392         4.17822 
        1.68127         17.7216         4.14131 
         1.6874         17.6266         4.10493 
        1.69353         17.5669         4.06901 
        1.69967         17.4449         4.03343 
        1.70581         17.3856          3.9983 
        1.71193         17.2993         3.96371 
        1.71806         17.2151         3.92946 
        1.72421         17.1368         3.89555 
        1.73035         17.0568         3.86208 
        1.73649         16.9905         3.82901 
        1.74262         16.9503         3.79635 
        1.74876         16.8571         3.76405 
        1.75489         16.7706         3.73219 
        1.76101         16.6874         3.70072 
        1.76715         16.6422         3.66956 
        1.77329         16.5531         3.63872 
        1.77943         16.4557         3.60823 
        1.78557         16.4156         3.57813 
        1.79171         16.3556         3.54837 
        1.79785         16.2216         3.51894 
        1.80399         16.1627         3.48985 
        1.81012         16.1515         3.46113 
        1.81625         16.0432         3.43274 
        1.82239         16.0202         3.40464 
        1.82853         15.8744         3.37686 
        1.83466         15.7895         3.34942 
        1.84078         15.7074         3.32231 
        1.84692         15.7083         3.29546 
        1.85306         15.6066         3.26887 
         1.8592         15.5467         3.24261 
        1.86533         15.4932         3.21667 
        1.87147         15.4139         3.19097 
        1.87761         15.3844         3.16555 
        1.88375         15.2776         3.14043 
        1.88988         15.2315         3.11561 
        1.89601         15.1473         3.09105 
        1.90215         15.0843         3.06673 
        1.90829         15.0486         3.04268 
        1.91442         14.9825          3.0189 
        1.92056         14.9137         2.99538 
         1.9267         14.8503          2.9721 
        1.93284         14.7673         2.94905 
        1.93897         14.7127         2.92628 
        1.94509         14.6529         2.90381 
        1.95123          14.585         2.88151 
        1.95737         14.5432         2.85944 
        1.96349         14.4736         2.83765 
        1.96964          14.407         2.81602 
        1.97578         14.3596         2.79461 
        1.98192         14.2745         2.77347 
        1.98805         14.2455         2.75255 
        1.99419          14.163         2.73183 
        2.00033         14.0991         2.71132 
        2.00647         14.0547         2.69103 
         2.0126         13.9876         2.67098 
        2.01874         13.9173          2.6511 
        2.02488         13.8709         2.63141 
        2.03101         13.8466         2.61196 
        2.03714         13.7915         2.59272 
        2.04328         13.7035         2.57365 
        2.04941         13.6306         2.55479 
        2.05554         13.6366         2.53613 
        2.06167         13.5578         2.51763 
        2.06781         13.5189         2.49932 
        2.07396         13.4736         2.48116 
        2.08009         13.4117         2.46321 
        2.08622         13.3195         2.44546 
        2.09237         13.2906         2.42785 
        2.09851         13.2456         2.41042 
        2.10464         13.1844         2.39318 
        2.11077         13.1142         2.37613 
        2.11691         13.0879         2.35921 
        2.12305         13.0331         2.34245 
        2.12918         12.9633          2.3259 
        2.13531         12.9385          2.3095 
        2.14145          12.857         2.29323 
         2.1476         12.8452         2.27709 
        2.15372         12.7882         2.26119 
        2.15985         12.7084         2.24542 
        2.16599         12.6868         2.22976 
        2.17213         12.6368         2.21427 
        2.17827         12.6021         2.19893 
         2.1844         12.5429         2.18374 
        2.19054         12.4772          2.1687 
        2.19666         12.4681         2.15382 
         2.2028          12.418         2.13906 
        2.20893          12.355         2.12444 
        2.21508         12.2878         2.10993 
        2.22122         12.2436         2.09556 
        2.22736         12.2079         2.08135 
        2.23349         12.1472         2.06727 
        2.23962         12.0987         2.05332 
        2.24577         12.0499         2.03948 
         2.2519         12.0457          2.0258 
        2.25802         11.9894         2.01225 
        2.26417         11.9552          1.9988 
        2.27031          11.882         1.98545 
        2.27644          11.847         1.97227 
        2.28257         11.7986         1.95921 
        2.28872         11.7599         1.94624 
        2.29486         11.7296         1.93339 
        2.30099         11.6924         1.92068 
        2.30712         11.6451         1.90808 
        2.31326         11.6035         1.89557 
         2.3194          11.556         1.88318 
        2.32553         11.5084         1.87093 
        2.33166         11.4332         1.85879 
         2.3378         11.4188         1.84673 
        2.34394         11.3807         1.83479 
        2.35007         11.3203         1.82296 
        2.35619         11.2704         1.81125 
        2.36233         11.2453         1.79962 
        2.36848         11.2303         1.78807 
        2.37462         11.2018         1.77664 
        2.38075         11.1173         1.76532 
        2.38689         11.0925          1.7541 
        2.39303         11.0536         1.74297 
        2.39916         11.0238         1.73195 
        2.40529         10.9751         1.72102 
        2.41143         10.9441         1.71019 
        2.41757           10.91         1.69944 
         2.4237         10.8634          1.6888 
        2.42983         10.8184         1.67825 
        2.43598         10.7984         1.66777 
        2.44211         10.7417         1.65739 
        2.44823         10.6975         1.64713 
        2.45437         10.6897         1.63692 
        2.46052         10.6325          1.6268 
        2.46665         10.5811         1.61677 
        2.47279         10.5388         1.60683 
        2.47892         10.5226         1.59697 
        2.48507         10.4963         1.58719 
         2.4912         10.4556          1.5775 
