# k  (h/Mpc)    P(k)  (Mpc/h)^3    P_linear(k)  (Mpc/h)^3
     0.00783031         4571.39         4635.09 
       0.013688         5607.66         5600.03 
       0.019231         5537.83         5534.16 
      0.0249154          4919.7         4971.98 
      0.0312784         4154.17         4166.03 
      0.0375637         3466.54         3453.77 
      0.0433917         2949.38          2963.2 
      0.0492413          2634.7         2633.19 
      0.0555754         2378.53         2405.86 
      0.0619321         2255.48         2241.22 
       0.067871         2070.13         2089.33 
      0.0738098         1893.51         1911.36 
      0.0800417         1673.91         1697.23 
      0.0862327         1472.29         1479.37 
      0.0921407         1298.56         1292.63 
      0.0982031          1141.5         1140.53 
       0.104506         1049.86         1030.02 
       0.110769         976.658         960.645 
       0.116806         924.307         917.358 
       0.122832         891.655         881.272 
       0.129052         837.391         838.106 
       0.135211         784.378         783.101 
       0.141259         730.096         718.956 
       0.147318         669.053         651.674 
       0.153489         603.403         588.542 
       0.159709         557.013         536.767 
       0.165845         526.483           499.5 
       0.171974         495.514         474.272 
       0.178125         477.383         456.728 
       0.184229         462.071         441.918 
        0.19034         435.679         425.387 
       0.196428          422.57         404.955 
       0.202534         403.851         380.635 
       0.208729         376.481         354.122 
       0.214876         350.368          328.79 
       0.220989         333.866         306.879 
       0.227147         313.598         289.282 
        0.23329         300.346         276.067 
       0.239377         292.561         266.135 
       0.245482         276.322         257.713 
       0.251667         272.318          249.18 
       0.257832         262.776         239.651 
       0.263955          251.94         228.909 
       0.270079         240.791         217.331 
        0.27624         233.837         205.697 
       0.282372         223.442         194.964 
        0.28843          213.82         185.774 
       0.294538         204.591         178.063 
       0.300721         201.231         171.643 
        0.30691         192.381         166.108 
       0.313033          187.47         160.975 
       0.319153           179.4         155.737 
       0.325316          175.69         150.155 
        0.33145         168.916         144.306 
       0.337538         165.276          138.43 
       0.343633         159.048         132.738 
       0.349808         153.813         127.427 
       0.355968          150.24         122.696 
       0.362074         145.683          118.58 
       0.368217         141.559         114.888 
       0.374374         137.338         111.467 
       0.380519         134.407         108.171 
       0.386598         130.752         104.894 
       0.392688         128.327         101.569 
        0.39888         124.727         98.1716 
       0.405048         121.546           94.84 
       0.411186         118.673         91.6735 
       0.417313         115.424         88.7217 
       0.423458         112.708         85.9876 
       0.429607         109.894         83.4772 
       0.435692         106.242         81.1622 
       0.441815         105.248         78.9401 
       0.447964         103.404         76.7729 
       0.454126         98.8107         74.6366 
       0.460267         97.5819         72.5244 
       0.466387         95.5991         70.4547 
        0.47254         93.7693          68.437 
       0.478662         92.5016         66.5139 
       0.484765         89.7544         64.6907 
       0.490885         88.0392         62.9643 
       0.497035         86.9167         61.3277 
       0.503198         84.4572         59.7653 
       0.509342         82.5819         58.2631 
       0.515458         81.2529         56.8086 
       0.521598         80.0437         55.3851 
       0.527764         78.6753         53.9895 
       0.533884          77.386         52.6375 
           0.54          75.751         51.3265 
       0.546137         74.9169         50.0584 
       0.552299         73.7411         48.8392 
       0.558452          71.792         47.6745 
       0.564573         70.5023         46.5611 
       0.570708         69.5752          45.484 
       0.576825         68.3961         44.4437 
       0.582926         66.9648         43.4369 
       0.589034         65.5999         42.4573 
       0.595184          64.776         41.4981 
       0.601379         63.8543         40.5581 
       0.607522          62.327         39.6525 
       0.613639         62.1087         38.7784 
       0.619772         60.6166         37.9306 
       0.625918         60.0851         37.1103 
       0.632068         59.2768         36.3175 
       0.638161         58.3693         35.5568 
         0.6443         57.4542          34.813 
       0.650464          56.619         34.0868 
       0.656582         56.0091         33.3846 
       0.662703         54.8854         32.7004 
       0.668861         54.1803         32.0308 
       0.675024         53.4498         31.3792 
       0.681124         52.5905         30.7529 
       0.687237         51.6732         30.1436 
       0.693381         51.2431          29.549 
       0.699536         50.2806         28.9701 
       0.705665          50.463         28.4097 
       0.711789          49.097         27.8646 
       0.717957         48.6123           27.33 
        0.72409          47.965          26.812 
       0.730186         47.1909         26.3103 
       0.736317         46.9575         25.8186 
       0.742472         46.2088         25.3376 
       0.748622          45.771         24.8693 
        0.75476          45.184         24.4141 
       0.760888         44.4806         23.9713 
       0.767043         43.9988         23.5379 
       0.773185         43.4034         23.1164 
       0.779291         43.1965         22.7077 
       0.785407         42.7537         22.3085 
       0.791564         42.0765         21.9164 
       0.797719         41.3005          21.534 
       0.803834         41.2091         21.1631 
       0.809972          40.578         20.7997 
       0.816124         39.9837          20.444 
       0.822261         39.6812         20.0976 
       0.828378         39.4124         19.7602 
       0.834502         38.9249         19.4304 
       0.840667         38.5354         19.1061 
       0.846816          37.947         18.7901 
       0.852925         37.6327         18.4833 
       0.859047         37.1499         18.1827 
       0.865192         36.8499          17.888 
       0.871341         36.7022         17.5996 
       0.877463         35.9441         17.3189 
       0.883569         35.6606         17.0451 
       0.889708         35.3916         16.7759 
       0.895864         35.0446         16.5119 
       0.902008         34.7349         16.2541 
       0.908149         34.4053          16.002 
       0.914301         34.2532         15.7549 
       0.920448         33.7208         15.5132 
       0.926574         33.4376         15.2776 
       0.932687         33.1223         15.0473 
       0.938823         32.6423          14.821 
       0.944975         32.5159         14.5988 
       0.951105         32.1921          14.382 
       0.957225         31.7934           14.17 
       0.963368         31.7455         13.9616 
       0.969511         31.4267         13.7574 
       0.975621         31.1646         13.5584 
       0.981748         30.7358         13.3628 
       0.987916         30.5794         13.1699 
        0.99406         30.3182         12.9815 
        1.00019         29.9519         12.7972 
        1.00632         29.7794         12.6167 
        1.01246         29.6088         12.4394 
        1.01859         29.1535         12.2658 
        1.02471         29.1391         12.0958 
        1.03085          28.861         11.9284 
        1.03698         28.4416         11.7645 
        1.04314         28.2492          11.603 
        1.04929         28.0356          11.445 
        1.05541          27.737         11.2905 
        1.06154         27.6504         11.1386 
        1.06769         27.4315         10.9892 
        1.07382          27.187          10.843 
        1.07993         27.0691         10.6999 
        1.08607          26.705         10.5588 
        1.09222          26.618           10.42 
        1.09836          26.335          10.284 
        1.10449         26.1608         10.1505 
        1.11063         25.8282         10.0193 
        1.11677         25.7454         9.89049 
         1.1229         25.6268         9.76416 
        1.12903         25.2828         9.63992 
        1.13518         25.1479         9.51776 
        1.14131         25.0698         9.39779 
        1.14745         24.7996         9.27997 
        1.15359         24.7315         9.16415 
        1.15973         24.4385         9.05027 
        1.16584         24.1945         8.93884 
        1.17197         24.2178         8.82914 
        1.17811         23.8902         8.72095 
        1.18424         23.6994         8.61489 
        1.19038         23.6543         8.51029 
        1.19652         23.5041         8.40747 
        1.20267          23.328         8.30636 
        1.20881         23.1287         8.20694 
        1.21495         22.9853          8.1093 
        1.22108         22.8263         8.01327 
         1.2272         22.5882         7.91903 
        1.23334         22.5166         7.82609 
        1.23949         22.3461         7.73442 
        1.24562         22.2282         7.64449 
        1.25174          22.114         7.55612 
        1.25789         21.9274         7.46889 
        1.26402         21.8331         7.38319 
        1.27014         21.5878         7.29905 
        1.27628         21.4602         7.21597 
        1.28244         21.3776         7.13403 
        1.28858         21.2841         7.05348 
        1.29471          21.121         6.97435 
        1.30084         20.9762         6.89651 
        1.30697         20.8308         6.81975 
        1.31312         20.6355         6.74405 
        1.31925         20.5477         6.66974 
        1.32537         20.4762         6.59663 
        1.33151         20.2999         6.52435 
        1.33765         20.2398         6.45321 
        1.34378         20.1176         6.38326 
        1.34992         19.8705         6.31432 
        1.35606         19.8276         6.24624 
         1.3622         19.7055         6.17929 
        1.36833         19.5654         6.11349 
        1.37445         19.5518         6.04868 
        1.38059         19.3808         5.98461 
        1.38675         19.1699         5.92132 
        1.39288         19.1524          5.8592 
        1.39901         18.9957           5.798 
        1.40515         18.9262         5.73754 
         1.4113         18.7954         5.67797 
        1.41742         18.6255         5.61947 
        1.42355         18.5978         5.56169 
         1.4297         18.4961         5.50455 
        1.43585         18.4358         5.44824 
        1.44198         18.2526         5.39293 
        1.44809         18.1674          5.3385 
        1.45423         18.0862         5.28461 
        1.46036         18.0162         5.23157 
        1.46649         17.8994         5.17924 
        1.47263         17.7655         5.12759 
        1.47877         17.6888         5.07666 
        1.48491         17.6135         5.02634 
        1.49104         17.5598         4.97682 
        1.49718         17.3924         4.92792 
        1.50333         17.3438          4.8796 
        1.50947         17.2643         4.83204 
         1.5156         17.1138         4.78517 
        1.52172         17.0138         4.73893 
        1.52787         16.9977         4.69321 
          1.534         16.8521         4.64815 
        1.54013         16.7165         4.60373 
        1.54627         16.6735         4.55981 
        1.55241         16.5783         4.51646 
        1.55855         16.4775         4.47373 
        1.56467         16.4116         4.43167 
         1.5708         16.3728         4.39004 
        1.57695         16.2137         4.34888 
        1.58308          16.219         4.30835 
        1.58922         16.1019          4.2683 
        1.59535         16.0044         4.22878 
         1.6015         15.9172          4.1897 
        1.60764         15.8745         4.15114 
        1.61376          15.772         4.11317 
        1.61989         15.6484         4.07565 
        1.62604         15.6421         4.03851 
        1.63218         15.5334         4.00185 
        1.63831         15.4993         3.96574 
        1.64444          15.356         3.93006 
        1.65059         15.2914         3.89474 
        1.65673         15.2497         3.85989 
        1.66285         15.1402         3.82556 
        1.66898         15.1155         3.79164 
        1.67512         15.0433         3.75806 
        1.68127         14.9544         3.72487 
         1.6874         14.8657         3.69214 
        1.69353         14.8073         3.65984 
        1.69967         14.7192         3.62784 
        1.70581         14.6665         3.59623 
        1.71193         14.5822         3.56513 
        1.71806         14.5209         3.53432 
        1.72421         14.4479         3.50382 
        1.73035         14.3847         3.47371 
        1.73649         14.3235         3.44397 
        1.74262         14.3013         3.41459 
        1.74876         14.2104         3.38554 
        1.75489         14.1468         3.35689 
        1.76101         14.0601         3.32858 
        1.76715         14.0414         3.30055 
        1.77329           13.94         3.27282 
        1.77943         13.8705         3.24539 
        1.78557         13.8369         3.21832 
        1.79171         13.7908         3.19155 
        1.79785         13.6699         3.16508 
        1.80399         13.6279         3.13891 
        1.81012         13.6096         3.11308 
        1.81625         13.5151         3.08755 
        1.82239         13.4849         3.06227 
        1.82853         13.3724         3.03729 
        1.83466         13.3086          3.0126 
        1.84078         13.2349         2.98822 
        1.84692         13.2315         2.96407 
        1.85306         13.1507         2.94015 
         1.8592          13.099         2.91654 
        1.86533         13.0604          2.8932 
        1.87147         12.9907         2.87009 
        1.87761         12.9593         2.84722 
        1.88375         12.8514         2.82463 
        1.88988           12.83         2.80231 
        1.89601         12.7711         2.78021 
        1.90215          12.705         2.75834 
        1.90829         12.6693         2.73672 
        1.91442         12.6173         2.71532 
        1.92056         12.5615         2.69417 
         1.9267         12.5097         2.67323 
        1.93284         12.4357         2.65249 
        1.93897         12.3827         2.63202 
        1.94509         12.3329         2.61181 
        1.95123         12.2897         2.59175 
        1.95737          12.249          2.5719 
        1.96349         12.1912          2.5523 
        1.96964         12.1316         2.53285 
        1.97578          12.089         2.51359 
        1.98192         12.0211         2.49458 
        1.98805         11.9973         2.47575 
        1.99419         11.9244         2.45712 
        2.00033         11.8817         2.43868 
        2.00647         11.8435         2.42043 
         2.0126         11.7786         2.40239 
        2.01874          11.722         2.38451 
        2.02488          11.667          2.3668 
        2.03101         11.6625          2.3493 
        2.03714         11.6142           2.332 
        2.04328         11.5442         2.31485 
        2.04941         11.4757         2.29788 
        2.05554         11.4832          2.2811 
        2.06167         11.4104         2.26446 
        2.06781         11.3847         2.24799 
        2.07396         11.3499         2.23166 
        2.08009         11.2968         2.21552 
        2.08622         11.2097         2.19955 
        2.09237         11.1994         2.18371 
        2.09851         11.1559         2.16803 
        2.10464         11.1012         2.15252 
        2.11077         11.0481         2.13719 
        2.11691         11.0163         2.12197 
        2.12305         10.9797          2.1069 
        2.12918         10.9205         2.09201 
        2.13531         10.8998         2.07726 
        2.14145         10.8342         2.06262 
         2.1476         10.8269         2.04811 
        2.15372         10.7734         2.03381 
        2.15985         10.7135         2.01963 
        2.16599          10.691         2.00554 
        2.17213         10.6523         1.99161 
        2.17827         10.6177         1.97781 
         2.1844         10.5715         1.96415 
        2.19054         10.5127         1.95062 
        2.19666         10.5019         1.93723 
         2.2028         10.4561         1.92396 
        2.20893         10.4223         1.91081 
        2.21508         10.3563         1.89776 
        2.22122         10.3209         1.88483 
        2.22736          10.289         1.87205 
        2.23349         10.2344         1.85939 
        2.23962         10.2076         1.84684 
        2.24577          10.161          1.8344 
         2.2519         10.1518         1.82209 
        2.25802          10.101         1.80991 
        2.26417         10.0735          1.7978 
        2.27031         10.0159          1.7858 
        2.27644         9.98228         1.77394 
        2.28257         9.94891         1.76219 
        2.28872         9.91573         1.75053 
        2.29486         9.89078         1.73897 
        2.30099         9.86983         1.72754 
        2.30712         9.81463         1.71621 
        2.31326          9.7865         1.70496 
         2.3194          9.7376         1.69381 
        2.32553         9.70525         1.68279 
        2.33166          9.6443         1.67187 
         2.3378         9.63478         1.66103 
        2.34394         9.60196         1.65028 
        2.35007         9.55154         1.63965 
        2.35619         9.51245         1.62912 
        2.36233         9.48055         1.61865 
        2.36848         9.47508         1.60826 
        2.37462         9.44301         1.59798 
        2.38075         9.37238         1.58781 
        2.38689         9.35016         1.57771 
        2.39303         9.32403          1.5677 
        2.39916         9.30255         1.55779 
        2.40529         9.26426         1.54796 
        2.41143         9.23511         1.53821 
        2.41757         9.20766         1.52854 
         2.4237         9.16849         1.51898 
        2.42983         9.12855         1.50949 
        2.43598         9.12319         1.50006 
        2.44211         9.06716         1.49073 
        2.44823         9.03143          1.4815 
        2.45437         9.02556         1.47232 
        2.46052         8.97069         1.46321 
        2.46665         8.93509         1.45419 
        2.47279         8.90379         1.44525 
        2.47892          8.8822         1.43638 
        2.48507         8.85609         1.42758 
         2.4912         8.82783         1.41887 
