# k  (h/Mpc)    Pcb(k)  (Mpc/h)^3    Pcb_linear(k)  (Mpc/h)^3
     0.00783031         7336.74         7376.11 
       0.013688         9157.52         9339.41 
       0.019231         9585.37         9690.16 
      0.0249154         9211.11          9203.7 
      0.0312784         8154.65         8216.57 
      0.0375637         7089.83         7185.76 
      0.0433917         6342.31         6369.85 
      0.0492413         5673.75         5739.42 
      0.0555754         5217.64         5242.27 
      0.0619321          4723.3         4864.69 
       0.067871         4475.01          4551.6 
      0.0738098         4178.42         4229.54 
      0.0800417         3828.85         3863.75 
      0.0862327         3439.11         3484.32 
      0.0921407         3105.54         3134.74 
      0.0982031         2823.36         2816.88 
       0.104506         2527.23          2548.9 
       0.110769         2339.85         2348.21 
       0.116806         2234.18         2205.67 
       0.122832         2097.35         2094.93 
       0.129052         1999.87         1993.32 
       0.135211         1923.87         1889.36 
       0.141259          1790.8         1776.64 
       0.147318         1652.73         1654.48 
       0.153489         1548.73          1528.1 
       0.159709         1464.54         1408.61 
       0.165845         1334.67         1306.29 
       0.171974         1294.68         1223.03 
       0.178125         1239.25          1157.5 
       0.184229         1154.98         1105.94 
        0.19034         1130.63          1061.8 
       0.196428         1093.83         1019.65 
       0.202534         1024.86         975.336 
       0.208729         1002.23         926.921 
       0.214876         959.188         876.521 
       0.220989         896.548         826.625 
       0.227147         873.153         779.481 
        0.23329         837.827         737.717 
       0.239377         820.703         702.371 
       0.245482         779.078          672.51 
       0.251667         749.152         646.579 
       0.257832         740.729         623.214 
       0.263955         701.902         600.796 
       0.270079         678.906         578.081 
        0.27624          650.33          554.58 
       0.282372           635.9         530.881 
        0.28843         630.132          507.88 
       0.294538         598.055         485.894 
       0.300721         578.964         465.497 
        0.30691         569.286          447.18 
       0.313033         545.019         431.021 
       0.319153         536.073         416.394 
       0.325316         525.143         402.688 
        0.33145         513.187         389.562 
       0.337538          495.26          376.73 
       0.343633          480.65         363.944 
       0.349808         468.377         351.134 
       0.355968         459.165         338.679 
       0.362074         445.807          326.87 
       0.368217         441.532         315.708 
       0.374374         432.432         305.298 
       0.380519         415.304          295.67 
       0.386598         410.003         286.769 
       0.392688         400.903         278.329 
        0.39888         390.675         270.093 
       0.405048         383.962         262.117 
       0.411186         381.363         254.362 
       0.417313         375.174         246.804 
       0.423458         364.631         239.442 
       0.429607         355.938         232.354 
       0.435692         349.836          225.66 
       0.441815         343.888         219.254 
       0.447964         335.615         213.155 
       0.454126         331.068         207.346 
       0.460267         326.471          201.81 
       0.466387         320.663         196.498 
        0.47254         316.466         191.335 
       0.478662          308.13         186.346 
       0.484765         304.715         181.513 
       0.490885         300.986         176.815 
       0.497035         296.489         172.254 
       0.503198         294.184         167.852 
       0.509342         286.437         163.632 
       0.515458         283.016           159.6 
       0.521598         277.214          155.71 
       0.527764         273.936         151.948 
       0.533884         273.256          148.34 
           0.54         267.699          144.85 
       0.546137         261.893         141.455 
       0.552299         260.569         138.148 
       0.558452         256.219         134.945 
       0.564573          254.28         131.855 
       0.570708         249.412         128.856 
       0.576825         245.721         125.965 
       0.582926         243.261         123.177 
       0.589034         240.083         120.476 
       0.595184         238.442         117.842 
       0.601379         233.851         115.271 
       0.607522         229.783         112.799 
       0.613639         228.281         110.409 
       0.619772         226.437         108.082 
       0.625918         224.186         105.816 
       0.632068         219.628         103.612 
       0.638161         217.696         101.491 
         0.6443         216.465         99.4149 
       0.650464          212.61         97.3916 
       0.656582         211.241         95.4413 
       0.662703         209.469         93.5458 
       0.668861         205.561         91.6921 
       0.675024         205.336         89.8877 
       0.681124         202.481         88.1502 
       0.687237         200.075         86.4551 
       0.693381         198.386         84.7968 
       0.699536         196.101         83.1794 
       0.705665         193.952         81.6117 
       0.711789         191.926         80.0864 
       0.717957         189.904         78.5902 
        0.72409         188.324         77.1413 
       0.730186         188.392         75.7382 
       0.736317         185.182         74.3628 
       0.742472         182.794         73.0169 
       0.748622         180.211          71.706 
        0.75476          180.84         70.4304 
       0.760888         178.808         69.1881 
       0.767043         176.092         67.9713 
       0.773185         174.536         66.7866 
       0.779291         172.398         65.6372 
       0.785407         171.353         64.5136 
       0.791564         170.063         63.4095 
       0.797719         167.787         62.3321 
       0.803834         167.911         61.2869 
       0.809972         166.665         60.2622 
       0.816124         164.285          59.259 
       0.822261         162.794         58.2816 
       0.828378         162.694         57.3293 
       0.834502         160.025         56.3978 
       0.840667         159.593         55.4811 
       0.846816         157.961         54.5876 
       0.852925          156.51         53.7196 
       0.859047         155.174         52.8688 
       0.865192         154.374         52.0339 
       0.871341         152.548         51.2166 
       0.877463         151.461         50.4207 
       0.883569         151.323         49.6439 
       0.889708         150.018         48.8797 
       0.895864         148.563         48.1297 
       0.902008         147.248         47.3972 
       0.908149         145.491         46.6805 
       0.914301         145.579         45.9777 
       0.920448          144.74           45.29 
       0.926574         142.495          44.619 
       0.932687         142.306         43.9631 
       0.938823         141.208         43.3182 
       0.944975         139.756         42.6849 
       0.951105         138.719         42.0666 
       0.957225          138.49         41.4617 
       0.963368         136.939         40.8668 
       0.969511         135.818         40.2836 
       0.975621          134.76         39.7151 
       0.981748         133.743         39.1562 
       0.987916           133.1         38.6047 
        0.99406         132.422         38.0659 
        1.00019         131.171         37.5386 
        1.00632         130.485         37.0219 
        1.01246         129.602         36.5142 
        1.01859         128.842         36.0169 
        1.02471         127.865         35.5297 
        1.03085         126.783         35.0498 
        1.03698         126.006         34.5799 
        1.04314         125.324         34.1167 
        1.04929         124.886         33.6631 
        1.05541             124         33.2197 
        1.06154         123.184         32.7832 
        1.06769         122.148          32.354 
        1.07382         121.336          31.934 
        1.07993         120.805         31.5224 
        1.08607         119.798         31.1164 
        1.09222         119.431         30.7172 
        1.09836         118.213         30.3256 
        1.10449         117.575         29.9412 
        1.11063         116.872         29.5632 
        1.11677         116.145         29.1919 
         1.1229         115.295         28.8276 
        1.12903         114.899         28.4693 
        1.13518         114.209         28.1168 
        1.14131         113.491         27.7706 
        1.14745         112.771         27.4303 
        1.15359         111.549         27.0958 
        1.15973         111.303         26.7667 
        1.16584         110.606         26.4447 
        1.17197         110.019         26.1275 
        1.17811          109.18         25.8145 
        1.18424         108.488         25.5077 
        1.19038         108.322         25.2049 
        1.19652         107.462         24.9073 
        1.20267         106.747         24.6145 
        1.20881         106.139         24.3265 
        1.21495         105.647         24.0436 
        1.22108         105.077         23.7652 
         1.2272         104.134          23.492 
        1.23334         103.921         23.2224 
        1.23949         103.298         22.9565 
        1.24562         102.437         22.6956 
        1.25174         101.817         22.4391 
        1.25789         101.686         22.1858 
        1.26402         100.924         21.9369 
        1.27014         100.447         21.6925 
        1.27628         99.4894          21.451 
        1.28244          99.339         21.2129 
        1.28858         98.5682         20.9787 
        1.29471         98.0281         20.7485 
        1.30084         97.3475         20.5221 
        1.30697         97.2858         20.2987 
        1.31312         96.4834         20.0783 
        1.31925         95.9102         19.8619 
        1.32537         95.4438          19.649 
        1.33151         95.2501         19.4384 
        1.33765         94.3933          19.231 
        1.34378         94.1434         19.0271 
        1.34992         93.7041         18.8261 
        1.35606         93.0279         18.6275 
         1.3622         92.7571         18.4322 
        1.36833         91.8996         18.2401 
        1.37445         91.3604         18.0509 
        1.38059         91.1176         17.8638 
        1.38675         90.2785         17.6789 
        1.39288         90.1742         17.4974 
        1.39901         89.2851         17.3186 
        1.40515         89.0826         17.1418 
         1.4113         88.7006         16.9676 
        1.41742         88.0932         16.7965 
        1.42355          87.711         16.6275 
         1.4297         87.1863         16.4603 
        1.43585          86.648         16.2954 
        1.44198         86.2646         16.1335 
        1.44809         85.7013         15.9741 
        1.45423          85.352         15.8162 
        1.46036         84.7114         15.6608 
        1.46649         84.4103         15.5075 
        1.47263         84.0441          15.356 
        1.47877         83.6608         15.2067 
        1.48491         83.1481         15.0592 
        1.49104         82.5012         14.9139 
        1.49718         82.3126         14.7704 
        1.50333         81.8341         14.6286 
        1.50947          81.586          14.489 
         1.5156         81.1965         14.3514 
        1.52172         80.5966         14.2156 
        1.52787         80.1134         14.0813 
          1.534         79.8521          13.949 
        1.54013         79.5715         13.8184 
        1.54627         78.8481         13.6893 
        1.55241         78.4769         13.5619 
        1.55855         78.2118         13.4362 
        1.56467         77.4728         13.3125 
         1.5708         77.3655         13.1901 
        1.57695          76.959         13.0689 
        1.58308         76.5525         12.9496 
        1.58922         76.2128         12.8317 
        1.59535         75.9686         12.7154 
         1.6015         75.7538         12.6003 
        1.60764         75.2766         12.4867 
        1.61376          74.757         12.3748 
        1.61989         74.1763         12.2642 
        1.62604         74.0013         12.1547 
        1.63218         73.7237         12.0467 
        1.63831         73.3788         11.9401 
        1.64444         73.0804         11.8349 
        1.65059         72.6468         11.7307 
        1.65673         72.1076         11.6278 
        1.66285         71.7811         11.5265 
        1.66898         71.3116         11.4263 
        1.67512         71.1737         11.3272 
        1.68127         70.8363         11.2291 
         1.6874         70.3709         11.1324 
        1.69353         70.0953          11.037 
        1.69967         69.8087         10.9424 
        1.70581         69.4351          10.849 
        1.71193         69.0662          10.757 
        1.71806         68.6189         10.6659 
        1.72421         68.4717         10.5757 
        1.73035         68.1957         10.4866 
        1.73649         67.7323         10.3986 
        1.74262         67.2143         10.3117 
        1.74876         67.0954         10.2257 
        1.75489         66.6021         10.1409 
        1.76101         66.3121         10.0571 
        1.76715         66.2718         9.97407 
        1.77329         65.6319         9.89191 
        1.77943         65.5264         9.81065 
        1.78557         65.2617         9.73043 
        1.79171         64.8631          9.6511 
        1.79785         64.5482         9.57264 
        1.80399         64.2009         9.49507 
        1.81012         63.9199         9.41847 
        1.81625         63.6441         9.34275 
        1.82239          63.365         9.26776 
        1.82853         62.9769         9.19362 
        1.83466          62.734         9.12038 
        1.84078         62.3783         9.04801 
        1.84692         62.1513         8.97632 
        1.85306         61.8329         8.90532 
         1.8592         61.6212         8.83519 
        1.86533         61.1875         8.76587 
        1.87147         60.9347         8.69721 
        1.87761         60.6046         8.62926 
        1.88375          60.331         8.56212 
        1.88988         60.0986         8.49577 
        1.89601         59.7426         8.43008 
        1.90215         59.4302         8.36504 
        1.90829         59.2701         8.30073 
        1.91442         58.9205         8.23708 
        1.92056         58.6732         8.17416 
         1.9267         58.3955         8.11184 
        1.93284         58.1944         8.05013 
        1.93897         57.9284         7.98918 
        1.94509         57.4801           7.929 
        1.95123         57.2487         7.86929 
        1.95737         56.9506         7.81015 
        1.96349         56.7489         7.75177 
        1.96964         56.4301         7.69383 
        1.97578         56.1889         7.63645 
        1.98192         55.9298         7.57978 
        1.98805         55.6668         7.52368 
        1.99419         55.4086         7.46815 
        2.00033         55.2007         7.41315 
        2.00647         54.9439         7.35872 
         2.0126         54.5927         7.30494 
        2.01874         54.4379         7.25161 
        2.02488         54.1135         7.19876 
        2.03101         53.9062         7.14655 
        2.03714         53.6757          7.0949 
        2.04328         53.3936         7.04371 
        2.04941         53.0681         6.99307 
        2.05554         52.9916         6.94296 
        2.06167          52.791         6.89328 
        2.06781         52.2987         6.84408 
        2.07396         52.0899         6.79529 
        2.08009         51.9687         6.74706 
        2.08622         51.6974         6.69936 
        2.09237         51.4359         6.65203 
        2.09851         51.1879         6.60515 
        2.10464         50.9657          6.5588 
        2.11077         50.7669         6.51295 
        2.11691         50.4361         6.46744 
        2.12305         50.2077         6.42237 
        2.12918         50.0156         6.37783 
        2.13531         49.8417         6.33372 
        2.14145         49.5181         6.28992 
         2.1476         49.3448         6.24649 
        2.15372          49.222         6.20368 
        2.15985         48.8366         6.16124 
        2.16599         48.6633         6.11907 
        2.17213          48.452         6.07734 
        2.17827         48.2071         6.03602 
         2.1844         47.9379         5.99511 
        2.19054         47.7681         5.95457 
        2.19666         47.4933         5.91447 
         2.2028         47.2705          5.8747 
        2.20893         47.0463         5.83528 
        2.21508         46.8614         5.79617 
        2.22122         46.6516         5.75742 
        2.22736         46.3501          5.7191 
        2.23349         46.2519         5.68114 
        2.23962         45.9954          5.6435 
        2.24577         45.8099         5.60617 
         2.2519         45.5312         5.56924 
        2.25802         45.4193          5.5327 
        2.26417         45.1917         5.49638 
        2.27031         44.9642         5.46036 
        2.27644         44.8506         5.42477 
        2.28257         44.4032         5.38949 
        2.28872         44.4808         5.35447 
        2.29486         44.1789         5.31976 
        2.30099         43.9012         5.28544 
        2.30712         43.8308          5.2514 
        2.31326         43.5073         5.21761 
         2.3194         43.2904         5.18413 
        2.32553         43.1958         5.15101 
        2.33166         42.8949         5.11819 
         2.3378           42.71         5.08561 
        2.34394         42.5492          5.0533 
        2.35007         42.3463         5.02132 
        2.35619           42.28         4.98966 
        2.36233          41.902          4.9582 
        2.36848         41.8047         4.92694 
        2.37462         41.5889         4.89603 
        2.38075         41.4843          4.8654 
        2.38689         41.3265         4.83502 
        2.39303         41.1018          4.8049 
        2.39916         40.8181         4.77506 
        2.40529         40.6671         4.74549 
        2.41143         40.4842         4.71614 
        2.41757         40.3663         4.68704 
         2.4237         40.1712         4.65823 
        2.42983         39.9512         4.62966 
        2.43598         39.7996         4.60126 
        2.44211         39.6294         4.57315 
        2.44823         39.3827         4.54534 
        2.45437         39.2899         4.51768 
        2.46052         39.0189         4.49023 
        2.46665         38.8848         4.46306 
        2.47279         38.6449         4.43612 
        2.47892         38.5479         4.40938 
        2.48507         38.4152         4.38285 
         2.4912         38.1886         4.35658 
