# k  (h/Mpc)    Pcb(k)  (Mpc/h)^3    Pcb_linear(k)  (Mpc/h)^3
     0.00783031         9283.81         9403.89 
       0.013688         11211.6         11144.1 
       0.019231         10904.6         10877.7 
      0.0249154         9550.16         9686.26 
      0.0312784         8005.54         8045.08 
      0.0375637         6627.92          6600.2 
      0.0433917         5552.51         5595.01 
      0.0492413         4911.42         4909.89 
      0.0555754         4365.22         4439.39 
      0.0619321          4152.7         4118.83 
       0.067871         3795.28         3849.34 
      0.0738098         3496.09         3545.41 
      0.0800417         3109.49         3174.04 
      0.0862327         2757.46         2780.22 
      0.0921407         2443.21         2425.17 
      0.0982031         2128.68         2119.62 
       0.104506         1945.35         1883.98 
       0.110769         1783.56          1728.6 
       0.116806         1673.85         1633.67 
       0.122832          1608.6         1566.68 
       0.129052         1511.12         1500.56 
       0.135211         1433.65         1420.11 
       0.141259         1356.54         1321.33 
       0.147318         1257.58         1208.88 
       0.153489         1136.65         1093.25 
       0.159709         1051.25         988.925 
       0.165845         987.693         906.391 
       0.171974         922.006          846.14 
       0.178125         878.819         804.411 
       0.184229         845.408         774.704 
        0.19034         796.304         748.887 
       0.196428          781.58         720.727 
       0.202534         754.675         686.689 
       0.208729         711.718         646.364 
       0.214876         669.167         603.482 
       0.220989         639.379         561.977 
       0.227147         602.593         524.821 
        0.23329         574.126         494.346 
       0.239377          558.45         470.753 
       0.245482         521.408         452.338 
       0.251667          516.47         436.857 
       0.257832         498.752         422.299 
       0.263955         481.537         407.003 
       0.270079         462.416         390.159 
        0.27624         454.397         371.881 
       0.282372         435.296         353.291 
        0.28843         420.506         335.651 
       0.294538         399.623         319.516 
       0.300721         395.016         305.379 
        0.30691         376.474         293.381 
       0.313033         368.169         283.213 
       0.319153         354.874         274.058 
       0.325316         345.596         265.223 
        0.33145         334.342         256.327 
       0.337538         329.176         247.233 
       0.343633         317.854          237.92 
       0.349808         307.027         228.556 
       0.355968         302.454         219.594 
       0.362074         295.263         211.337 
       0.368217         286.938         203.806 
       0.374374         276.013         196.993 
       0.380519         272.452         190.814 
       0.386598         265.383         185.109 
       0.392688         262.165         179.612 
        0.39888         255.096         174.123 
       0.405048         248.908         168.677 
       0.411186         243.622         163.309 
       0.417313         238.687         158.069 
       0.423458         233.679         153.006 
       0.429607         228.587         148.209 
       0.435692         221.943         143.766 
       0.441815         220.084         139.579 
       0.447964         215.737         135.631 
       0.454126         207.461         131.879 
       0.460267         204.814         128.279 
       0.466387         202.212         124.786 
        0.47254         197.659         121.358 
       0.478662         196.605         118.025 
       0.484765         190.134          114.79 
       0.490885         187.504         111.657 
       0.497035         184.708         108.641 
       0.503198         180.209         105.758 
       0.509342         177.963         103.015 
       0.515458         175.393         100.407 
       0.521598         172.211         97.8964 
       0.527764         169.855         95.4649 
       0.533884         167.459         93.1238 
           0.54         164.656         90.8478 
       0.546137         163.462         88.6287 
       0.552299         160.302         86.4675 
       0.558452         158.027         84.3785 
       0.564573          155.45         82.3695 
       0.570708         152.513         80.4269 
       0.576825         150.692          78.562 
       0.582926         148.058           76.77 
       0.589034         146.292         75.0372 
       0.595184         144.508         73.3476 
       0.601379         142.703          71.696 
       0.607522         139.776         70.1052 
       0.613639         139.031         68.5667 
       0.619772         136.103         67.0693 
       0.625918         134.653         65.6133 
       0.632068         133.085            64.2 
       0.638161         131.945         62.8417 
         0.6443         130.131         61.5143 
       0.650464         128.758         60.2222 
       0.656582         126.925         58.9783 
       0.662703         125.384         57.7707 
       0.668861          123.41         56.5908 
       0.675024         122.027         55.4429 
       0.681124          121.21          54.338 
       0.687237         119.013         53.2601 
       0.693381         117.374         52.2058 
       0.699536         116.522         51.1781 
       0.705665         116.412         50.1826 
       0.711789         113.738         49.2151 
       0.717957           113.4         48.2673 
        0.72409         111.642         47.3505 
       0.730186          109.94         46.4637 
       0.736317         109.314         45.5951 
       0.742472         108.498         44.7458 
       0.748622         107.372          43.919 
        0.75476         106.364         43.1148 
       0.760888         104.873         42.3319 
       0.767043         104.258         41.5654 
       0.773185         103.093         40.8195 
       0.779291         101.664         40.0962 
       0.785407         101.087         39.3897 
       0.791564         100.227         38.6959 
       0.797719         98.4983         38.0195 
       0.803834         98.0657         37.3637 
       0.809972         96.8357         36.7213 
       0.816124         96.4434         36.0928 
       0.822261         95.5151         35.4808 
       0.828378         94.6723          34.885 
       0.834502         94.0744         34.3024 
       0.840667         92.8528         33.7295 
       0.846816         91.7702         33.1713 
       0.852925         91.2108         32.6294 
       0.859047         90.0429         32.0985 
       0.865192         89.5529         31.5777 
       0.871341         88.8326         31.0682 
       0.877463          87.734         30.5724 
       0.883569         87.2626         30.0887 
       0.889708         86.5807          29.613 
       0.895864         85.8635         29.1465 
       0.902008         85.1356         28.6911 
       0.908149         84.6496         28.2457 
       0.914301         83.7794         27.8091 
       0.920448         83.1739         27.3823 
       0.926574         82.4937         26.9659 
       0.932687         82.3619         26.5592 
       0.938823         81.0296         26.1594 
       0.944975         80.3076          25.767 
       0.951105         79.8376         25.3841 
       0.957225         78.9516         25.0097 
       0.963368         78.5336         24.6416 
       0.969511         78.2814          24.281 
       0.975621         77.8331         23.9296 
       0.981748         77.0812         23.5843 
       0.987916         76.3814         23.2437 
        0.99406         75.8719         22.9111 
        1.00019         75.3116         22.5858 
        1.00632         74.7901         22.2671 
        1.01246         74.2741         21.9542 
        1.01859         73.3091         21.6478 
        1.02471         73.2505         21.3476 
        1.03085         72.5507         21.0522 
        1.03698         72.1782          20.763 
        1.04314         71.4958         20.4781 
        1.04929         71.0306         20.1992 
        1.05541         70.3831         19.9266 
        1.06154         70.2802         19.6585 
        1.06769         69.8171         19.3949 
        1.07382         69.4604          19.137 
        1.07993         68.9495         18.8844 
        1.08607         68.4061         18.6354 
        1.09222         68.1002         18.3906 
        1.09836         67.5365         18.1506 
        1.10449         67.2045         17.9151 
        1.11063         66.6232         17.6835 
        1.11677          66.294         17.4562 
         1.1229         65.6571         17.2333 
        1.12903         64.9956          17.014 
        1.13518          65.246         16.7985 
        1.14131         64.7374         16.5868 
        1.14745         64.0439         16.3789 
        1.15359         63.8274         16.1745 
        1.15973         63.3116         15.9735 
        1.16584         62.9266         15.7769 
        1.17197         62.5723         15.5833 
        1.17811         62.2596         15.3924 
        1.18424         61.7448         15.2052 
        1.19038         61.3675         15.0207 
        1.19652         61.1746         14.8393 
        1.20267         60.5678         14.6609 
        1.20881         60.3373         14.4854 
        1.21495         59.8638         14.3132 
        1.22108         59.6481         14.1438 
         1.2272         59.0093         13.9775 
        1.23334         58.8226         13.8136 
        1.23949         58.6347         13.6519 
        1.24562         58.1497         13.4932 
        1.25174         57.9165         13.3374 
        1.25789         57.6841         13.1835 
        1.26402           57.27         13.0323 
        1.27014         56.7574         12.8839 
        1.27628         56.5365         12.7374 
        1.28244         56.1628         12.5929 
        1.28858         55.9385         12.4508 
        1.29471         55.7122         12.3113 
        1.30084         55.3804          12.174 
        1.30697         55.0167         12.0386 
        1.31312         54.6532         11.9051 
        1.31925         54.4666         11.7741 
        1.32537         54.2531         11.6451 
        1.33151         53.6856         11.5177 
        1.33765         53.5232         11.3922 
        1.34378         53.2049         11.2688 
        1.34992         52.9371         11.1472 
        1.35606         52.6577         11.0271 
         1.3622         52.2748         10.9091 
        1.36833         52.0727          10.793 
        1.37445         51.8692         10.6787 
        1.38059         51.4632         10.5657 
        1.38675         51.1895          10.454 
        1.39288         50.9596         10.3445 
        1.39901         50.7702         10.2365 
        1.40515         50.4396         10.1299 
         1.4113         50.2546         10.0248 
        1.41742         50.0658         9.92163 
        1.42355         49.6371         9.81971 
         1.4297         49.4968         9.71893 
        1.43585         49.1997          9.6196 
        1.44198         48.9058         9.52205 
        1.44809         48.7605         9.42603 
        1.45423         48.4965         9.33099 
        1.46036         48.3182         9.23744 
        1.46649         48.0395         9.14514 
        1.47263         47.7039         9.05404 
        1.47877          47.533         8.96421 
        1.48491         47.4839         8.87548 
        1.49104         47.0569         8.78813 
        1.49718         46.6153          8.7019 
        1.50333         46.5927          8.6167 
        1.50947         46.4108         8.53281 
         1.5156         46.0915         8.45017 
        1.52172         45.9783         8.36862 
        1.52787         45.8501           8.288 
          1.534         45.5197         8.20853 
        1.54013         45.2646         8.13019 
        1.54627         45.1322         8.05274 
        1.55241         44.7378         7.97629 
        1.55855         44.6129         7.90093 
        1.56467         44.2297         7.82677 
         1.5708          44.288         7.75335 
        1.57695          44.019         7.68076 
        1.58308         43.7385         7.60927 
        1.58922         43.7352         7.53865 
        1.59535          43.526         7.46895 
         1.6015          43.114         7.40004 
        1.60764         42.9257         7.33203 
        1.61376          42.748         7.26506 
        1.61989         42.5098         7.19889 
        1.62604         42.3989         7.13339 
        1.63218         42.3069         7.06875 
        1.63831         42.0331         7.00505 
        1.64444         41.8062         6.94213 
        1.65059         41.5731         6.87982 
        1.65673         41.3903         6.81836 
        1.66285         41.1626         6.75781 
        1.66898         40.9851         6.69798 
        1.67512         40.7859         6.63876 
        1.68127          40.578         6.58021 
         1.6874         40.4594         6.52249 
        1.69353         40.2161          6.4655 
        1.69967         40.0387         6.40906 
        1.70581         39.9973         6.35331 
        1.71193         39.7968         6.29845 
        1.71806         39.4189         6.24411 
        1.72421         39.3335         6.19032 
        1.73035         39.1596         6.13721 
        1.73649         38.8324         6.08475 
        1.74262         38.8117         6.03294 
        1.74876         38.6981          5.9817 
        1.75489         38.4724         5.93116 
        1.76101         38.3042         5.88123 
        1.76715         38.1367          5.8318 
        1.77329         37.9806         5.78288 
        1.77943         37.8151          5.7345 
        1.78557         37.6189         5.68675 
        1.79171         37.4276         5.63954 
        1.79785         37.2532         5.59285 
        1.80399            37.2          5.5467 
        1.81012         36.9621         5.50114 
        1.81625          36.722         5.45611 
        1.82239         36.6476         5.41151 
        1.82853         36.4038         5.36744 
        1.83466         36.2977         5.32391 
        1.84078         36.0214          5.2809 
        1.84692         35.9382          5.2383 
        1.85306         35.7562         5.19612 
         1.8592         35.5691         5.15447 
        1.86533         35.4758          5.1133 
        1.87147         35.3704         5.07254 
        1.87761         35.2302          5.0322 
        1.88375         35.0274         4.99235 
        1.88988         34.9673         4.95297 
        1.89601         34.7473           4.914 
        1.90215         34.6099         4.87542 
        1.90829         34.5322         4.83727 
        1.91442         34.3176         4.79953 
        1.92056         34.1771         4.76222 
         1.9267         33.9726         4.72527 
        1.93284         33.8069          4.6887 
        1.93897          33.754         4.65257 
        1.94509         33.5244         4.61691 
        1.95123         33.4536         4.58153 
        1.95737         33.2228          4.5465 
        1.96349         33.1152         4.51193 
        1.96964         33.0214         4.47761 
        1.97578         32.8228         4.44364 
        1.98192         32.7053         4.41009 
        1.98805         32.6053         4.37688 
        1.99419         32.4076         4.34402 
        2.00033         32.2751         4.31147 
        2.00647         32.1319         4.27927 
         2.0126         31.9923         4.24746 
        2.01874         31.9186         4.21592 
        2.02488         31.7966         4.18467 
        2.03101         31.6165         4.15379 
        2.03714         31.4788         4.12326 
        2.04328         31.3308           4.093 
        2.04941         31.2189         4.06307 
        2.05554         31.0639         4.03346 
        2.06167         30.9794         4.00411 
        2.06781         30.7974         3.97504 
        2.07396          30.711         3.94622 
        2.08009         30.6256         3.91774 
        2.08622         30.4111         3.88957 
        2.09237         30.2908         3.86162 
        2.09851         30.1629         3.83395 
        2.10464         30.0911         3.80659 
        2.11077         29.9506         3.77953 
        2.11691         29.8157         3.75268 
        2.12305         29.6998         3.72608 
        2.12918         29.6215         3.69981 
        2.13531         29.4639         3.67379 
        2.14145         29.4011         3.64796 
         2.1476         29.2117         3.62235 
        2.15372         29.0702         3.59711 
        2.15985          28.953         3.57209 
        2.16599         28.9543         3.54724 
        2.17213          28.817         3.52265 
        2.17827         28.5751          3.4983 
         2.1844         28.4898          3.4742 
        2.19054         28.3943         3.45032 
        2.19666         28.2882          3.4267 
         2.2028         28.1431         3.40328 
        2.20893         28.0819         3.38006 
        2.21508         27.9754         3.35704 
        2.22122         27.7616         3.33423 
        2.22736         27.7426         3.31167 
        2.23349         27.6046         3.28933 
        2.23962         27.4646         3.26718 
        2.24577         27.3563         3.24522 
         2.2519         27.2914         3.22349 
        2.25802         27.1226         3.20199 
        2.26417          27.083         3.18063 
        2.27031         26.9728         3.15945 
        2.27644         26.7957         3.13852 
        2.28257         26.7141         3.11778 
        2.28872         26.6006         3.09719 
        2.29486         26.5598          3.0768 
        2.30099         26.4005         3.05662 
        2.30712         26.3239         3.03662 
        2.31326         26.2708         3.01677 
         2.3194         26.1409          2.9971 
        2.32553         25.9778         2.97764 
        2.33166         25.8771         2.95837 
         2.3378         25.7564         2.93923 
        2.34394         25.6527         2.92027 
        2.35007         25.5712         2.90149 
        2.35619         25.4765         2.88291 
        2.36233         25.4227         2.86444 
        2.36848         25.2648          2.8461 
        2.37462         25.1724         2.82795 
        2.38075         25.0968         2.80998 
        2.38689          25.035         2.79216 
        2.39303         24.8834         2.77449 
        2.39916         24.7596         2.75699 
        2.40529         24.6565         2.73964 
        2.41143         24.5876         2.72243 
        2.41757          24.517         2.70537 
         2.4237         24.3662         2.68847 
        2.42983         24.2593         2.67173 
        2.43598         24.1962         2.65508 
        2.44211         24.0858         2.63861 
        2.44823         23.9881         2.62231 
        2.45437         23.8915          2.6061 
        2.46052         23.7962         2.59002 
        2.46665          23.767          2.5741 
        2.47279         23.6325         2.55832 
        2.47892         23.5325         2.54266 
        2.48507         23.4343         2.52712 
         2.4912         23.3923         2.51174 
