# k  (h/Mpc)    P(k)  (Mpc/h)^3    P_linear(k)  (Mpc/h)^3
     0.00783031         857.343         866.469 
       0.013688         1120.62         1123.11 
       0.019231         1181.27         1182.05 
      0.0249154         1128.49         1135.11 
      0.0312784         1023.61         1025.19 
      0.0375637         910.122         908.594 
      0.0433917         815.172         817.047 
      0.0492413         747.162         746.972 
      0.0555754         687.606         691.003 
      0.0619321         647.728         645.619 
       0.067871         601.991         604.346 
      0.0738098         556.941          559.54 
      0.0800417         504.907         508.613 
      0.0862327         455.913         457.621 
      0.0921407         412.485         412.989 
      0.0982031         373.306         374.629 
       0.104506         345.325         343.968 
       0.110769         322.567         321.655 
       0.116806         304.311          305.24 
       0.122832         291.204         290.885 
       0.129052         274.501         275.688 
       0.135211         257.778         259.006 
       0.141259         241.368         241.231 
       0.147318         224.398         223.202 
       0.153489         206.619         206.102 
       0.159709         192.272         191.341 
       0.165845         182.131         179.663 
       0.171974         171.593         170.576 
       0.178125         164.434          163.25 
       0.184229         158.388         156.786 
        0.19034         150.359         150.293 
       0.196428          144.55         143.344 
       0.202534          138.23         135.873 
       0.208729         129.959         128.111 
       0.214876         121.961         120.711 
       0.220989         116.744         114.068 
       0.227147          109.79         108.327 
        0.23329         105.133         103.542 
       0.239377         101.504         99.5284 
       0.245482         97.0875         95.9322 
       0.251667         94.5314         92.4361 
       0.257832         90.8875         88.8949 
       0.263955         87.2942         85.2558 
       0.270079           83.76         81.5548 
        0.27624         80.8522         77.9014 
       0.282372         77.3964          74.479 
        0.28843         74.0031         71.4055 
       0.294538         71.2326         68.6469 
       0.300721         69.3065         66.1699 
        0.30691         66.5172         63.9204 
       0.313033          64.493         61.8277 
       0.319153         61.6835          59.786 
       0.325316         60.5929          57.739 
        0.33145         58.3525         55.7037 
       0.337538         56.5574         53.7156 
       0.343633         54.5023         51.7962 
       0.349808         52.8443         49.9627 
       0.355968         51.2017          48.267 
       0.362074         49.5864          46.716 
       0.368217         48.1871         45.2704 
       0.374374         46.6416         43.9058 
       0.380519         45.5064         42.6007 
       0.386598         44.2928         41.3442 
       0.392688         43.2479         40.1088 
        0.39888         41.9352         38.8804 
       0.405048         40.8771         37.6917 
       0.411186         39.8549         36.5549 
       0.417313         38.5027         35.4763 
       0.423458         37.5608         34.4526 
       0.429607         36.5043         33.4842 
       0.435692          35.475         32.5751 
       0.441815         34.7675         31.6993 
       0.447964         34.1576         30.8503 
       0.454126         32.9391         30.0254 
       0.460267         32.2489          29.226 
       0.466387         31.2991         28.4515 
        0.47254          30.768         27.6979 
       0.478662         30.1542         26.9761 
       0.484765         29.3145         26.2853 
       0.490885         28.6175          25.621 
       0.497035         28.2324         24.9813 
       0.503198         27.5036         24.3658 
       0.509342         26.8474          23.774 
       0.515458         26.2383         23.2036 
       0.521598          25.764         22.6481 
       0.527764         25.1734         22.1071 
       0.533884         24.7363         21.5863 
           0.54         24.2143          21.082 
       0.546137         23.7711         20.5923 
       0.552299         23.3456         20.1173 
       0.558452         22.6409         19.6599 
       0.564573         22.3492         19.2203 
       0.570708         21.9408          18.794 
       0.576825         21.3811          18.382 
       0.582926         21.0319         17.9833 
       0.589034         20.4491         17.5958 
       0.595184         20.1622         17.2171 
       0.601379         19.7637         16.8467 
       0.607522         19.4693         16.4902 
       0.613639         19.2354         16.1455 
       0.619772          18.732         15.8101 
       0.625918         18.5777          15.484 
       0.632068         18.2741         15.1674 
       0.638161          17.857          14.863 
         0.6443         17.4995         14.5649 
       0.650464         17.1673          14.274 
       0.656582         17.0323         13.9931 
       0.662703         16.7261         13.7196 
       0.668861         16.4313         13.4519 
       0.675024         16.1156         13.1911 
       0.681124         15.8431           12.94 
       0.687237         15.6095         12.6951 
       0.693381         15.4153         12.4556 
       0.699536         15.0039         12.2221 
       0.705665         14.8595         11.9956 
       0.711789         14.6159         11.7753 
       0.717957         14.3872          11.559 
        0.72409         14.1555         11.3494 
       0.730186         13.9716         11.1462 
       0.736317         13.8261         10.9471 
       0.742472         13.6086          10.752 
       0.748622         13.3972          10.562 
        0.75476         13.1181         10.3771 
       0.760888         12.9798         10.1969 
       0.767043         12.8246         10.0204 
       0.773185         12.5704         9.84848 
       0.779291         12.4721         9.68165 
       0.785407         12.2801          9.5185 
       0.791564         12.0822         9.35814 
       0.797719         11.8932         9.20161 
       0.803834         11.8015         9.04969 
       0.809972         11.6848          8.9007 
       0.816124         11.4375         8.75479 
       0.822261          11.288         8.61258 
       0.828378          11.156         8.47399 
       0.834502         11.0533         8.33839 
       0.840667         10.8633         8.20491 
       0.846816         10.6889         8.07477 
       0.852925         10.5962         7.94831 
       0.859047         10.4651         7.82434 
       0.865192         10.3729         7.70264 
       0.871341         10.2588         7.58348 
       0.877463         10.1061         7.46742 
       0.883569         9.94267         7.35411 
       0.889708         9.78698         7.24261 
       0.895864         9.72131         7.13317 
       0.902008         9.60705         7.02625 
       0.908149         9.50267         6.92161 
       0.914301         9.36593         6.81896 
       0.920448         9.23274         6.71851 
       0.926574         9.12531         6.62047 
       0.932687         9.05149         6.52462 
       0.938823         8.93208         6.43034 
       0.944975         8.81571         6.33773 
       0.951105         8.73945         6.24731 
       0.957225          8.6916         6.15882 
       0.963368         8.57002         6.07176 
       0.969511         8.47578         5.98641 
       0.975621         8.36532         5.90317 
       0.981748         8.28393         5.82132 
       0.987916          8.2057         5.74053 
        0.99406         8.07698         5.66159 
        1.00019         7.96866          5.5843 
        1.00632         7.94103         5.50855 
        1.01246         7.85342         5.43411 
        1.01859         7.75007         5.36117 
        1.02471         7.67654         5.28968 
        1.03085         7.60225         5.21927 
        1.03698         7.50036         5.15029 
        1.04314         7.44452         5.08228 
        1.04929         7.34846         5.01567 
        1.05541         7.27152         4.95054 
        1.06154         7.21054         4.88642 
        1.06769         7.17255         4.82335 
        1.07382         7.06031         4.76161 
        1.07993         6.98818          4.7011 
        1.08607         6.94632         4.64141 
        1.09222         6.87506         4.58271 
        1.09836         6.81172          4.5251 
        1.10449         6.73984         4.46857 
        1.11063         6.67923         4.41294 
        1.11677         6.62378          4.3583 
         1.1229         6.56142         4.30468 
        1.12903         6.49299         4.25193 
        1.13518         6.43018         4.20003 
        1.14131         6.35182         4.14904 
        1.14745         6.27921         4.09892 
        1.15359         6.25094         4.04964 
        1.15973         6.18412         4.00116 
        1.16584         6.12392         3.95369 
        1.17197         6.07305         3.90694 
        1.17811         6.02893         3.86081 
        1.18424         5.98802         3.81556 
        1.19038         5.93943         3.77091 
        1.19652         5.88181           3.727 
        1.20267         5.81764          3.6838 
        1.20881         5.77846          3.6413 
        1.21495         5.73229         3.59954 
        1.22108         5.67372         3.55845 
         1.2272         5.64754         3.51811 
        1.23334         5.57264          3.4783 
        1.23949         5.52541         3.43902 
        1.24562         5.50131         3.40046 
        1.25174         5.43421         3.36256 
        1.25789         5.39903         3.32512 
        1.26402         5.35096         3.28833 
        1.27014         5.30233         3.25219 
        1.27628         5.27285         3.21648 
        1.28244         5.20758         3.18125 
        1.28858         5.18916          3.1466 
        1.29471         5.13571         3.11255 
        1.30084         5.08873         3.07904 
        1.30697         5.08351         3.04597 
        1.31312         4.98967         3.01335 
        1.31925         4.97502         2.98131 
        1.32537         4.93402         2.94977 
        1.33151         4.91005         2.91858 
        1.33765         4.84667         2.88787 
        1.34378          4.8126         2.85766 
        1.34992          4.7963         2.82787 
        1.35606         4.73661         2.79844 
         1.3622         4.71789         2.76949 
        1.36833         4.68026         2.74102 
        1.37445         4.64517         2.71297 
        1.38059         4.62131         2.68522 
        1.38675          4.5901         2.65781 
        1.39288         4.54445         2.63089 
        1.39901         4.50357         2.60436 
        1.40515          4.4771         2.57813 
         1.4113         4.44747         2.55229 
        1.41742         4.41833          2.5269 
        1.42355         4.38718          2.5018 
         1.4297         4.34402         2.47698 
        1.43585         4.32985         2.45251 
        1.44198         4.30664         2.42846 
        1.44809         4.25552         2.40479 
        1.45423         4.22643         2.38134 
        1.46036         4.19694         2.35826 
        1.46649         4.16318         2.33547 
        1.47263         4.13445         2.31297 
        1.47877         4.09984         2.29077 
        1.48491         4.07573         2.26884 
        1.49104         4.05711         2.24724 
        1.49718         4.02801         2.22591 
        1.50333         4.00225         2.20482 
        1.50947         3.97555         2.18405 
         1.5156         3.94868         2.16358 
        1.52172          3.9255         2.14337 
        1.52787         3.89862         2.12339 
          1.534         3.87081         2.10369 
        1.54013         3.84833         2.08426 
        1.54627         3.81184         2.06504 
        1.55241         3.78799         2.04606 
        1.55855         3.77398         2.02735 
        1.56467         3.74841         2.00893 
         1.5708          3.7155         1.99068 
        1.57695           3.694         1.97264 
        1.58308         3.66832         1.95486 
        1.58922         3.65547          1.9373 
        1.59535         3.62969         1.91995 
         1.6015         3.60685          1.9028 
        1.60764         3.58537         1.88586 
        1.61376         3.56345         1.86919 
        1.61989          3.5393          1.8527 
        1.62604         3.51483         1.83637 
        1.63218         3.50513         1.82025 
        1.63831         3.47326         1.80437 
        1.64444         3.45151         1.78867 
        1.65059         3.43237         1.77312 
        1.65673         3.41448         1.75777 
        1.66285         3.38715         1.74265 
        1.66898         3.37371         1.72771 
        1.67512          3.3457         1.71291 
        1.68127         3.32865         1.69827 
         1.6874         3.31689         1.68384 
        1.69353         3.28135         1.66959 
        1.69967         3.26891         1.65546 
        1.70581         3.25892         1.64151 
        1.71193         3.23519         1.62777 
        1.71806         3.22036         1.61417 
        1.72421         3.20012         1.60069 
        1.73035         3.18233         1.58738 
        1.73649            3.16         1.57423 
        1.74262         3.14168         1.56123 
        1.74876         3.13408         1.54838 
        1.75489          3.1087          1.5357 
        1.76101         3.08799         1.52316 
        1.76715         3.07417         1.51075 
        1.77329         3.05835         1.49847 
        1.77943         3.03371         1.48631 
        1.78557          3.0238         1.47431 
        1.79171         3.00945         1.46244 
        1.79785         2.98747          1.4507 
        1.80399         2.97465         1.43909 
        1.81012         2.96414         1.42763 
        1.81625         2.94031          1.4163 
        1.82239         2.92309         1.40507 
        1.82853         2.90352         1.39397 
        1.83466         2.89782           1.383 
        1.84078         2.88006         1.37217 
        1.84692         2.86695         1.36143 
        1.85306         2.84505          1.3508 
         1.8592         2.83186         1.34029 
        1.86533         2.81705         1.32991 
        1.87147         2.80744         1.31962 
        1.87761         2.79131         1.30944 
        1.88375         2.76937         1.29938 
        1.88988         2.76046         1.28944 
        1.89601         2.74473         1.27959 
        1.90215         2.72634         1.26984 
        1.90829         2.71313          1.2602 
        1.91442         2.70328         1.25066 
        1.92056         2.68647         1.24123 
         1.9267         2.67714         1.23188 
        1.93284         2.66439         1.22263 
        1.93897         2.64921         1.21349 
        1.94509         2.63097         1.20446 
        1.95123         2.61676          1.1955 
        1.95737         2.60477         1.18663 
        1.96349         2.59441         1.17787 
        1.96964         2.58656         1.16917 
        1.97578         2.56963         1.16056 
        1.98192         2.55877         1.15206 
        1.98805         2.54382         1.14364 
        1.99419         2.53286          1.1353 
        2.00033         2.52819         1.12704 
        2.00647         2.50826         1.11887 
         2.0126          2.5002         1.11079 
        2.01874         2.48109         1.10278 
        2.02488         2.47346         1.09485 
        2.03101         2.45638           1.087 
        2.03714         2.44382         1.07924 
        2.04328         2.43698         1.07155 
        2.04941         2.41952         1.06394 
        2.05554         2.41481         1.05641 
        2.06167         2.39975         1.04895 
        2.06781         2.39335         1.04155 
        2.07396         2.38134         1.03422 
        2.08009         2.36881         1.02697 
        2.08622         2.35347         1.01979 
        2.09237         2.35112         1.01268 
        2.09851         2.33776         1.00563 
        2.10464         2.32885        0.998657 
        2.11077         2.31523        0.991761 
        2.11691         2.30336        0.984915 
        2.12305         2.29704        0.978134 
        2.12918         2.28629        0.971434 
        2.13531          2.2763        0.964796 
        2.14145          2.2631        0.958205 
         2.1476         2.25255        0.951668 
        2.15372         2.24244        0.945226 
        2.15985         2.23249        0.938837 
        2.16599         2.22283         0.93249 
        2.17213         2.21171        0.926208 
        2.17827          2.2045        0.919986 
         2.1844         2.19544        0.913827 
        2.19054         2.18768        0.907723 
        2.19666         2.17507        0.901683 
         2.2028          2.1661        0.895694 
        2.20893         2.15475        0.889756 
        2.21508         2.14895        0.883866 
        2.22122         2.13491        0.878027 
        2.22736         2.12482        0.872254 
        2.23349         2.12188        0.866534 
        2.23962         2.10813        0.860863 
        2.24577         2.09993        0.855238 
         2.2519         2.09003        0.849672 
        2.25802         2.08659        0.844164 
        2.26417         2.07411         0.83869 
        2.27031         2.06767        0.833259 
        2.27644         2.05851        0.827893 
        2.28257         2.04887        0.822574 
        2.28872         2.03949        0.817293 
        2.29486         2.03396        0.812059 
        2.30099         2.02245        0.806882 
        2.30712         2.01372        0.801748 
        2.31326         2.01028        0.796651 
         2.3194         1.99868        0.791601 
        2.32553         1.99242        0.786603 
        2.33166         1.98162        0.781651 
         2.3378         1.97363        0.776735 
        2.34394         1.96497         0.77186 
        2.35007         1.95689        0.767034 
        2.35619         1.95399        0.762256 
        2.36233          1.9415        0.757507 
        2.36848         1.93526        0.752789 
        2.37462         1.92818        0.748122 
        2.38075         1.91943        0.743498 
        2.38689         1.91259         0.73891 
        2.39303          1.9059        0.734362 
        2.39916         1.89646        0.729857 
        2.40529         1.89081        0.725391 
        2.41143         1.88165        0.720959 
        2.41757         1.87424        0.716562 
         2.4237         1.86942         0.71221 
        2.42983         1.85841        0.707895 
        2.43598         1.85666        0.703604 
        2.44211         1.84641        0.699356 
        2.44823         1.84025        0.695153 
        2.45437         1.83294        0.690973 
        2.46052          1.8264        0.686825 
        2.46665         1.82036        0.682717 
        2.47279         1.81217        0.678645 
        2.47892         1.80505        0.674604 
        2.48507         1.79968        0.670592 
         2.4912         1.79099         0.66662 
