# k  (h/Mpc)    Pcb(k)  (Mpc/h)^3    Pcb_linear(k)  (Mpc/h)^3
     0.00783031         13505.2         13696.9 
       0.013688         17253.2         17110.1 
       0.019231         17582.5         17566.9 
      0.0249154         16182.3         16531.1 
      0.0312784         14474.7         14658.6 
      0.0375637         12764.1         12806.4 
      0.0433917         11152.5           11398 
      0.0492413         10211.6         10336.5 
      0.0555754         9154.91            9492 
      0.0619321         8760.15         8806.04 
       0.067871          7912.4         8185.63 
      0.0738098         7273.63         7522.83 
      0.0800417         6488.47         6785.37 
      0.0862327         5882.86         6063.01 
      0.0921407         5380.46         5443.08 
      0.0982031         4841.57         4919.03 
       0.104506         4570.28         4505.15 
       0.110769         4251.86         4204.55 
       0.116806         4004.43         3980.46 
       0.122832         3813.42         3780.28 
       0.129052         3528.34         3566.14 
       0.135211         3324.94         3332.81 
       0.141259         3160.61         3088.58 
       0.147318         2965.58         2845.95 
       0.153489         2719.18          2620.5 
       0.159709         2578.15         2429.31 
       0.165845         2490.38         2279.71 
       0.171974         2357.81          2163.2 
       0.178125         2248.83         2067.65 
       0.184229         2156.81         1981.12 
        0.19034          2032.9         1892.77 
       0.196428         1989.06          1798.4 
       0.202534         1909.81          1698.4 
       0.208729         1819.54         1596.59 
       0.214876         1740.47         1501.48 
       0.220989         1683.71         1417.56 
       0.227147         1611.18         1345.77 
        0.23329         1551.01         1285.91 
       0.239377         1528.32         1235.07 
       0.245482         1433.63          1188.6 
       0.251667         1425.42         1142.63 
       0.257832         1369.38         1095.89 
       0.263955         1323.91         1048.24 
       0.270079         1278.88         1000.47 
        0.27624         1264.53         954.131 
       0.282372         1211.08         911.341 
        0.28843         1202.23         873.299 
       0.294538          1143.1         839.216 
       0.300721          1138.4         808.416 
        0.30691         1092.03         780.097 
       0.313033         1071.28         753.421 
       0.319153         1052.35         727.216 
       0.325316         1017.79         700.979 
        0.33145         994.487         675.107 
       0.337538         978.856         650.119 
       0.343633          955.19         626.252 
       0.349808         923.454         603.664 
       0.355968         917.812         582.829 
       0.362074         907.671         563.761 
       0.368217         880.214         545.872 
       0.374374         845.987         528.862 
       0.380519         846.717         512.509 
       0.386598          824.28         496.726 
       0.392688         821.519         481.267 
        0.39888         797.657         465.977 
       0.405048         786.408         451.285 
       0.411186         775.276         437.332 
       0.417313         759.404          424.14 
       0.423458         746.744         411.628 
       0.429607         736.095         399.782 
       0.435692          720.28          388.62 
       0.441815         715.198         377.826 
       0.447964         700.039          367.35 
       0.454126         691.182         357.175 
       0.460267         676.256         347.331 
       0.466387          668.81         337.832 
        0.47254          660.72         328.632 
       0.478662         656.731         319.844 
       0.484765         637.381         311.445 
       0.490885         633.054         303.376 
       0.497035         620.375         295.601 
       0.503198         615.318         288.108 
       0.509342         609.352         280.893 
       0.515458         605.388          273.94 
       0.521598         590.924         267.177 
       0.527764         579.463           260.6 
       0.533884         578.316          254.28 
           0.54         571.281         248.172 
       0.546137          567.87         242.252 
       0.552299         558.598          236.52 
       0.558452         555.598         230.999 
       0.564573         547.645         225.692 
       0.570708         541.143         220.542 
       0.576825         526.799         215.568 
       0.582926         528.376         210.757 
       0.589034         523.562         206.086 
       0.595184         518.505         201.523 
       0.601379         511.528         197.066 
       0.607522         504.474         192.779 
       0.613639         504.094         188.639 
       0.619772         491.846         184.616 
       0.625918         490.292         180.706 
       0.632068         483.363         176.912 
       0.638161         481.692         173.264 
         0.6443         472.803         169.693 
       0.650464         470.503         166.209 
       0.656582         468.024         162.847 
       0.662703         465.538         159.576 
       0.668861         457.325         156.377 
       0.675024         453.761         153.264 
       0.681124          450.69         150.268 
       0.687237         446.567         147.349 
       0.693381         440.862         144.495 
       0.699536         434.846         141.713 
       0.705665         433.337         139.017 
       0.711789         430.571         136.394 
       0.717957          426.69         133.821 
        0.72409         423.918         131.329 
       0.730186         418.494         128.916 
       0.736317         415.165          126.55 
       0.742472         413.538         124.236 
       0.748622         408.576         121.982 
        0.75476         403.605          119.79 
       0.760888         399.558         117.656 
       0.767043         400.241         115.565 
       0.773185         395.249          113.53 
       0.779291         390.364         111.557 
       0.785407         388.471         109.627 
       0.791564         383.755         107.732 
       0.797719         381.549         105.883 
       0.803834         378.219         104.089 
       0.809972         376.891          102.33 
       0.816124         376.124         100.609 
       0.822261         370.497         98.9319 
       0.828378         368.282         97.2986 
       0.834502         365.247          95.701 
       0.840667         361.683         94.1294 
       0.846816         360.082         92.5977 
       0.852925         357.149           91.11 
       0.859047         355.669         89.6522 
       0.865192         351.564         88.2217 
       0.871341         348.859         86.8218 
       0.877463         347.565         85.4588 
       0.883569         345.122         84.1288 
       0.889708         342.124         82.8205 
       0.895864         339.356         81.5369 
       0.902008         337.345         80.2834 
       0.908149         334.683         79.0572 
       0.914301          331.33         77.8548 
       0.920448         329.341         76.6787 
       0.926574         325.321         75.5312 
       0.932687         325.845         74.4098 
       0.938823         322.037         73.3073 
       0.944975         321.636         72.2247 
       0.951105         318.268         71.1681 
       0.957225          316.05         70.1345 
       0.963368         312.397          69.118 
       0.969511         311.211         68.1218 
       0.975621         308.715         67.1507 
       0.981748         308.254         66.1962 
       0.987916         305.867         65.2543 
        0.99406         301.034         64.3344 
        1.00019         300.751         63.4342 
        1.00632         299.035         62.5521 
        1.01246         296.481         61.6855 
        1.01859         296.962         60.8369 
        1.02471           292.4         60.0053 
        1.03085         290.402         59.1865 
        1.03698         289.547         58.3848 
        1.04314         286.597         57.5946 
        1.04929          284.48         56.8209 
        1.05541         284.865         56.0647 
        1.06154         280.286         55.3204 
        1.06769         279.603         54.5886 
        1.07382         277.848         53.8725 
        1.07993         275.794          53.171 
        1.08607          274.97         52.4791 
        1.09222         272.658         51.7989 
        1.09836          270.73         51.1317 
        1.10449         267.932          50.477 
        1.11063         265.702         49.8332 
        1.11677         265.445         49.2008 
         1.1229         263.572         48.5806 
        1.12903         261.739         47.9706 
        1.13518          259.88         47.3707 
        1.14131         258.074         46.7813 
        1.14745         257.528         46.2024 
        1.15359         255.222         45.6333 
        1.15973         253.678         45.0735 
        1.16584         251.649         44.5257 
        1.17197         251.449         43.9863 
        1.17811           248.6         43.4542 
        1.18424         247.013         42.9324 
        1.19038          246.16         42.4178 
        1.19652         244.186         41.9118 
        1.20267         243.689         41.4142 
        1.20881         241.448         40.9247 
        1.21495         239.861          40.444 
        1.22108          238.54         39.9711 
         1.2272         236.843         39.5069 
        1.23334         235.616          39.049 
        1.23949         234.246         38.5973 
        1.24562         233.087         38.1541 
        1.25174         230.931         37.7185 
        1.25789          229.28         37.2884 
        1.26402         227.839         36.8658 
        1.27014         226.458         36.4508 
        1.27628         225.306          36.041 
        1.28244         224.974         35.6367 
        1.28858          222.47         35.2391 
        1.29471         220.765         34.8485 
        1.30084         219.893         34.4643 
        1.30697          218.37         34.0852 
        1.31312           216.5         33.7114 
        1.31925         216.176         33.3443 
        1.32537         214.971         32.9831 
        1.33151         212.824          32.626 
        1.33765         211.471         32.2744 
        1.34378         210.714         31.9287 
        1.34992          209.61         31.5879 
        1.35606         209.468         31.2513 
         1.3622         207.395         30.9202 
        1.36833         205.251         30.5948 
        1.37445         204.468         30.2742 
        1.38059         202.875         29.9572 
        1.38675          202.15         29.6441 
        1.39288         200.725         29.3366 
        1.39901         200.413         29.0337 
        1.40515         198.386         28.7344 
         1.4113         197.238         28.4395 
        1.41742         195.967         28.1498 
        1.42355          194.74         27.8637 
         1.4297         193.466         27.5806 
        1.43585         192.423         27.3017 
        1.44198         191.359         27.0276 
        1.44809         190.584         26.7579 
        1.45423         189.239         26.4908 
        1.46036         188.252         26.2279 
        1.46649         186.747         25.9684 
        1.47263          185.49         25.7123 
        1.47877         184.664         25.4597 
        1.48491         183.023         25.2102 
        1.49104         182.661         24.9645 
        1.49718         180.731         24.7219 
        1.50333          180.17         24.4822 
        1.50947         179.328         24.2461 
         1.5156         177.707         24.0135 
        1.52172         176.915          23.784 
        1.52787         175.446          23.557 
          1.534         175.088         23.3333 
        1.54013         173.667         23.1127 
        1.54627         172.785         22.8946 
        1.55241         171.601         22.6792 
        1.55855          170.61          22.467 
        1.56467         169.403          22.258 
         1.5708         168.875         22.0511 
        1.57695          167.68         21.8466 
        1.58308         166.896         21.6451 
        1.58922         165.666          21.446 
        1.59535         164.364         21.2495 
         1.6015         164.057         21.0553 
        1.60764         162.787         20.8635 
        1.61376         161.698         20.6747 
        1.61989         160.874          20.488 
        1.62604         159.877         20.3033 
        1.63218         159.125         20.1209 
        1.63831         157.997         19.9412 
        1.64444         157.368         19.7636 
        1.65059         156.231         19.5878 
        1.65673         155.022         19.4144 
        1.66285         154.634         19.2435 
        1.66898         153.412         19.0746 
        1.67512         153.156         18.9074 
        1.68127         151.482         18.7421 
         1.6874           150.5         18.5791 
        1.69353          150.14         18.4182 
        1.69967         148.908         18.2587 
        1.70581         148.204         18.1013 
        1.71193         147.106         17.9463 
        1.71806         146.717         17.7928 
        1.72421          145.65         17.6407 
        1.73035         145.287         17.4907 
        1.73649         144.312         17.3424 
        1.74262          143.13         17.1959 
        1.74876         142.597         17.0511 
        1.75489         141.481         16.9082 
        1.76101         140.609          16.767 
        1.76715         140.127         16.6273 
        1.77329         139.643         16.4889 
        1.77943         138.386         16.3521 
        1.78557         137.763          16.217 
        1.79171         136.979         16.0834 
        1.79785         135.979         15.9513 
        1.80399         135.264         15.8208 
        1.81012         134.496         15.6918 
        1.81625         133.847         15.5644 
        1.82239         133.194         15.4382 
        1.82853         132.492         15.3134 
        1.83466         131.538         15.1902 
        1.84078         131.058         15.0684 
        1.84692         129.797         14.9478 
        1.85306         129.634         14.8284 
         1.8592         128.605         14.7104 
        1.86533         127.677         14.5938 
        1.87147         126.958         14.4784 
        1.87761         126.518         14.3641 
        1.88375         125.309         14.2512 
        1.88988          124.85         14.1397 
        1.89601         124.101         14.0292 
        1.90215         123.465         13.9199 
        1.90829         122.876         13.8118 
        1.91442         122.163         13.7048 
        1.92056         121.427         13.5991 
         1.9267         120.961         13.4944 
        1.93284         120.206         13.3907 
        1.93897          119.35         13.2883 
        1.94509         118.896         13.1872 
        1.95123         118.253         13.0868 
        1.95737         117.684         12.9875 
        1.96349         116.951         12.8895 
        1.96964         115.933         12.7921 
        1.97578          115.29         12.6958 
        1.98192         115.047         12.6006 
        1.98805         114.011         12.5064 
        1.99419         113.659         12.4131 
        2.00033         112.904         12.3208 
        2.00647         112.492         12.2294 
         2.0126         111.514         12.1391 
        2.01874         111.029         12.0496 
        2.02488         110.592         11.9609 
        2.03101          109.67         11.8733 
        2.03714         109.137         11.7866 
        2.04328         108.648         11.7007 
        2.04941         107.947         11.6157 
        2.05554         107.229         11.5316 
        2.06167         106.954         11.4483 
        2.06781         106.263         11.3658 
        2.07396         105.474         11.2839 
        2.08009         105.085          11.203 
        2.08622         104.526          11.123 
        2.09237         103.732         11.0436 
        2.09851         103.291          10.965 
        2.10464         102.775         10.8873 
        2.11077         102.339         10.8104 
        2.11691         101.802         10.7341 
        2.12305         100.857         10.6585 
        2.12918         100.386         10.5839 
        2.13531         99.9708         10.5099 
        2.14145          99.209         10.4365 
         2.1476          98.561         10.3637 
        2.15372          98.273         10.2919 
        2.15985          97.864         10.2208 
        2.16599         97.2328         10.1502 
        2.17213         96.5485         10.0802 
        2.17827         96.2415          10.011 
         2.1844         95.4639         9.94247 
        2.19054         95.1647         9.87457 
        2.19666         94.7119         9.80739 
         2.2028         94.1051         9.74078 
        2.20893         93.5853         9.67475 
        2.21508         92.9982         9.60927 
        2.22122         92.5236         9.54436 
        2.22736         92.1441          9.4802 
        2.23349         91.6846         9.41664 
        2.23962         91.0135         9.35362 
        2.24577         90.7067         9.29113 
         2.2519         90.2989          9.2293 
        2.25802         89.4338         9.16813 
        2.26417         89.1689         9.10734 
        2.27031         88.6822         9.04705 
        2.27644         88.1628         8.98748 
        2.28257         87.6406         8.92845 
        2.28872         87.2434         8.86984 
        2.29486           86.67         8.81177 
        2.30099         86.3406         8.75433 
        2.30712         85.8974         8.69739 
        2.31326         85.3763         8.64085 
         2.3194          84.829         8.58485 
        2.32553         84.4988         8.52944 
        2.33166         84.0023         8.47455 
         2.3378         83.5336         8.42006 
        2.34394         83.1369         8.36603 
        2.35007         82.6685         8.31256 
        2.35619         82.2814         8.25961 
        2.36233         81.7894         8.20701 
        2.36848         81.2559         8.15475 
        2.37462         80.8538         8.10306 
        2.38075         80.5465         8.05187 
        2.38689         80.0376         8.00108 
        2.39303         79.4836         7.95073 
        2.39916         79.1551         7.90087 
        2.40529         78.8651         7.85144 
        2.41143         78.3155          7.8024 
        2.41757         78.0073         7.75375 
         2.4237         77.6027         7.70561 
        2.42983         77.0874         7.65789 
        2.43598         76.7302         7.61044 
        2.44211         76.4752         7.56347 
        2.44823         75.9753           7.517 
        2.45437         75.3986          7.4708 
        2.46052         75.0254         7.42494 
        2.46665         74.7788         7.37955 
        2.47279         74.3302         7.33456 
        2.47892         74.0118         7.28991 
        2.48507         73.5096          7.2456 
         2.4912         73.2436         7.20173 
