# k  (h/Mpc)    Pcb(k)  (Mpc/h)^3    Pcb_linear(k)  (Mpc/h)^3
     0.00783031         13809.5         14007.8 
       0.013688         17745.4           17597 
       0.019231         18125.9         18109.8 
      0.0249154         16689.1         17055.3 
      0.0312784         14894.3         15089.1 
      0.0375637         13053.9         13097.2 
      0.0433917         11304.9         11552.5 
      0.0492413         10262.1         10379.4 
      0.0555754         9136.59            9468 
      0.0619321         8744.57         8780.23 
       0.067871         7932.88         8205.88 
      0.0738098         7352.46         7608.52 
      0.0800417          6612.5          6926.7 
      0.0862327         6022.58         6221.56 
      0.0921407         5502.09         5577.53 
      0.0982031         4916.26         4999.14 
       0.104506         4594.27         4518.93 
       0.110769         4235.83         4165.14 
       0.116806         3971.85         3916.77 
       0.122832         3783.55         3723.44 
       0.129052         3520.15         3542.55 
       0.135211         3345.86          3353.2 
       0.141259         3203.96         3145.76 
       0.147318         3019.83         2921.32 
       0.153489         2769.25         2691.32 
       0.159709          2615.7          2476.9 
       0.165845         2510.68         2296.19 
       0.171974         2364.43         2151.44 
       0.178125         2248.12         2038.76 
       0.184229         2153.08         1950.07 
        0.19034         2035.43         1872.96 
       0.196428         1998.53         1797.56 
       0.202534         1925.58            1717 
       0.208729         1839.63          1628.7 
       0.214876         1761.82         1537.39 
       0.220989         1703.02         1448.08 
       0.227147         1627.43         1364.86 
        0.23329         1563.29         1292.13 
       0.239377         1538.34         1231.22 
       0.245482         1442.53         1179.91 
       0.251667          1434.9         1135.03 
       0.257832         1379.57         1093.99 
       0.263955         1335.32         1053.98 
       0.270079          1290.7         1013.07 
        0.27624         1277.13         970.766 
       0.282372         1223.39         928.367 
        0.28843          1214.5         887.648 
       0.294538         1154.67         849.132 
       0.300721         1149.17         813.735 
        0.30691         1102.96         782.109 
       0.313033         1081.96         754.182 
       0.319153         1062.82         728.744 
       0.325316         1028.31         704.668 
        0.33145         1005.23         681.404 
       0.337538         989.325         658.557 
       0.343633         965.875         635.796 
       0.349808         933.971         613.108 
       0.355968          928.13         591.187 
       0.362074         918.117         570.562 
       0.368217         890.326         551.155 
       0.374374         856.189          533.11 
       0.380519         856.892         516.397 
       0.386598         834.209         500.878 
       0.392688         831.567         486.095 
        0.39888         807.378         471.591 
       0.405048         796.465          457.51 
       0.411186         785.204         443.831 
       0.417313         769.101         430.523 
       0.423458         756.469         417.617 
       0.429607         745.749         405.244 
       0.435692         730.037         393.581 
       0.441815         724.757         382.438 
       0.447964          709.51         371.828 
       0.454126         701.002         361.695 
       0.460267         685.591          352.01 
       0.466387         677.963         342.706 
        0.47254         670.581         333.645 
       0.478662         666.147         324.886 
       0.484765         646.575         316.416 
       0.490885         642.347           308.2 
       0.497035          629.34         300.236 
       0.503198         624.665         292.558 
       0.509342         618.559         285.207 
       0.515458         614.588         278.184 
       0.521598         599.855           271.4 
       0.527764         588.446         264.829 
       0.533884         587.314         258.523 
           0.54         580.332         252.422 
       0.546137         576.853         246.486 
       0.552299         567.638         240.703 
       0.558452         564.424         235.106 
       0.564573         556.516         229.714 
       0.570708         550.079         224.486 
       0.576825         535.477         219.448 
       0.582926         537.182         214.588 
       0.589034          532.31         209.876 
       0.595184         527.334         205.282 
       0.601379         520.163         200.797 
       0.607522          512.95         196.484 
       0.613639          512.81         192.313 
       0.619772         500.662         188.251 
       0.625918         498.861         184.296 
       0.632068         491.918         180.452 
       0.638161          490.25         176.754 
         0.6443         481.295         173.136 
       0.650464         479.033          169.61 
       0.656582         476.311         166.211 
       0.662703          473.97         162.907 
       0.668861         465.677         159.674 
       0.675024         462.111         156.528 
       0.681124         458.974         153.498 
       0.687237         454.916         150.543 
       0.693381         449.065         147.652 
       0.699536          442.86         144.834 
       0.705665         441.601         142.102 
       0.711789         438.854         139.444 
       0.717957         434.959         136.837 
        0.72409         432.174         134.312 
       0.730186         426.573         131.866 
       0.736317          423.32          129.47 
       0.742472         421.567         127.125 
       0.748622         416.687         124.841 
        0.75476         411.559         122.618 
       0.760888         407.425         120.454 
       0.767043         408.166         118.334 
       0.773185         403.174         116.271 
       0.779291          398.35         114.269 
       0.785407         396.409         112.312 
       0.791564         391.658         110.388 
       0.797719         389.412         108.512 
       0.803834         385.931         106.691 
       0.809972         384.682         104.907 
       0.816124         383.945         103.159 
       0.822261         378.269         101.457 
       0.828378         376.163         99.7988 
       0.834502         372.751         98.1766 
       0.840667         369.365         96.5803 
       0.846816         367.814         95.0245 
       0.852925         364.892         93.5131 
       0.859047         363.313         92.0317 
       0.865192         359.113          90.578 
       0.871341         356.368          89.155 
       0.877463         355.219         87.7693 
       0.883569         352.647         86.4169 
       0.889708         349.672         85.0864 
       0.895864         347.029         83.7807 
       0.902008         344.797         82.5055 
       0.908149         342.047         81.2578 
       0.914301         338.817         80.0342 
       0.920448         336.845         78.8371 
       0.926574         332.681         77.6689 
       0.932687         333.142         76.5272 
       0.938823         329.306         75.4045 
       0.944975         328.955         74.3019 
       0.951105         325.542         73.2256 
       0.957225         323.362         72.1727 
       0.963368         319.668         71.1372 
       0.969511         318.414         70.1221 
       0.975621         315.991         69.1325 
       0.981748         315.396         68.1597 
       0.987916         313.065         67.1997 
        0.99406         308.096         66.2619 
        1.00019         307.803         65.3441 
        1.00632         306.093         64.4448 
        1.01246           303.5         63.5612 
        1.01859         304.061         62.6957 
        1.02471         299.287         61.8477 
        1.03085         297.474         61.0125 
        1.03698         296.581         60.1947 
        1.04314         293.572         59.3886 
        1.04929         291.334         58.5993 
        1.05541          291.89         57.8276 
        1.06154         287.094          57.068 
        1.06769         286.482         56.3211 
        1.07382         284.633         55.5901 
        1.07993         282.657         54.8739 
        1.08607         281.808         54.1675 
        1.09222         279.374         53.4729 
        1.09836         277.451         52.7914 
        1.10449         274.682         52.1226 
        1.11063         272.356         51.4648 
        1.11677         272.185         50.8187 
         1.1229         270.244         50.1849 
        1.12903          268.42         49.5614 
        1.13518         266.426          48.948 
        1.14131         264.652         48.3455 
        1.14745         264.034         47.7534 
        1.15359         261.738         47.1713 
        1.15973          260.16         46.5988 
        1.16584         258.157         46.0383 
        1.17197         258.057         45.4864 
        1.17811          255.04         44.9419 
        1.18424         253.457         44.4079 
        1.19038         252.624         43.8812 
        1.19652         250.585         43.3633 
        1.20267         250.016         42.8538 
        1.20881         247.883         42.3527 
        1.21495           246.2         41.8604 
        1.22108         244.854         41.3761 
         1.2272         243.172         40.9007 
        1.23334         241.916         40.4317 
        1.23949         240.456          39.969 
        1.24562          239.34         39.5149 
        1.25174         237.283         39.0686 
        1.25789         235.579         38.6279 
        1.26402             234         38.1949 
        1.27014         232.638         37.7696 
        1.27628         231.482         37.3496 
        1.28244         231.198         36.9351 
        1.28858         228.588         36.5276 
        1.29471         226.896         36.1272 
        1.30084         225.981         35.7332 
        1.30697         224.481         35.3445 
        1.31312         222.464         34.9611 
        1.31925         222.145         34.5847 
        1.32537         221.007         34.2142 
        1.33151         218.815         33.8478 
        1.33765         217.412         33.4871 
        1.34378         216.688         33.1323 
        1.34992         215.532         32.7825 
        1.35606         215.399          32.437 
         1.3622         213.247         32.0972 
        1.36833         211.148          31.763 
        1.37445         210.399         31.4339 
        1.38059         208.682         31.1084 
        1.38675         207.956         30.7867 
        1.39288         206.566         30.4709 
        1.39901         206.196         30.1597 
        1.40515         204.148         29.8522 
         1.4113         203.055         29.5491 
        1.41742         201.676         29.2514 
        1.42355         200.524         28.9573 
         1.4297         199.084         28.6663 
        1.43585         198.146         28.3795 
        1.44198          197.04         28.0978 
        1.44809         196.212         27.8204 
        1.45423         194.901         27.5458 
        1.46036         193.841         27.2754 
        1.46649          192.34         27.0085 
        1.47263         191.072         26.7451 
        1.47877         190.164         26.4853 
        1.48491         188.552         26.2285 
        1.49104         188.132         25.9757 
        1.49718         186.237         25.7261 
        1.50333          185.65         25.4795 
        1.50947         184.746         25.2365 
         1.5156         183.109         24.9971 
        1.52172         182.383         24.7609 
        1.52787         180.812         24.5272 
          1.534         180.477         24.2969 
        1.54013         179.022         24.0698 
        1.54627         178.113         23.8452 
        1.55241         176.898         23.6234 
        1.55855          175.87         23.4048 
        1.56467         174.665         23.1896 
         1.5708         174.123         22.9765 
        1.57695         172.934         22.7658 
        1.58308         172.128         22.5582 
        1.58922         170.842          22.353 
        1.59535         169.544         22.1506 
         1.6015         169.189         21.9503 
        1.60764         167.934         21.7526 
        1.61376         166.821         21.5579 
        1.61989         166.029         21.3655 
        1.62604         164.978          21.175 
        1.63218         164.213         20.9869 
        1.63831         163.069         20.8016 
        1.64444           162.4         20.6184 
        1.65059         161.206         20.4371 
        1.65673         160.027         20.2581 
        1.66285         159.567         20.0818 
        1.66898         158.335         19.9075 
        1.67512         158.133          19.735 
        1.68127         156.394         19.5644 
         1.6874          155.45         19.3961 
        1.69353         154.998           19.23 
        1.69967         153.795         19.0655 
        1.70581         153.066         18.9029 
        1.71193         151.985         18.7429 
        1.71806         151.522         18.5844 
        1.72421         150.435         18.4274 
        1.73035         150.082         18.2724 
        1.73649          149.06         18.1192 
        1.74262         147.902          17.968 
        1.74876         147.282         17.8184 
        1.75489         146.227         17.6707 
        1.76101         145.283         17.5249 
        1.76715         144.829         17.3804 
        1.77329         144.256         17.2375 
        1.77943         143.054         17.0961 
        1.78557         142.414         16.9565 
        1.79171         141.619         16.8184 
        1.79785         140.625         16.6819 
        1.80399         139.833         16.5469 
        1.81012         139.067         16.4136 
        1.81625         138.454         16.2818 
        1.82239         137.739         16.1513 
        1.82853         137.045         16.0223 
        1.83466         136.051         15.8948 
        1.84078         135.563         15.7689 
        1.84692         134.228         15.6441 
        1.85306         134.132         15.5205 
         1.8592         133.082         15.3985 
        1.86533         132.142         15.2778 
        1.87147         131.345         15.1583 
        1.87761          130.88         15.0401 
        1.88375         129.698         14.9232 
        1.88988         129.214         14.8077 
        1.89601         128.479         14.6934 
        1.90215         127.779         14.5802 
        1.90829         127.188         14.4683 
        1.91442          126.46         14.3575 
        1.92056         125.717          14.248 
         1.9267         125.221         14.1395 
        1.93284         124.445         14.0321 
        1.93897         123.583          13.926 
        1.94509         123.104         13.8213 
        1.95123         122.487         13.7174 
        1.95737         121.883         13.6144 
        1.96349         121.153         13.5128 
        1.96964         120.103          13.412 
        1.97578         119.427         13.3121 
        1.98192         119.183         13.2135 
        1.98805         118.169         13.1158 
        1.99419         117.765         13.0192 
        2.00033         116.964         12.9234 
        2.00647         116.571         12.8287 
         2.0126         115.541         12.7351 
        2.01874         115.071         12.6423 
        2.02488         114.635         12.5503 
        2.03101          113.66         12.4594 
        2.03714         113.144         12.3695 
        2.04328          112.61         12.2804 
        2.04941          111.94         12.1922 
        2.05554         111.194          12.105 
        2.06167         110.912         12.0185 
        2.06781         110.185         11.9329 
        2.07396         109.412          11.848 
        2.08009         108.991          11.764 
        2.08622         108.388          11.681 
        2.09237         107.607         11.5986 
        2.09851         107.163          11.517 
        2.10464         106.662         11.4363 
        2.11077          106.15         11.3565 
        2.11691         105.614         11.2773 
        2.12305          104.65         11.1988 
        2.12918         104.179         11.1213 
        2.13531         103.738         11.0445 
        2.14145         102.984         10.9682 
         2.1476         102.309         10.8926 
        2.15372          102.01         10.8181 
        2.15985         101.609         10.7442 
        2.16599          100.91         10.6708 
        2.17213          100.27         10.5981 
        2.17827         99.9281         10.5262 
         2.1844         99.1095          10.455 
        2.19054         98.8047         10.3844 
        2.19666         98.3495         10.3146 
         2.2028         97.6839         10.2453 
        2.20893         97.2111         10.1767 
        2.21508         96.5983         10.1086 
        2.22122         96.1048         10.0411 
        2.22736         95.7097         9.97442 
        2.23349         95.2308         9.90833 
        2.23962         94.5474          9.8428 
        2.24577         94.2276         9.77781 
         2.2519         93.8448          9.7135 
        2.25802         92.9376         9.64988 
        2.26417         92.6426         9.58665 
        2.27031         92.1525         9.52393 
        2.27644         91.6172         9.46195 
        2.28257          91.079         9.40054 
        2.28872         90.7096         9.33955 
        2.29486         90.1041         9.27912 
        2.30099         89.7305         9.21935 
        2.30712         89.2979         9.16009 
        2.31326         88.7267         9.10124 
         2.3194         88.1937         9.04295 
        2.32553         87.8648         8.98527 
        2.33166         87.3582         8.92812 
         2.3378         86.8657         8.87139 
        2.34394          86.469         8.81514 
        2.35007         85.9634         8.75945 
        2.35619         85.6112         8.70432 
        2.36233         85.0665         8.64953 
        2.36848         84.5364         8.59511 
        2.37462         84.1321         8.54127 
        2.38075         83.7809         8.48794 
        2.38689          83.283         8.43503 
        2.39303         82.6876         8.38258 
        2.39916         82.4029         8.33063 
        2.40529         82.0763         8.27913 
        2.41143         81.4952         8.22803 
        2.41757         81.1867         8.17734 
         2.4237         80.7794         8.12717 
        2.42983         80.2432         8.07743 
        2.43598          79.846         8.02797 
        2.44211         79.6283         7.97902 
        2.44823         79.1073         7.93058 
        2.45437         78.4839         7.88241 
        2.46052         78.1236          7.8346 
        2.46665         77.8741         7.78728 
        2.47279         77.3887         7.74036 
        2.47892         77.0704          7.6938 
        2.48507         76.5641         7.64759 
         2.4912         76.2905         7.60184 
