# k  (h/Mpc)    Pcb(k)  (Mpc/h)^3    Pcb_linear(k)  (Mpc/h)^3
     0.00783031         5817.61         5887.07 
       0.013688         7428.49         7397.88 
       0.019231         7623.31         7614.55 
      0.0249154         7080.19         7171.77 
      0.0312784         6309.14         6345.32 
      0.0375637         5512.84         5507.88 
      0.0433917         4809.36         4858.39 
      0.0492413         4349.89         4365.11 
      0.0555754         3911.61         3981.87 
      0.0619321         3705.09         3692.66 
       0.067871         3398.13         3451.13 
      0.0738098         3147.87         3199.92 
      0.0800417         2844.43         2913.18 
      0.0862327         2577.72         2616.63 
      0.0921407         2333.97         2345.77 
      0.0982031         2082.97         2102.52 
       0.104506         1924.24         1900.56 
       0.110769         1772.37         1751.77 
       0.116806          1654.6         1647.31 
       0.122832         1581.71         1566.01 
       0.129052         1482.37         1489.93 
       0.135211          1405.8         1410.29 
       0.141259            1336         1323.05 
       0.147318         1252.12         1228.66 
       0.153489         1148.03         1131.92 
       0.159709         1072.78         1041.74 
       0.165845         1016.14         965.741 
       0.171974          948.72         904.862 
       0.178125          902.63         857.468 
       0.184229          867.28          820.17 
        0.19034         814.567         787.735 
       0.196428         798.364         756.024 
       0.202534         772.355         722.142 
       0.208729          731.96         685.005 
       0.214876         690.563         646.602 
       0.220989         665.976         609.039 
       0.227147         626.642         574.041 
        0.23329         599.311         543.452 
       0.239377         582.969         517.832 
       0.245482         545.744         496.253 
       0.251667         538.901         477.377 
       0.257832         520.641         460.115 
       0.263955         502.762         443.288 
       0.270079         484.921         426.082 
        0.27624         476.814          408.29 
       0.282372         456.911         390.458 
        0.28843         441.779         373.332 
       0.294538         421.826         357.133 
       0.300721         417.038         342.246 
        0.30691         397.721         328.944 
       0.313033         388.552         317.198 
       0.319153         374.101         306.499 
       0.325316         364.741         296.373 
        0.33145          353.32         286.589 
       0.337538         348.321          276.98 
       0.343633         336.776         267.407 
       0.349808         326.249         257.865 
       0.355968         321.125         248.645 
       0.362074          312.91         239.971 
       0.368217         304.521         231.808 
       0.374374         294.314         224.219 
       0.380519         289.447         217.189 
       0.386598         282.252         210.662 
       0.392688         278.808         204.445 
        0.39888         271.409         198.345 
       0.405048         265.473         192.422 
       0.411186          259.71         186.669 
       0.417313         254.524         181.072 
       0.423458         249.458         175.644 
       0.429607          243.66          170.44 
       0.435692         236.642         165.535 
       0.441815         234.992         160.848 
       0.447964          230.85         156.386 
       0.454126         221.365         152.124 
       0.460267         218.957         148.051 
       0.466387         216.105         144.137 
        0.47254         211.678         140.327 
       0.478662         209.896         136.643 
       0.484765         204.019          133.08 
       0.490885         200.984         129.625 
       0.497035         198.286         126.275 
       0.503198          193.13         123.046 
       0.509342         190.491         119.954 
       0.515458         187.929             117 
       0.521598         185.335         114.147 
       0.527764         182.469         111.384 
       0.533884         179.628         108.731 
           0.54         176.869         106.166 
       0.546137         175.612         103.669 
       0.552299          172.59         101.237 
       0.558452         169.511         98.8825 
       0.564573         166.572         96.6145 
       0.570708         164.176          94.416 
       0.576825          162.04          92.297 
       0.582926         159.435         90.2528 
       0.589034         156.982         88.2713 
       0.595184         155.359         86.3388 
       0.601379         153.793         84.4526 
       0.607522          150.21         82.6384 
       0.613639         149.873         80.8845 
       0.619772         146.521          79.176 
       0.625918         145.127         77.5125 
       0.632068         143.522         75.8958 
       0.638161          142.19         74.3403 
         0.6443         140.219         72.8187 
       0.650464         138.657         71.3359 
       0.656582         137.033         69.9063 
       0.662703         134.778         68.5164 
       0.668861         133.257         67.1569 
       0.675024         131.769         65.8335 
       0.681124         130.629         64.5592 
       0.687237         128.313         63.3164 
       0.693381         126.837         62.1007 
       0.699536         125.633         60.9152 
       0.705665         126.071         59.7662 
       0.711789         122.747         58.6483 
       0.717957         122.261         57.5517 
        0.72409         120.531         56.4897 
       0.730186         118.551         55.4613 
       0.736317         118.277         54.4533 
       0.742472         117.141          53.467 
       0.748622         116.152         52.5063 
        0.75476         114.965         51.5717 
       0.760888         113.391         50.6615 
       0.767043         112.452         49.7699 
       0.773185         111.249          48.902 
       0.779291         110.187         48.0599 
       0.785407         109.388         47.2368 
       0.791564         108.135         46.4279 
       0.797719         106.684         45.6387 
       0.803834         106.258          44.873 
       0.809972         104.591         44.1224 
       0.816124          104.17         43.3875 
       0.822261         103.247         42.6716 
       0.828378         102.299         41.9741 
       0.834502         101.523         41.2918 
       0.840667         100.485         40.6204 
       0.846816         99.4224         39.9661 
       0.852925         98.5341         39.3304 
       0.859047         97.3547         38.7074 
       0.865192         97.0259         38.0959 
       0.871341         96.2115         37.4974 
       0.877463         94.9106         36.9146 
       0.883569         94.3122         36.3458 
       0.889708          93.788         35.7862 
       0.895864         92.9648         35.2371 
       0.902008         92.2153         34.7007 
       0.908149         91.6279          34.176 
       0.914301         90.6605         33.6613 
       0.920448         90.0647         33.1579 
       0.926574         89.3735         32.6666 
       0.932687         88.9285         32.1863 
       0.938823         87.5841         31.7142 
       0.944975          87.232         31.2504 
       0.951105         86.4791         30.7978 
       0.957225         85.4191         30.3549 
       0.963368         85.2089         29.9194 
       0.969511         84.7232         29.4925 
       0.975621         84.2224         29.0763 
       0.981748         83.3649         28.6671 
       0.987916         82.7727         28.2633 
        0.99406          82.314         27.8689 
        1.00019         81.3477         27.4829 
        1.00632         81.0631         27.1046 
        1.01246         80.2903          26.733 
        1.01859         79.3025          26.369 
        1.02471         79.6453         26.0123 
        1.03085         78.7097         25.6611 
        1.03698         78.0818         25.3171 
        1.04314         77.3175         24.9781 
        1.04929         76.9919         24.6461 
        1.05541         76.3066         24.3215 
        1.06154         76.1094         24.0021 
        1.06769         75.4863         23.6879 
        1.07382          75.169         23.3805 
        1.07993         74.7774         23.0793 
        1.08607         74.0555         22.7822 
        1.09222         73.6943           22.49 
        1.09836         73.1768         22.2034 
        1.10449         72.6885         21.9221 
        1.11063         72.0782         21.6455 
        1.11677         71.6647         21.3737 
         1.1229         71.2546         21.1071 
        1.12903         70.3398         20.8449 
        1.13518         70.5523         20.5869 
        1.14131         70.1157         20.3335 
        1.14745         69.2072         20.0845 
        1.15359          69.072         19.8397 
        1.15973         68.4913         19.5988 
        1.16584         68.0472         19.3631 
        1.17197         67.6888          19.131 
        1.17811         67.3436          18.902 
        1.18424         66.6826         18.6774 
        1.19038         66.4672         18.4559 
        1.19652         66.1732          18.238 
        1.20267          65.651         18.0238 
        1.20881         65.2663          17.813 
        1.21495         64.7589          17.606 
        1.22108         64.3936         17.4023 
         1.2272         63.8545         17.2023 
        1.23334         63.6251         17.0051 
        1.23949         63.4463         16.8105 
        1.24562         63.0347         16.6195 
        1.25174         62.7039         16.4318 
        1.25789         62.3503         16.2464 
        1.26402         61.8518         16.0643 
        1.27014         61.3362         15.8854 
        1.27628         61.2011         15.7087 
        1.28244         60.6617         15.5345 
        1.28858         60.4407         15.3631 
        1.29471         60.2511         15.1946 
        1.30084         59.8561         15.0289 
        1.30697         59.3773         14.8655 
        1.31312         59.0036         14.7042 
        1.31925         58.9056         14.5459 
        1.32537         58.5511           14.39 
        1.33151         58.0758          14.236 
        1.33765          57.948         14.0842 
        1.34378         57.5869          13.935 
        1.34992         57.0371         13.7879 
        1.35606         56.7777         13.6426 
         1.3622         56.4285         13.4997 
        1.36833         56.2532         13.3591 
        1.37445         56.0716         13.2207 
        1.38059         55.6949         13.0838 
        1.38675         55.3287         12.9485 
        1.39288         55.0699         12.8157 
        1.39901         54.7621         12.6848 
        1.40515         54.4986         12.5555 
         1.4113         54.3146          12.428 
        1.41742         53.8755         12.3028 
        1.42355          53.647         12.1791 
         1.4297         53.3149         12.0567 
        1.43585         53.1495         11.9361 
        1.44198         52.8564         11.8176 
        1.44809          52.567         11.7009 
        1.45423         52.3895         11.5854 
        1.46036         52.0798         11.4717 
        1.46649         51.7589         11.3594 
        1.47263           51.51         11.2486 
        1.47877         51.3638         11.1394 
        1.48491         51.1181         11.0314 
        1.49104          50.753         10.9251 
        1.49718         50.3489         10.8201 
        1.50333          50.244         10.7163 
        1.50947         49.9676         10.6142 
         1.5156         49.6897         10.5135 
        1.52172         49.4672         10.4141 
        1.52787         49.4075         10.3158 
          1.534         49.0304          10.219 
        1.54013         48.7465         10.1234 
        1.54627         48.6258          10.029 
        1.55241         48.3237         9.93571 
        1.55855         48.0148         9.84377 
        1.56467         47.6594         9.75325 
         1.5708         47.6546         9.66362 
        1.57695         47.3252         9.57499 
        1.58308         47.2268         9.48768 
        1.58922          47.075         9.40141 
        1.59535         46.7555         9.31624 
         1.6015         46.4435         9.23202 
        1.60764         46.3167         9.14888 
        1.61376         46.0863           9.067 
        1.61989         45.6836         8.98606 
        1.62604         45.6411         8.90594 
        1.63218         45.4092         8.82684 
        1.63831         45.1773         8.74889 
        1.64444          45.015         8.67186 
        1.65059         44.6176         8.59558 
        1.65673         44.4635          8.5203 
        1.66285         44.3122         8.44615 
        1.66898          44.032         8.37285 
        1.67512         43.8594         8.30029 
        1.68127         43.5777         8.22853 
         1.6874         43.5093         8.15778 
        1.69353         43.2134         8.08791 
        1.69967         43.0532         8.01869 
        1.70581         42.9429         7.95032 
        1.71193         42.6494         7.88302 
        1.71806         42.4016         7.81635 
        1.72421         42.1936         7.75032 
        1.73035         42.0008         7.68514 
        1.73649         41.8072         7.62073 
        1.74262         41.6263         7.55711 
        1.74876         41.6116         7.49418 
        1.75489         41.2598         7.43209 
        1.76101         41.0818         7.37074 
        1.76715         40.8926            7.31 
        1.77329         40.6929         7.24987 
        1.77943         40.5747          7.1904 
        1.78557         40.3676         7.13168 
        1.79171         40.1358         7.07361 
        1.79785         39.9509         7.01619 
        1.80399         39.8106         6.95941 
        1.81012         39.6806         6.90335 
        1.81625          39.383         6.84793 
        1.82239         39.2857         6.79304 
        1.82853         38.9717         6.73878 
        1.83466         38.8769         6.68516 
        1.84078         38.5918         6.63219 
        1.84692         38.5131         6.57971 
        1.85306         38.3144         6.52774 
         1.8592         38.1525         6.47641 
        1.86533         37.9231         6.42566 
        1.87147         37.8178         6.37541 
        1.87761         37.7353         6.32567 
        1.88375         37.4939         6.27652 
        1.88988         37.4185         6.22795 
        1.89601         37.1586         6.17986 
        1.90215         37.0606         6.13226 
        1.90829         36.9479         6.08517 
        1.91442         36.6702         6.03858 
        1.92056         36.6026         5.99253 
         1.9267         36.3236         5.94691 
        1.93284         36.1312         5.90173 
        1.93897         36.0775         5.85712 
        1.94509         35.8745         5.81307 
        1.95123         35.7141         5.76936 
        1.95737         35.5502         5.72606 
        1.96349          35.387         5.68333 
        1.96964         35.1821         5.64091 
        1.97578         35.1371         5.59891 
        1.98192         34.9072         5.55743 
        1.98805          34.803         5.51636 
        1.99419         34.5689          5.4757 
        2.00033         34.4091         5.43544 
        2.00647         34.2993          5.3956 
         2.0126          34.132         5.35622 
        2.01874         34.0417         5.31718 
        2.02488         33.9659          5.2785 
        2.03101         33.7019         5.24027 
        2.03714         33.5437         5.20246 
        2.04328         33.3945         5.16498 
        2.04941         33.2898         5.12791 
        2.05554         33.1216         5.09123 
        2.06167         32.9844         5.05485 
        2.06781         32.8429         5.01883 
        2.07396         32.6807         4.98312 
        2.08009         32.6024         4.94781 
        2.08622          32.437         4.91288 
        2.09237         32.3048         4.87823 
        2.09851         32.1319         4.84391 
        2.10464          32.073         4.80997 
        2.11077         31.8132          4.7764 
        2.11691          31.775         4.74308 
        2.12305         31.6035         4.71008 
        2.12918         31.5624         4.67747 
        2.13531         31.3927         4.64517 
        2.14145         31.2884          4.6131 
         2.1476         31.0598          4.5813 
        2.15372         30.9454         4.54996 
        2.15985         30.8381         4.51888 
        2.16599         30.7321           4.488 
        2.17213         30.6433         4.45745 
        2.17827         30.3601         4.42719 
         2.1844         30.2808         4.39723 
        2.19054         30.1586         4.36755 
        2.19666         30.0458         4.33818 
         2.2028         29.9526         4.30906 
        2.20893         29.8318          4.2802 
        2.21508         29.6933         4.25156 
        2.22122         29.5126         4.22318 
        2.22736         29.4489         4.19512 
        2.23349          29.317         4.16732 
        2.23962          29.178         4.13976 
        2.24577         29.0162         4.11243 
         2.2519         28.9357         4.08538 
        2.25802          28.818         4.05862 
        2.26417         28.7058         4.03203 
        2.27031         28.6158         4.00565 
        2.27644         28.4778         3.97958 
        2.28257         28.3666         3.95375 
        2.28872         28.2066          3.9281 
        2.29486          28.119         3.90269 
        2.30099         28.0156         3.87755 
        2.30712         27.9446         3.85262 
        2.31326         27.8198         3.82787 
         2.3194         27.6674         3.80335 
        2.32553         27.5503         3.77909 
        2.33166         27.4066         3.75506 
         2.3378         27.2985          3.7312 
        2.34394          27.203         3.70754 
        2.35007         27.0704         3.68412 
        2.35619         26.9814         3.66093 
        2.36233         26.9049         3.63789 
        2.36848         26.7052           3.615 
        2.37462         26.6298         3.59235 
        2.38075         26.5274         3.56993 
        2.38689         26.4473         3.54767 
        2.39303         26.2945         3.52561 
        2.39916         26.1967         3.50376 
        2.40529         26.0751          3.4821 
        2.41143         26.0003         3.46061 
        2.41757         25.8723         3.43929 
         2.4237         25.7682         3.41819 
        2.42983         25.6772         3.39727 
        2.43598          25.576         3.37647 
        2.44211         25.4573         3.35588 
        2.44823         25.3209          3.3355 
        2.45437          25.252         3.31525 
        2.46052         25.1445         3.29514 
        2.46665         25.0797         3.27524 
        2.47279         24.9455          3.2555 
        2.47892         24.8369         3.23592 
        2.48507         24.7413         3.21648 
         2.4912         24.6768         3.19724 
