# k  (h/Mpc)    P(k)  (Mpc/h)^3    P_linear(k)  (Mpc/h)^3
     0.00783031         1376.19         1388.58 
       0.013688         1744.09         1765.68 
       0.019231          1823.7         1834.02 
      0.0249154         1740.25         1740.52 
      0.0312784         1546.55         1549.68 
      0.0375637         1345.23         1350.26 
      0.0433917         1194.37         1192.91 
      0.0492413         1069.98         1072.31 
      0.0555754         981.088         978.735 
      0.0619321         900.681         909.369 
       0.067871          850.43         852.787 
      0.0738098         793.092         794.394 
      0.0800417         727.644         727.009 
      0.0862327         654.617         655.827 
      0.0921407         588.433         589.267 
      0.0982031         530.034         528.119 
       0.104506         474.834         476.313 
       0.110769         437.057         437.665 
       0.116806         413.458         410.685 
       0.122832         390.305         390.384 
       0.129052         373.632          372.34 
       0.135211         356.771         354.013 
       0.141259         334.773         333.816 
       0.147318         310.476         311.386 
       0.153489         288.525         287.626 
       0.159709         267.501         264.728 
       0.165845         244.852         244.864 
       0.171974         232.622         228.631 
       0.178125         219.946          215.96 
       0.184229         208.426         206.233 
        0.19034         202.083         198.205 
       0.196428         194.383         190.746 
       0.202534         184.156         182.927 
       0.208729         177.558         174.241 
       0.214876         169.466         164.978 
       0.220989         157.875         155.589 
       0.227147         151.541         146.546 
        0.23329         143.971         138.437 
       0.239377         137.783         131.559 
       0.245482         131.314         125.803 
       0.251667         125.621         120.912 
       0.257832          122.91         116.627 
       0.263955         117.361         112.595 
       0.270079          113.24         108.525 
        0.27624         108.323         104.272 
       0.282372         104.332         99.9026 
        0.28843         101.736         95.5844 
       0.294538         97.1038         91.3912 
       0.300721          92.526         87.4644 
        0.30691         90.1574          83.932 
       0.313033         86.5792         80.8386 
       0.319153         84.8322         78.0799 
       0.325316          81.111         75.5386 
        0.33145         78.5382          73.136 
       0.337538         76.3159         70.7977 
       0.343633         74.1821         68.4554 
       0.349808         71.6268         66.0861 
       0.355968         69.2868         63.7519 
       0.362074         67.7256         61.5169 
       0.368217         65.5611         59.3882 
       0.374374         64.0611         57.4009 
       0.380519         61.3892         55.5704 
       0.386598         59.6083         53.8908 
       0.392688         57.8937          52.315 
        0.39888         56.7497         50.7879 
       0.405048         55.3811         49.3139 
       0.411186         53.8942         47.8802 
       0.417313         52.3908         46.4741 
       0.423458         50.8327         45.0962 
       0.429607         49.9311         43.7616 
       0.435692         48.9747         42.4944 
       0.441815         47.1402         41.2802 
       0.447964         45.7447         40.1271 
       0.454126         44.9426         39.0318 
       0.460267         44.4321         37.9928 
       0.466387         43.1582         37.0013 
        0.47254          42.477         36.0391 
       0.478662         41.1849         35.1087 
       0.484765         40.3145         34.2063 
       0.490885         39.1659         33.3269 
       0.497035           38.47         32.4695 
       0.503198         37.6274         31.6395 
       0.509342         36.6238         30.8435 
       0.515458         36.1419         30.0835 
       0.521598         35.3086         29.3509 
       0.527764         34.8086         28.6433 
       0.533884         33.9367         27.9667 
           0.54         33.3016         27.3134 
       0.546137         32.3212         26.6779 
       0.552299         31.7783          26.058 
       0.558452         31.1262         25.4567 
       0.564573         30.7835         24.8762 
       0.570708         30.0121         24.3123 
       0.576825          29.564         23.7682 
       0.582926         29.0255          23.243 
       0.589034         28.4701         22.7342 
       0.595184         28.1082         22.2386 
       0.601379         27.3602         21.7557 
       0.607522         26.9338         21.2916 
       0.613639          26.445          20.843 
       0.619772         26.0309         20.4058 
       0.625918         25.5025         19.9798 
       0.632068         25.2682         19.5654 
       0.638161         24.7628         19.1664 
         0.6443         24.3486         18.7759 
       0.650464         23.7542         18.3953 
       0.656582          23.608         18.0282 
       0.662703         23.3195         17.6713 
       0.668861         22.6958         17.3223 
       0.675024         22.3959         16.9827 
       0.681124         22.2947         16.6558 
       0.687237          21.833         16.3371 
       0.693381         21.3349         16.0252 
       0.699536         21.2504          15.721 
       0.705665         20.8541          15.426 
       0.711789         20.4688         15.1389 
       0.717957         20.0593         14.8571 
        0.72409         19.8935         14.5842 
       0.730186         19.7785         14.3199 
       0.736317         19.3616         14.0608 
       0.742472           19.12         13.8073 
       0.748622         18.8292         13.5605 
        0.75476         18.3624         13.3203 
       0.760888         18.2789         13.0864 
       0.767043         17.9591         12.8573 
       0.773185         17.7601         12.6342 
       0.779291         17.6255         12.4177 
       0.785407         17.3043          12.206 
       0.791564         17.1528          11.998 
       0.797719         16.8013          11.795 
       0.803834         16.7086          11.598 
       0.809972         16.3966         11.4049 
       0.816124         16.2185         11.2158 
       0.822261         16.0354         11.0315 
       0.828378         15.8373          10.852 
       0.834502         15.6766         10.6764 
       0.840667         15.5156         10.5037 
       0.846816         15.1862         10.3352 
       0.852925         15.1063         10.1716 
       0.859047         14.9207         10.0112 
       0.865192         14.7182         9.85381 
       0.871341         14.5198         9.69971 
       0.877463          14.364         9.54963 
       0.883569         14.2649         9.40315 
       0.889708         14.0352         9.25902 
       0.895864         13.8646         9.11757 
       0.902008         13.6997         8.97941 
       0.908149         13.5196         8.84422 
       0.914301         13.4397         8.71162 
       0.920448         13.2482          8.5819 
       0.926574          13.176         8.45529 
       0.932687         12.9713         8.33154 
       0.938823         12.8027         8.20984 
       0.944975         12.7081         8.09032 
       0.951105         12.5425         7.97364 
       0.957225         12.4713         7.85948 
       0.963368         12.3001         7.74719 
       0.969511         12.1675         7.63712 
       0.975621         12.0437         7.52981 
       0.981748         11.8742          7.4243 
       0.987916         11.7874         7.32018 
        0.99406         11.6913         7.21846 
        1.00019         11.5873          7.1189 
        1.00632           11.48         7.02133 
        1.01246         11.3462         6.92547 
        1.01859         11.2214         6.83157 
        1.02471         11.0776         6.73955 
        1.03085         11.0419         6.64892 
        1.03698         10.9304         6.56017 
        1.04314         10.8106         6.47268 
        1.04929         10.6618           6.387 
        1.05541         10.6056         6.30324 
        1.06154         10.5094         6.22079 
        1.06769         10.4571          6.1397 
        1.07382         10.2774         6.06034 
        1.07993         10.1837         5.98258 
        1.08607         10.1388         5.90587 
        1.09222         10.0069         5.83045 
        1.09836         9.98337         5.75644 
        1.10449         9.80423         5.68381 
        1.11063         9.77709         5.61237 
        1.11677         9.70347         5.54219 
         1.1229         9.61262         5.47334 
        1.12903         9.54247         5.40561 
        1.13518         9.39981         5.33897 
        1.14131         9.33791         5.27351 
        1.14745         9.22041         5.20919 
        1.15359         9.15515         5.14594 
        1.15973         9.07362         5.08373 
        1.16584         9.00746         5.02283 
        1.17197         8.92784         4.96285 
        1.17811         8.84842         4.90367 
        1.18424         8.78257         4.84564 
        1.19038         8.72621         4.78839 
        1.19652         8.66077          4.7321 
        1.20267         8.58808         4.67672 
        1.20881         8.50009         4.62224 
        1.21495         8.43224         4.56872 
        1.22108         8.37938         4.51607 
         1.2272         8.29644         4.46438 
        1.23334         8.27998         4.41339 
        1.23949          8.1779         4.36307 
        1.24562         8.11976          4.3137 
        1.25174         8.07048         4.26516 
        1.25789         7.95729         4.21723 
        1.26402          7.9324         4.17014 
        1.27014         7.88364         4.12388 
        1.27628         7.78877         4.07819 
        1.28244          7.7704         4.03311 
        1.28858         7.71735         3.98878 
        1.29471         7.61235         3.94522 
        1.30084         7.55395         3.90235 
        1.30697         7.53934         3.86006 
        1.31312         7.46236         3.81835 
        1.31925         7.41003         3.77738 
        1.32537         7.36675         3.73707 
        1.33151         7.30378          3.6972 
        1.33765         7.24733         3.65794 
        1.34378         7.23309         3.61933 
        1.34992          7.1585         3.58126 
        1.35606         7.10959         3.54366 
         1.3622         7.05533         3.50667 
        1.36833          7.0035          3.4703 
        1.37445         6.94704         3.43446 
        1.38059         6.90511         3.39903 
        1.38675         6.85398         3.36401 
        1.39288         6.81167         3.32963 
        1.39901         6.75017         3.29575 
        1.40515         6.71758         3.26227 
         1.4113         6.66354         3.22926 
        1.41742         6.62815         3.19685 
        1.42355         6.57346         3.16482 
         1.4297          6.5411         3.13313 
        1.43585         6.50253          3.1019 
        1.44198         6.45104         3.07121 
        1.44809         6.42115           3.041 
        1.45423         6.36821         3.01109 
        1.46036         6.33437         2.98164 
        1.46649         6.28569         2.95257 
        1.47263         6.25903         2.92387 
        1.47877         6.21497         2.89557 
        1.48491          6.1816          2.8676 
        1.49104          6.1304         2.84007 
        1.49718         6.10691         2.81287 
        1.50333         6.06107         2.78599 
        1.50947         6.00483         2.75952 
         1.5156         5.99279         2.73344 
        1.52172         5.95669          2.7077 
        1.52787         5.91908         2.68224 
          1.534         5.88168         2.65713 
        1.54013         5.84997         2.63238 
        1.54627           5.809         2.60791 
        1.55241         5.76276         2.58374 
        1.55855            5.75         2.55991 
        1.56467          5.7091         2.53645 
         1.5708         5.67503         2.51322 
        1.57695         5.62375         2.49025 
        1.58308         5.59179         2.46762 
        1.58922         5.57471         2.44526 
        1.59535         5.54098         2.42319 
         1.6015         5.49692         2.40135 
        1.60764         5.47745          2.3798 
        1.61376         5.44481         2.35858 
        1.61989         5.39713         2.33759 
        1.62604         5.37363         2.31682 
        1.63218         5.35082         2.29631 
        1.63831         5.33137          2.2761 
        1.64444         5.28569         2.25613 
        1.65059         5.26536         2.23635 
        1.65673         5.23246         2.21684 
        1.66285         5.20626         2.19761 
        1.66898         5.17362          2.1786 
        1.67512         5.13839         2.15978 
        1.68127         5.10932         2.14117 
         1.6874         5.09508         2.12282 
        1.69353         5.04902          2.1047 
        1.69967         5.03305         2.08675 
        1.70581         5.00077         2.06902 
        1.71193         4.97436         2.05156 
        1.71806         4.95227         2.03427 
        1.72421         4.92312         2.01714 
        1.73035         4.89575         2.00024 
        1.73649         4.87025         1.98353 
        1.74262          4.8458         1.96702 
        1.74876         4.82811          1.9507 
        1.75489         4.79772         1.93459 
        1.76101         4.76494         1.91867 
        1.76715         4.75614         1.90291 
        1.77329         4.72696         1.88731 
        1.77943         4.69334         1.87188 
        1.78557          4.6781         1.85664 
        1.79171         4.65924         1.84158 
        1.79785         4.63289         1.82668 
        1.80399         4.59587         1.81194 
        1.81012         4.58192         1.79739 
        1.81625         4.55698         1.78301 
        1.82239         4.53963         1.76876 
        1.82853         4.51189         1.75468 
        1.83466         4.47779         1.74077 
        1.84078         4.45989         1.72702 
        1.84692         4.44234          1.7134 
        1.85306         4.42006          1.6999 
         1.8592         4.40575         1.68658 
        1.86533         4.38099         1.67341 
        1.87147         4.36094         1.66036 
        1.87761         4.34708         1.64745 
        1.88375         4.31873         1.63469 
        1.88988         4.29863         1.62208 
        1.89601         4.27185          1.6096 
        1.90215          4.2453         1.59724 
        1.90829         4.24407         1.58501 
        1.91442         4.21076         1.57292 
        1.92056         4.20341         1.56096 
         1.9267         4.17558         1.54911 
        1.93284         4.16761         1.53738 
        1.93897           4.132          1.5258 
        1.94509         4.11569         1.51436 
        1.95123         4.09936         1.50301 
        1.95737         4.08373         1.49177 
        1.96349         4.05506         1.48067 
        1.96964         4.04097         1.46965 
        1.97578         4.02589         1.45874 
        1.98192         3.99962         1.44797 
        1.98805         3.99077          1.4373 
        1.99419         3.97145         1.42674 
        2.00033         3.93989         1.41628 
        2.00647         3.93821         1.40593 
         2.0126         3.91757         1.39571 
        2.01874         3.90553         1.38557 
        2.02488         3.88249         1.37552 
        2.03101         3.85919         1.36559 
        2.03714         3.85123         1.35576 
        2.04328         3.83255         1.34603 
        2.04941         3.81521          1.3364 
        2.05554          3.8033         1.32687 
        2.06167         3.77882         1.31742 
        2.06781          3.7679         1.30806 
        2.07396         3.74709         1.29878 
        2.08009         3.73898          1.2896 
        2.08622         3.72213         1.28053 
        2.09237         3.71432         1.27152 
        2.09851         3.68288          1.2626 
        2.10464         3.67387         1.25379 
        2.11077         3.66603         1.24506 
        2.11691         3.64332          1.2364 
        2.12305         3.62456         1.22783 
        2.12918         3.61243         1.21935 
        2.13531         3.59531         1.21096 
        2.14145         3.58558         1.20262 
         2.1476         3.56069         1.19436 
        2.15372         3.55188         1.18621 
        2.15985         3.53805         1.17813 
        2.16599         3.52739         1.17011 
        2.17213         3.51351         1.16217 
        2.17827         3.49109          1.1543 
         2.1844         3.47668         1.14651 
        2.19054         3.46645          1.1388 
        2.19666         3.45329         1.13116 
         2.2028         3.42966         1.12359 
        2.20893         3.42659         1.11609 
        2.21508         3.41511         1.10864 
        2.22122         3.39131         1.10127 
        2.22736         3.38245         1.09397 
        2.23349         3.36581         1.08674 
        2.23962         3.36038         1.07958 
        2.24577         3.33854         1.07247 
         2.2519         3.32857         1.06544 
        2.25802         3.31475         1.05848 
        2.26417         3.30231         1.05157 
        2.27031         3.28759         1.04471 
        2.27644         3.27778         1.03793 
        2.28257         3.26292         1.03121 
        2.28872         3.25264         1.02454 
        2.29486         3.23527         1.01793 
        2.30099         3.22316          1.0114 
        2.30712         3.21541         1.00491 
        2.31326         3.20201        0.998476 
         2.3194         3.18852          0.9921 
        2.32553         3.18055        0.985791 
        2.33166         3.17151        0.979539 
         2.3378         3.15692        0.973333 
        2.34394          3.1406         0.96718 
        2.35007         3.12491        0.961088 
        2.35619         3.12019        0.955057 
        2.36233         3.10717        0.949063 
        2.36848         3.09809        0.943109 
        2.37462         3.08681        0.937219 
        2.38075         3.07709        0.931385 
        2.38689         3.06531        0.925596 
        2.39303         3.05394        0.919857 
        2.39916         3.03889        0.914173 
        2.40529         3.02901        0.908538 
        2.41143         3.02311        0.902947 
        2.41757         3.01422          0.8974 
         2.4237         2.99716        0.891911 
        2.42983         2.99289        0.886468 
        2.43598         2.98151        0.881056 
        2.44211         2.96486        0.875698 
        2.44823          2.9569        0.870398 
        2.45437         2.94308        0.865126 
        2.46052         2.93484        0.859895 
        2.46665         2.92793        0.854715 
        2.47279         2.90915        0.849581 
        2.47892         2.90563        0.844485 
        2.48507         2.89293        0.839427 
         2.4912         2.88843         0.83442 
