# k  (h/Mpc)    Pcb(k)  (Mpc/h)^3    Pcb_linear(k)  (Mpc/h)^3
     0.00783031         502.041         505.757 
       0.013688          638.27         643.921 
       0.019231         666.832         669.196 
      0.0249154         634.954         635.262 
      0.0312784         565.235         565.712 
      0.0375637          492.25         492.972 
      0.0433917         436.332         435.556 
      0.0492413         391.374         391.541 
      0.0555754         358.342         357.388 
      0.0619321         330.376         332.069 
       0.067871         311.164         311.414 
      0.0738098         289.965         290.096 
      0.0800417         265.839         265.492 
      0.0862327         239.381           239.5 
      0.0921407         215.123         215.195 
      0.0982031         193.397         192.866 
       0.104506          173.65         173.948 
       0.110769         159.696         159.835 
       0.116806         150.569         149.983 
       0.122832         142.501         142.569 
       0.129052         136.272          135.98 
       0.135211         129.829         129.287 
       0.141259         122.048         121.912 
       0.147318         113.451          113.72 
       0.153489         105.182         105.043 
       0.159709         97.1311          96.681 
       0.165845         89.2468         89.4265 
       0.171974         84.1638         83.4985 
       0.178125         79.4834         78.8708 
       0.184229         75.6024         75.3188 
        0.19034         73.0632         72.3869 
       0.196428         70.2161         69.6628 
       0.202534         66.8521         66.8073 
       0.208729         64.1084         63.6353 
       0.214876         60.9971         60.2521 
       0.220989         57.0685         56.8231 
       0.227147         54.3654         53.5207 
        0.23329         51.4889         50.5592 
       0.239377         49.0601         48.0471 
       0.245482         46.8728         45.9451 
       0.251667         44.8587         44.1588 
       0.257832         43.6085         42.5938 
       0.263955         41.8612         41.1215 
       0.270079         40.3735          39.635 
        0.27624         38.6464         38.0817 
       0.282372         37.1121          36.486 
        0.28843         35.8724         34.9089 
       0.294538         34.2757         33.3776 
       0.300721         32.6709         31.9434 
        0.30691         31.6431         30.6534 
       0.313033         30.4268         29.5235 
       0.319153         29.6817          28.516 
       0.325316         28.3936         27.5879 
        0.33145         27.4902         26.7105 
       0.337538         26.7018         25.8563 
       0.343633         25.9314         25.0011 
       0.349808         24.9988         24.1358 
       0.355968         24.1292         23.2832 
       0.362074          23.457         22.4671 
       0.368217         22.6459         21.6896 
       0.374374         22.0753         20.9638 
       0.380519         21.2236         20.2953 
       0.386598         20.5546         19.6819 
       0.392688         19.9495         19.1063 
        0.39888         19.4749         18.5485 
       0.405048          18.962         18.0103 
       0.411186         18.4133         17.4867 
       0.417313         17.9002         16.9731 
       0.423458         17.3157         16.4699 
       0.429607         16.9539         15.9825 
       0.435692         16.5453         15.5197 
       0.441815         15.9836         15.0763 
       0.447964         15.4973         14.6551 
       0.454126         15.1892         14.2551 
       0.460267          14.919         13.8756 
       0.466387         14.4874         13.5135 
        0.47254         14.1867         13.1621 
       0.478662         13.7967         12.8223 
       0.484765         13.4737         12.4928 
       0.490885         13.0967         12.1716 
       0.497035         12.7555         11.8584 
       0.503198         12.5011         11.5553 
       0.509342         12.1515         11.2646 
       0.515458         11.9364          10.987 
       0.521598         11.6669         10.7195 
       0.527764          11.462         10.4611 
       0.533884         11.1163         10.2139 
           0.54          10.911         9.97534 
       0.546137         10.6106         9.74324 
       0.552299         10.4103         9.51684 
       0.558452          10.186         9.29723 
       0.564573         10.0046         9.08522 
       0.570708         9.78561          8.8793 
       0.576825         9.58674         8.68056 
       0.582926         9.37531         8.48875 
       0.589034          9.2103         8.30292 
       0.595184         9.06364         8.12196 
       0.601379         8.83251         7.94558 
       0.607522         8.65961         7.77609 
       0.613639         8.46122         7.61225 
       0.619772         8.33798         7.45257 
       0.625918         8.16795         7.29697 
       0.632068         8.03854         7.14563 
       0.638161           7.879         6.99993 
         0.6443         7.72354         6.85732 
       0.650464         7.55672         6.71828 
       0.656582          7.4757         6.58422 
       0.662703         7.34539         6.45388 
       0.668861         7.15563         6.32642 
       0.675024         7.04019          6.2024 
       0.681124         7.00703         6.08302 
       0.687237         6.84054          5.9666 
       0.693381         6.66925         5.85271 
       0.699536         6.61576         5.74161 
       0.705665          6.4948         5.63388 
       0.711789         6.35409         5.52901 
       0.717957         6.23924          5.4261 
        0.72409         6.15674         5.32642 
       0.730186         6.09392         5.22988 
       0.736317         5.96019         5.13526 
       0.742472         5.88426         5.04269 
       0.748622         5.79521         4.95254 
        0.75476          5.6594         4.86483 
       0.760888         5.60551         4.77941 
       0.767043         5.46787         4.69573 
       0.773185         5.40586         4.61425 
       0.779291          5.3668         4.53519 
       0.785407         5.26048         4.45787 
       0.791564         5.18567         4.38189 
       0.797719         5.09607         4.30774 
       0.803834         5.02903          4.2358 
       0.809972         4.94637         4.16526 
       0.816124         4.87957          4.0962 
       0.822261          4.8124         4.02892 
       0.828378         4.73417         3.96336 
       0.834502         4.67211         3.89924 
       0.840667         4.62058         3.83613 
       0.846816         4.53771         3.77462 
       0.852925         4.47207         3.71486 
       0.859047         4.41238         3.65629 
       0.865192         4.35273         3.59879 
       0.871341         4.29367         3.54251 
       0.877463         4.22716          3.4877 
       0.883569           4.176          3.4342 
       0.889708         4.12547         3.38157 
       0.895864         4.07071         3.32991 
       0.902008         4.00415         3.27945 
       0.908149         3.95642         3.23007 
       0.914301         3.91424         3.18165 
       0.920448         3.86425         3.13427 
       0.926574         3.83263         3.08803 
       0.932687         3.77069         3.04283 
       0.938823           3.706         2.99839 
       0.944975         3.67558         2.95474 
       0.951105         3.60776         2.91212 
       0.957225         3.57689         2.87043 
       0.963368          3.5411         2.82942 
       0.969511         3.50018         2.78922 
       0.975621         3.44846         2.75003 
       0.981748         3.38661         2.71149 
       0.987916         3.35619         2.67346 
        0.99406         3.33157         2.63632 
        1.00019         3.28856         2.59996 
        1.00632         3.25724         2.56432 
        1.01246         3.20985         2.52931 
        1.01859         3.17431         2.49502 
        1.02471         3.12328         2.46141 
        1.03085         3.09616         2.42831 
        1.03698          3.0654          2.3959 
        1.04314          3.0335         2.36394 
        1.04929          2.9988         2.33265 
        1.05541         2.95451         2.30206 
        1.06154         2.93322         2.27195 
        1.06769         2.90898         2.24233 
        1.07382         2.86503         2.21335 
        1.07993         2.82943         2.18495 
        1.08607         2.80779         2.15694 
        1.09222         2.76747         2.12939 
        1.09836         2.75495         2.10236 
        1.10449         2.70317         2.07583 
        1.11063         2.68033         2.04974 
        1.11677         2.65833         2.02411 
         1.1229         2.62055         1.99897 
        1.12903         2.60518         1.97423 
        1.13518         2.56767         1.94989 
        1.14131         2.54552         1.92599 
        1.14745         2.51801          1.9025 
        1.15359         2.49278          1.8794 
        1.15973         2.46635         1.85667 
        1.16584         2.43976         1.83443 
        1.17197         2.41259         1.81253 
        1.17811         2.38877         1.79091 
        1.18424         2.36443         1.76972 
        1.19038         2.34015         1.74881 
        1.19652         2.32415         1.72825 
        1.20267         2.30467         1.70802 
        1.20881         2.27499         1.68813 
        1.21495         2.25538         1.66858 
        1.22108         2.23603         1.64935 
         1.2272         2.20406         1.63048 
        1.23334         2.19242         1.61185 
        1.23949         2.17118         1.59348 
        1.24562         2.15067         1.57544 
        1.25174         2.13196         1.55772 
        1.25789         2.10523         1.54021 
        1.26402         2.08395         1.52301 
        1.27014         2.06327         1.50612 
        1.27628         2.04883         1.48943 
        1.28244          2.0318         1.47297 
        1.28858         2.00983         1.45678 
        1.29471         1.98747         1.44087 
        1.30084         1.97382         1.42521 
        1.30697         1.96061         1.40977 
        1.31312         1.94134         1.39453 
        1.31925          1.9237         1.37957 
        1.32537         1.90887         1.36485 
        1.33151         1.88771         1.35029 
        1.33765         1.87335         1.33595 
        1.34378          1.8552         1.32185 
        1.34992         1.84343         1.30795 
        1.35606         1.82447         1.29421 
         1.3622         1.81114          1.2807 
        1.36833         1.79262         1.26742 
        1.37445         1.77734         1.25433 
        1.38059         1.76261         1.24139 
        1.38675         1.74793          1.2286 
        1.39288         1.73504         1.21604 
        1.39901         1.71881         1.20367 
        1.40515         1.70291         1.19144 
         1.4113         1.69534         1.17939 
        1.41742         1.67462         1.16755 
        1.42355         1.65841         1.15585 
         1.4297         1.65164         1.14428 
        1.43585         1.63476         1.13287 
        1.44198         1.62283         1.12167 
        1.44809         1.60972         1.11063 
        1.45423         1.59828         1.09971 
        1.46036         1.58521         1.08895 
        1.46649         1.56643         1.07834 
        1.47263         1.55957         1.06785 
        1.47877         1.55235         1.05752 
        1.48491         1.53065          1.0473 
        1.49104         1.52411         1.03725 
        1.49718         1.50882         1.02731 
        1.50333         1.49885          1.0175 
        1.50947         1.48954         1.00783 
         1.5156         1.47636        0.998304 
        1.52172         1.46655        0.988902 
        1.52787         1.45318        0.979604 
          1.534         1.44587        0.970436 
        1.54013         1.43239        0.961397 
        1.54627         1.42149        0.952457 
        1.55241          1.4085         0.94363 
        1.55855         1.40004        0.934928 
        1.56467         1.38976        0.926361 
         1.5708         1.37915        0.917877 
        1.57695         1.36692        0.909488 
        1.58308         1.35494        0.901223 
        1.58922         1.35067        0.893056 
        1.59535         1.33593        0.884994 
         1.6015         1.32589         0.87702 
        1.60764         1.31859        0.869149 
        1.61376         1.30753        0.861397 
        1.61989         1.29988        0.853734 
        1.62604         1.28649        0.846147 
        1.63218         1.28309        0.838657 
        1.63831         1.27108        0.831277 
        1.64444         1.26203        0.823982 
        1.65059         1.25495        0.816759 
        1.65673         1.24353         0.80963 
        1.66285          1.2358        0.802607 
        1.66898         1.22912        0.795666 
        1.67512         1.21613        0.788794 
        1.68127         1.20751        0.781997 
         1.6874         1.20386        0.775296 
        1.69353         1.19257        0.768678 
        1.69967         1.18562        0.762122 
        1.70581            1.18        0.755646 
        1.71193         1.16825         0.74927 
        1.71806         1.16179        0.742954 
        1.72421         1.15465        0.736699 
        1.73035         1.14203        0.730524 
        1.73649         1.14204        0.724422 
        1.74262         1.12978        0.718394 
        1.74876         1.12305        0.712431 
        1.75489         1.11681        0.706549 
        1.76101         1.10632        0.700736 
        1.76715         1.10075         0.69498 
        1.77329         1.09463        0.689282 
        1.77943         1.08691        0.683646 
        1.78557         1.08252        0.678082 
        1.79171         1.07495        0.672579 
        1.79785         1.06684        0.667137 
        1.80399         1.05815        0.661756 
        1.81012         1.05258        0.656442 
        1.81625         1.04552        0.651189 
        1.82239         1.03965        0.645987 
        1.82853         1.03273        0.640843 
        1.83466         1.02518        0.635761 
        1.84078         1.01799         0.63074 
        1.84692         1.01328        0.625765 
        1.85306         1.00873        0.620838 
         1.8592        0.999764        0.615972 
        1.86533        0.995339        0.611161 
        1.87147        0.985435        0.606396 
        1.87761        0.981899         0.60168 
        1.88375        0.975981         0.59702 
        1.88988        0.968689        0.592415 
        1.89601        0.962785        0.587856 
        1.90215        0.958413        0.583342 
        1.90829        0.951883        0.578877 
        1.91442        0.946063         0.57446 
        1.92056        0.942745        0.570092 
         1.9267        0.935272        0.565766 
        1.93284        0.928684        0.561482 
        1.93897        0.924023        0.557251 
        1.94509        0.919986        0.553073 
        1.95123        0.911676        0.548927 
        1.95737        0.907292        0.544821 
        1.96349        0.901791        0.540768 
        1.96964         0.89798        0.536745 
        1.97578        0.889805        0.532761 
        1.98192        0.886042        0.528826 
        1.98805         0.88143         0.52493 
        1.99419        0.876911        0.521074 
        2.00033        0.871958        0.517254 
        2.00647        0.866792        0.513475 
         2.0126        0.862837        0.509739 
        2.01874        0.857419        0.506035 
        2.02488        0.850641        0.502365 
        2.03101        0.846486        0.498739 
        2.03714         0.84335        0.495151 
        2.04328         0.83673        0.491595 
        2.04941         0.83232        0.488078 
        2.05554        0.828232        0.484597 
        2.06167        0.823635        0.481146 
        2.06781        0.816665        0.477728 
        2.07396        0.815327        0.474338 
        2.08009        0.809404        0.470988 
        2.08622        0.805259        0.467674 
        2.09237        0.800955        0.464385 
        2.09851        0.795468        0.461128 
        2.10464        0.792787        0.457907 
        2.11077        0.785928        0.454721 
        2.11691        0.783005        0.451559 
        2.12305        0.780426        0.448426 
        2.12918        0.774275        0.445331 
        2.13531         0.77057        0.442265 
        2.14145        0.765975        0.439221 
         2.1476        0.763474        0.436202 
        2.15372         0.75834        0.433227 
        2.15985        0.753989        0.430277 
        2.16599        0.751148        0.427346 
        2.17213        0.746611        0.424445 
        2.17827        0.741153        0.421573 
         2.1844        0.739449        0.418729 
        2.19054        0.735274        0.415911 
        2.19666        0.731702        0.413123 
         2.2028         0.72685        0.410358 
        2.20893        0.723935        0.407617 
        2.21508        0.719806        0.404899 
        2.22122        0.717324        0.402204 
        2.22736        0.710597         0.39954 
        2.23349        0.707294          0.3969 
        2.23962        0.704987        0.394283 
        2.24577        0.701292        0.391688 
         2.2519        0.697805        0.389119 
        2.25802         0.69535        0.386578 
        2.26417        0.690012        0.384052 
        2.27031        0.687373        0.381547 
        2.27644        0.685411        0.379072 
        2.28257        0.679675        0.376619 
        2.28872        0.678165        0.374183 
        2.29486        0.673239        0.371769 
        2.30099        0.670753        0.369381 
        2.30712        0.667295        0.367014 
        2.31326        0.664109        0.364663 
         2.3194         0.66155        0.362334 
        2.32553         0.65724         0.36003 
        2.33166        0.655241        0.357747 
         2.3378        0.651311         0.35548 
        2.34394        0.648162        0.353233 
        2.35007         0.64387        0.351008 
        2.35619        0.640171        0.348805 
        2.36233        0.637787        0.346617 
        2.36848        0.636081        0.344442 
        2.37462        0.633315        0.342291 
        2.38075        0.629006         0.34016 
        2.38689        0.627032        0.338046 
        2.39303        0.623369         0.33595 
        2.39916        0.620489        0.333874 
        2.40529        0.619068        0.331816 
        2.41143        0.613888        0.329774 
        2.41757        0.612104        0.327748 
         2.4237        0.609029        0.325743 
        2.42983        0.606147        0.323755 
        2.43598          0.6036        0.321779 
        2.44211        0.599745        0.319822 
        2.44823        0.598257        0.317886 
        2.45437         0.59574        0.315961 
        2.46052        0.593025         0.31405 
        2.46665        0.589609        0.312159 
        2.47279        0.586997        0.310284 
        2.47892         0.58464        0.308423 
        2.48507        0.582671        0.306575 
         2.4912         0.57926        0.304746 
