# k  (h/Mpc)    P(k)  (Mpc/h)^3    P_linear(k)  (Mpc/h)^3
     0.00783031         2746.16         2765.69 
       0.013688            3559         3611.88 
       0.019231         3829.64         3858.45 
      0.0249154         3770.51         3771.88 
      0.0312784         3452.89         3469.15 
      0.0375637         3085.49         3110.41 
      0.0433917         2801.52         2805.69 
      0.0492413         2540.59         2557.58 
      0.0555754         2350.54         2353.59 
      0.0619321         2156.22         2195.58 
       0.067871         2047.35         2065.97 
      0.0738098         1921.82         1935.23 
      0.0800417         1779.83         1787.57 
      0.0862327         1619.16         1632.26 
      0.0921407         1473.82         1485.21 
      0.0982031         1345.11         1346.68 
       0.104506         1212.96         1224.93 
       0.110769         1121.41         1129.81 
       0.116806         1065.17         1060.15 
       0.122832         1001.14         1006.06 
       0.129052         957.866         958.515 
       0.135211         918.902         912.526 
       0.141259         863.731           864.1 
       0.147318          803.64         811.408 
       0.153489         754.866         755.455 
       0.159709         709.014          700.49 
       0.165845         649.476         651.339 
       0.171974         623.703         609.649 
       0.178125         592.146         575.796 
       0.184229         556.845         549.015 
        0.19034         541.627         526.832 
       0.196428         522.297         506.845 
       0.202534         493.188         486.803 
       0.208729         479.849         465.222 
       0.214876         461.081         442.412 
       0.220989         429.776         419.092 
       0.227147         417.417         396.177 
        0.23329         399.256         375.072 
       0.239377          385.22         356.666 
       0.245482         366.076         340.915 
       0.251667         350.828         327.386 
       0.257832         345.538         315.632 
       0.263955         328.378         304.853 
       0.270079         317.737         294.251 
        0.27624         304.318         283.355 
       0.282372         295.349         272.182 
        0.28843          291.51         261.024 
       0.294538         277.915         250.014 
       0.300721         265.996         239.496 
        0.30691         260.933         229.879 
       0.313033         250.417         221.353 
       0.319153         245.933         213.751 
       0.325316         237.033         206.804 
        0.33145         230.444         200.346 
       0.337538         223.661         194.143 
       0.343633         217.205          187.99 
       0.349808         210.779         181.752 
       0.355968         205.216         175.564 
       0.362074         201.075         169.567 
       0.368217         196.324         163.782 
       0.374374         192.075         158.333 
       0.380519          183.93         153.279 
       0.386598         179.921         148.654 
       0.392688         175.345         144.338 
        0.39888         172.034          140.19 
       0.405048         168.473         136.225 
       0.411186         165.339         132.379 
       0.417313          161.24         128.604 
       0.423458         157.192         124.891 
       0.429607         154.492         121.263 
       0.435692         151.742         117.793 
       0.441815         147.162         114.454 
       0.447964         143.123         111.268 
       0.454126         140.517         108.244 
       0.460267         139.505         105.389 
       0.466387         136.252         102.676 
        0.47254         134.705         100.051 
       0.478662          130.31         97.5213 
       0.484765         128.328         95.0688 
       0.490885         125.385         92.6687 
       0.497035         124.515         90.3189 
       0.503198         121.441         88.0371 
       0.509342         118.532          85.842 
       0.515458         117.333         83.7391 
       0.521598         114.548         81.7112 
       0.527764         113.299         79.7581 
       0.533884         112.147         77.8951 
           0.54         109.431         76.0985 
       0.546137         106.701         74.3515 
       0.552299         105.308          72.648 
       0.558452         103.395         70.9957 
       0.564573         102.991         69.3975 
       0.570708         99.9754         67.8401 
       0.576825         98.9813         66.3331 
       0.582926         97.8222         64.8771 
       0.589034         96.2313         63.4675 
       0.595184          95.023         62.0958 
       0.601379         92.5925         60.7591 
       0.607522         91.4713         59.4746 
       0.613639         90.5574          58.233 
       0.619772         89.0741         57.0237 
       0.625918         87.8406         55.8458 
       0.632068         86.8297         54.6997 
       0.638161         85.2313         53.5948 
         0.6443          84.554         52.5115 
       0.650464         82.8511          51.454 
       0.656582          82.462         50.4335 
       0.662703         81.5367         49.4416 
       0.668861         79.7019         48.4724 
       0.675024          79.421         47.5299 
       0.681124         78.3351         46.6229 
       0.687237         76.7751         45.7381 
       0.693381         76.1508         44.8721 
       0.699536         75.5277         44.0265 
       0.705665         74.2386          43.206 
       0.711789         73.2333          42.407 
       0.717957         72.2489         41.6228 
        0.72409          71.657          40.863 
       0.730186         71.2136         40.1273 
       0.736317         69.9596         39.4062 
       0.742472         69.2329         38.7006 
       0.748622         68.2292         38.0133 
        0.75476         67.1969         37.3443 
       0.760888         67.0468         36.6926 
       0.767043         65.9034         36.0539 
       0.773185         65.3754         35.4318 
       0.779291          64.596         34.8279 
       0.785407         63.6257         34.2374 
       0.791564         63.6503         33.6569 
       0.797719         62.7296         33.0903 
       0.803834         62.1275         32.5405 
       0.809972          61.405         32.0014 
       0.816124         60.8177         31.4735 
       0.822261         60.1212         30.9592 
       0.828378         59.7873          30.458 
       0.834502         59.0892         29.9675 
       0.840667         58.6419         29.4849 
       0.846816         57.6793         29.0143 
       0.852925         57.5274          28.557 
       0.859047         57.0878         28.1087 
       0.865192         56.2333         27.6686 
       0.871341         55.6673         27.2377 
       0.877463         55.2885          26.818 
       0.883569         55.0521         26.4083 
       0.889708         54.4518         26.0052 
       0.895864         53.8582         25.6095 
       0.902008         53.2895         25.2229 
       0.908149         52.9372         24.8446 
       0.914301         52.5926         24.4735 
       0.920448         52.0904         24.1104 
       0.926574         51.3001         23.7561 
       0.932687         51.0345         23.4096 
       0.938823         50.5165         23.0689 
       0.944975         50.1077         22.7343 
       0.951105          49.668         22.4075 
       0.957225         49.4871         22.0878 
       0.963368         48.9024         21.7733 
       0.969511         48.5232          21.465 
       0.975621         48.1181         21.1643 
       0.981748         47.6285         20.8687 
       0.987916         47.3582         20.5769 
        0.99406         46.8916         20.2918 
        1.00019         46.5757         20.0127 
        1.00632         46.2333         19.7392 
        1.01246         45.9036         19.4704 
        1.01859         45.4663         19.2071 
        1.02471         45.0513          18.949 
        1.03085         44.9418         18.6948 
        1.03698         44.5465         18.4459 
        1.04314         44.2187         18.2004 
        1.04929         43.7727         17.9601 
        1.05541         43.5983          17.725 
        1.06154         43.3813         17.4937 
        1.06769         42.7926         17.2661 
        1.07382         42.5867         17.0433 
        1.07993         42.2033         16.8251 
        1.08607         41.9574         16.6097 
        1.09222         41.6853          16.398 
        1.09836         41.3395         16.1902 
        1.10449         41.1295         15.9863 
        1.11063         40.8089         15.7857 
        1.11677          40.766         15.5886 
         1.1229         40.3406         15.3952 
        1.12903         40.1148          15.205 
        1.13518         39.8988         15.0179 
        1.14131         39.5609          14.834 
        1.14745          39.121         14.6533 
        1.15359         38.8587         14.4757 
        1.15973         38.6081         14.3009 
        1.16584         38.3917         14.1298 
        1.17197         38.0026         13.9613 
        1.17811          37.841          13.795 
        1.18424         37.4886          13.632 
        1.19038         37.3571         13.4711 
        1.19652         37.1159         13.3129 
        1.20267         36.9079         13.1573 
        1.20881         36.6667         13.0042 
        1.21495         36.4146         12.8538 
        1.22108         36.3521         12.7058 
         1.2272         36.1063         12.5605 
        1.23334         35.8543         12.4171 
        1.23949         35.6002         12.2757 
        1.24562         35.2602         12.1368 
        1.25174         35.1336         12.0004 
        1.25789         35.0094         11.8656 
        1.26402         34.7999         11.7332 
        1.27014         34.5653         11.6031 
        1.27628         34.2493         11.4746 
        1.28244         34.2352         11.3478 
        1.28858         33.8813         11.2231 
        1.29471         33.7063         11.1005 
        1.30084         33.4623           10.98 
        1.30697         33.3474          10.861 
        1.31312         33.0673         10.7436 
        1.31925         32.8895         10.6284 
        1.32537         32.6988          10.515 
        1.33151         32.5069         10.4028 
        1.33765         32.4315         10.2923 
        1.34378         32.2096         10.1837 
        1.34992         32.0582         10.0765 
        1.35606         31.8336         9.97072 
         1.3622         31.5708         9.86661 
        1.36833         31.4629         9.76425 
        1.37445         31.3279          9.6634 
        1.38059         31.1289         9.56367 
        1.38675         30.8694         9.46512 
        1.39288         30.7567         9.36836 
        1.39901         30.5931           9.273 
        1.40515         30.4599         9.17876 
         1.4113         30.3405         9.08587 
        1.41742         30.1784         8.99463 
        1.42355         29.9406         8.90448 
         1.4297         29.7714         8.81529 
        1.43585         29.6222         8.72737 
        1.44198          29.513           8.641 
        1.44809         29.3529         8.55595 
        1.45423         29.1906         8.47175 
        1.46036         29.0499         8.38883 
        1.46649         28.8687           8.307 
        1.47263         28.7496          8.2262 
        1.47877         28.6549         8.14651 
        1.48491         28.4854         8.06776 
        1.49104         28.2954         7.99023 
        1.49718         28.1734         7.91365 
        1.50333         28.0798         7.83797 
        1.50947         27.9225         7.76343 
         1.5156         27.7558         7.68998 
        1.52172         27.5798         7.61748 
        1.52787         27.4396         7.54578 
          1.534         27.3817         7.47508 
        1.54013          27.256         7.40538 
        1.54627         27.0554         7.33643 
        1.55241         26.9335         7.26836 
        1.55855         26.8121         7.20125 
        1.56467         26.7587         7.13518 
         1.5708         26.6164         7.06975 
        1.57695         26.4361         7.00504 
        1.58308         26.2473          6.9413 
        1.58922           26.15          6.8783 
        1.59535         26.0178         6.81612 
         1.6015         25.8841         6.75462 
        1.60764          25.805         6.69391 
        1.61376         25.7272         6.63412 
        1.61989         25.5333         6.57501 
        1.62604         25.4487         6.51649 
        1.63218         25.3114         6.45873 
        1.63831           25.19          6.4018 
        1.64444         25.0871         6.34553 
        1.65059         24.9561         6.28982 
        1.65673         24.8852         6.23483 
        1.66285         24.7033         6.18066 
        1.66898         24.6496         6.12712 
        1.67512          24.573         6.07411 
        1.68127         24.3939         6.02168 
         1.6874           24.32         5.96999 
        1.69353         24.1596         5.91894 
        1.69967         24.0572         5.86836 
        1.70581         23.9938          5.8184 
        1.71193         23.7841         5.76922 
        1.71806         23.7575          5.7205 
        1.72421         23.6729         5.67225 
        1.73035         23.5088         5.62461 
        1.73649         23.4233         5.57753 
        1.74262         23.2891         5.53103 
        1.74876          23.211         5.48503 
        1.75489         23.1355         5.43965 
        1.76101         23.0228          5.3948 
        1.76715         22.9087          5.3504 
        1.77329         22.8169         5.30644 
        1.77943         22.6909         5.26296 
        1.78557         22.6348         5.22003 
        1.79171         22.4917         5.17757 
        1.79785         22.4337         5.13558 
        1.80399         22.3177         5.09407 
        1.81012         22.2487         5.05307 
        1.81625         22.0904         5.01254 
        1.82239         22.0178          4.9724 
        1.82853         21.9446         4.93271 
        1.83466         21.8142          4.8935 
        1.84078         21.7739         4.85476 
        1.84692          21.714         4.81637 
        1.85306         21.5957         4.77836 
         1.8592         21.4946         4.74081 
        1.86533         21.3366          4.7037 
        1.87147         21.2851         4.66693 
        1.87761         21.1837         4.63055 
        1.88375         21.1406          4.5946 
        1.88988         20.9807         4.55906 
        1.89601         20.9224         4.52389 
        1.90215         20.8144         4.48906 
        1.90829         20.7351         4.45462 
        1.91442          20.594         4.42053 
        1.92056         20.6172         4.38683 
         1.9267         20.5123         4.35345 
        1.93284         20.4708          4.3204 
        1.93897         20.3337         4.28776 
        1.94509           20.26         4.25552 
        1.95123         20.1556         4.22354 
        1.95737         20.1245         4.19186 
        1.96349         19.9788         4.16058 
        1.96964         19.9376         4.12954 
        1.97578         19.8729          4.0988 
        1.98192         19.7591         4.06844 
        1.98805          19.666         4.03838 
        1.99419          19.609         4.00863 
        2.00033         19.5481         3.97916 
        2.00647         19.4489            3.95 
         2.0126         19.3828         3.92118 
        2.01874         19.2576          3.8926 
        2.02488         19.2102         3.86428 
        2.03101          19.121          3.8363 
        2.03714          19.054         3.80862 
        2.04328         18.9496         3.78119 
        2.04941         18.8612         3.75405 
        2.05554          18.858         3.72719 
        2.06167         18.7756         3.70057 
        2.06781         18.6755          3.6742 
        2.07396         18.6679         3.64805 
        2.08009         18.5161         3.62219 
        2.08622         18.4641         3.59662 
        2.09237         18.4155         3.57125 
        2.09851         18.2941         3.54612 
        2.10464         18.2679         3.52127 
        2.11077         18.1823         3.49669 
        2.11691         18.1345         3.47229 
        2.12305         18.0481         3.44813 
        2.12918         17.9149         3.42425 
        2.13531         17.9169         3.40059 
        2.14145         17.8142         3.37711 
         2.1476          17.716         3.35382 
        2.15372          17.698         3.33087 
        2.15985         17.6306         3.30811 
        2.16599         17.5617          3.2855 
        2.17213         17.5187         3.26312 
        2.17827         17.4078         3.24096 
         2.1844          17.352         3.21903 
        2.19054         17.3211         3.19729 
        2.19666         17.2348         3.17578 
         2.2028         17.1551         3.15445 
        2.20893         17.0864         3.13331 
        2.21508         17.0249         3.11234 
        2.22122         16.9548         3.09155 
        2.22736         16.9213           3.071 
        2.23349           16.86         3.05064 
        2.23962         16.8039         3.03045 
        2.24577         16.7296         3.01043 
         2.2519         16.6562         2.99062 
        2.25802         16.5424         2.97101 
        2.26417         16.5722         2.95153 
        2.27031         16.4822         2.93221 
        2.27644         16.4334         2.91311 
        2.28257         16.3207         2.89419 
        2.28872         16.3301          2.8754 
        2.29486         16.2528         2.85678 
        2.30099         16.1835         2.83837 
        2.30712         16.0774          2.8201 
        2.31326         16.0176         2.80197 
         2.3194         16.0005         2.78401 
        2.32553         15.9024         2.76624 
        2.33166         15.8638         2.74863 
         2.3378         15.8047         2.73115 
        2.34394         15.7598         2.71382 
        2.35007         15.6927         2.69666 
        2.35619         15.6266         2.67967 
        2.36233         15.5365         2.66279 
        2.36848          15.517         2.64601 
        2.37462         15.4576         2.62942 
        2.38075          15.417         2.61299 
        2.38689         15.3643         2.59668 
        2.39303         15.2634         2.58052 
        2.39916         15.2529         2.56451 
        2.40529         15.2047         2.54864 
        2.41143         15.1275         2.53289 
        2.41757         15.0591         2.51727 
         2.4237         15.0287         2.50181 
        2.42983         14.9544         2.48648 
        2.43598         14.9171         2.47123 
        2.44211         14.8609         2.45614 
        2.44823          14.811         2.44122 
        2.45437         14.7659         2.42637 
        2.46052         14.7194         2.41163 
        2.46665         14.6619         2.39705 
        2.47279         14.5959         2.38259 
        2.47892          14.537         2.36824 
        2.48507         14.5022         2.35399 
         2.4912         14.4477         2.33989 
