# k  (h/Mpc)    P(k)  (Mpc/h)^3    P_linear(k)  (Mpc/h)^3
     0.00783031         3259.48         3292.85 
       0.013688            3774         3833.24 
       0.019231         3651.46         3678.13 
      0.0249154          3229.6         3221.76 
      0.0312784         2639.85         2640.92 
      0.0375637         2152.55         2159.71 
      0.0433917         1848.07         1842.63 
      0.0492413          1633.3         1635.44 
      0.0555754         1499.03         1492.73 
      0.0619321         1367.58         1383.77 
       0.067871         1274.86         1278.02 
      0.0738098          1154.8         1154.54 
      0.0800417         1016.35         1011.41 
      0.0862327         875.226         872.848 
      0.0921407         764.015         760.006 
      0.0982031         681.525         672.575 
       0.104506         613.433         611.828 
       0.110769         576.881         574.208 
       0.116806         556.031         548.827 
       0.122832         526.473         524.291 
       0.129052         497.462         493.094 
       0.135211          463.02         454.821 
       0.141259         419.117         413.178 
       0.147318         376.559         372.547 
       0.153489         343.719         336.961 
       0.159709         319.286         309.511 
       0.165845         295.185         290.542 
       0.171974         287.551         277.513 
       0.178125         276.316         267.315 
       0.184229         262.761         257.171 
        0.19034         253.321         245.165 
       0.196428         239.712         230.988 
       0.202534         220.775         215.432 
       0.208729         209.513         199.835 
       0.214876         197.336         185.998 
       0.220989         183.008         174.687 
       0.227147         177.139         165.837 
        0.23329         170.258         159.008 
       0.239377         165.408         153.345 
       0.245482         158.268         147.894 
       0.251667         151.128         141.993 
       0.257832         147.433         135.532 
       0.263955         138.435         128.724 
       0.270079         131.691         121.936 
        0.27624             125          115.57 
       0.282372         120.056         109.985 
        0.28843         117.585         105.297 
       0.294538         112.422         101.284 
       0.300721         107.718         97.7193 
        0.30691         105.591         94.3712 
       0.313033          101.26         91.0727 
       0.319153         99.0862         87.6809 
       0.325316         94.6603         84.1946 
        0.33145         91.0549         80.7436 
       0.337538         87.7847         77.4665 
       0.343633         85.0202         74.4251 
       0.349808         81.9705         71.6435 
       0.355968         79.4696         69.1473 
       0.362074          77.855         66.8941 
       0.368217         75.5864         64.7705 
       0.374374         73.7027         62.7103 
       0.380519         70.6044         60.6847 
       0.386598         68.5956         58.6936 
       0.392688         66.3594         56.7311 
        0.39888         65.0447         54.8012 
       0.405048          63.345         52.9719 
       0.411186         61.6402         51.2653 
       0.417313         59.8605         49.6788 
       0.423458         58.1281         48.1884 
       0.429607         57.0301         46.7792 
       0.435692         56.0798         45.4443 
       0.441815         53.9541         44.1398 
       0.447964         52.2442         42.8614 
       0.454126         51.2907         41.6141 
       0.460267         50.7062         40.4079 
       0.466387         49.2462         39.2499 
        0.47254         48.4995         38.1373 
       0.478662         46.8257          37.085 
       0.484765         45.8778         36.0856 
       0.490885         44.5365         35.1278 
       0.497035          43.929         34.2045 
       0.503198         42.9421         33.3125 
       0.509342         41.7267         32.4504 
       0.515458         41.1278         31.6165 
       0.521598         40.1162         30.8049 
       0.527764         39.5247         30.0171 
       0.533884         38.7725         29.2633 
           0.54         37.9043         28.5378 
       0.546137         36.7803         27.8369 
       0.552299          36.108         27.1598 
       0.558452         35.3261         26.5087 
       0.564573         35.0243          25.883 
       0.570708         34.0634         25.2756 
       0.576825         33.6295         24.6878 
       0.582926          33.054          24.119 
       0.589034         32.3639         23.5669 
       0.595184          31.944         23.0285 
       0.601379         31.0825         22.5039 
       0.607522         30.5262         22.0005 
       0.613639           30.11         21.5152 
       0.619772         29.5226         21.0437 
       0.625918         28.9936         20.5859 
       0.632068         28.7058         20.1417 
       0.638161         28.1033         19.7147 
         0.6443         27.7016         19.2971 
       0.650464         26.9965         18.8899 
       0.656582         26.8332         18.4973 
       0.662703          26.458         18.1157 
       0.668861         25.7748         17.7427 
       0.675024         25.4676           17.38 
       0.681124         25.2988         17.0312 
       0.687237         24.7701         16.6916 
       0.693381          24.284         16.3598 
       0.699536         24.1286         16.0367 
       0.705665         23.6671         15.7238 
       0.711789          23.276         15.4197 
       0.717957         22.8115         15.1215 
        0.72409         22.5832         14.8329 
       0.730186         22.4657         14.5536 
       0.736317         21.9913         14.2799 
       0.742472         21.7262         14.0124 
       0.748622          21.383          13.752 
        0.75476         20.8678         13.4988 
       0.760888         20.8184         13.2524 
       0.767043          20.431         13.0113 
       0.773185         20.1904         12.7767 
       0.779291         19.9555         12.5494 
       0.785407         19.6593         12.3272 
       0.791564         19.5381         12.1091 
       0.797719         19.0831         11.8965 
       0.803834         19.0071         11.6903 
       0.809972         18.6385         11.4883 
       0.816124         18.4418         11.2907 
       0.822261         18.2292         11.0983 
       0.828378         18.0475         10.9109 
       0.834502         17.8491         10.7278 
       0.840667         17.6465         10.5477 
       0.846816         17.2686         10.3723 
       0.852925         17.2171          10.202 
       0.859047         17.0175         10.0352 
       0.865192         16.7683         9.87164 
       0.871341         16.5613         9.71161 
       0.877463         16.3593         9.55587 
       0.883569           16.26         9.40397 
       0.889708         16.0004         9.25462 
       0.895864         15.7949         9.10815 
       0.902008         15.6288         8.96518 
       0.908149         15.4139         8.82538 
       0.914301         15.3195         8.68836 
       0.920448         15.1114         8.55439 
       0.926574          14.997         8.42374 
       0.932687         14.7808         8.29611 
       0.938823          14.579         8.17069 
       0.944975         14.4916         8.04759 
       0.951105         14.3354         7.92748 
       0.957225         14.2265         7.81005 
       0.963368         14.0053         7.69461 
       0.969511          13.869         7.58152 
       0.975621         13.7508         7.47132 
       0.981748         13.5708         7.36305 
       0.987916         13.4835         7.25625 
        0.99406         13.3027         7.15198 
        1.00019         13.2153         7.04998 
        1.00632         13.1144         6.95008 
        1.01246         12.9523         6.85197 
        1.01859         12.8183         6.75592 
        1.02471         12.6822         6.66185 
        1.03085          12.617         6.56925 
        1.03698         12.5057         6.47861 
        1.04314         12.3409         6.38931 
        1.04929         12.1932          6.3019 
        1.05541         12.1276         6.21649 
        1.06154         12.0196         6.13246 
        1.06769         11.9075         6.04986 
        1.07382         11.7519         5.96907 
        1.07993         11.6569         5.88993 
        1.08607         11.5883         5.81192 
        1.09222         11.4492         5.73524 
        1.09836         11.3683         5.66005 
        1.10449         11.2628          5.5863 
        1.11063          11.199         5.51378 
        1.11677         11.1223         5.44259 
         1.1229         11.0038         5.37278 
        1.12903         10.9038         5.30414 
        1.13518         10.7911         5.23665 
        1.14131         10.7231         5.17038 
        1.14745         10.5681         5.10529 
        1.15359         10.4777         5.04132 
        1.15973         10.4096         4.97843 
        1.16584          10.314         4.91689 
        1.17197          10.216         4.85632 
        1.17811         10.1497         4.79658 
        1.18424         10.0768         4.73803 
        1.19038         10.0256         4.68029 
        1.19652         9.91118         4.62353 
        1.20267         9.86047         4.56773 
        1.20881         9.73003         4.51286 
        1.21495         9.67471         4.45898 
        1.22108         9.61158         4.40599 
         1.2272         9.52722           4.354 
        1.23334         9.48287         4.30272 
        1.23949          9.3896         4.25216 
        1.24562         9.30601         4.20255 
        1.25174          9.2627         4.15381 
        1.25789         9.16338          4.1057 
        1.26402          9.1131         4.05843 
        1.27014         9.06917         4.01203 
        1.27628         8.95619         3.96622 
        1.28244         8.94045         3.92104 
        1.28858         8.84284         3.87662 
        1.29471         8.74607         3.83299 
        1.30084         8.68539         3.79008 
        1.30697         8.66316         3.74775 
        1.31312         8.58278         3.70602 
        1.31925         8.53496         3.66505 
        1.32537         8.45882         3.62475 
        1.33151         8.40049         3.58491 
        1.33765         8.34483         3.54569 
        1.34378         8.32067         3.50714 
        1.34992         8.23595         3.46914 
        1.35606         8.15771         3.43163 
         1.3622         8.09957         3.39473 
        1.36833         8.07512         3.35847 
        1.37445         8.01412         3.32276 
        1.38059         7.94744         3.28746 
        1.38675         7.90715         3.25259 
        1.39288         7.83783         3.21837 
        1.39901         7.77915         3.18465 
        1.40515         7.73278         3.15135 
         1.4113         7.67761         3.11853 
        1.41742         7.64715         3.08631 
        1.42355         7.57163         3.05449 
         1.4297         7.52771         3.02302 
        1.43585         7.49194         2.99201 
        1.44198         7.45539         2.96155 
        1.44809         7.39272         2.93158 
        1.45423         7.33977         2.90191 
        1.46036         7.29446         2.87271 
        1.46649         7.24973          2.8439 
        1.47263         7.21003         2.81546 
        1.47877         7.15492         2.78742 
        1.48491         7.13215         2.75973 
        1.49104         7.07232         2.73247 
        1.49718         7.04041         2.70555 
        1.50333         6.99179         2.67896 
        1.50947          6.9467         2.65278 
         1.5156         6.91596         2.62699 
        1.52172          6.8599         2.60154 
        1.52787         6.84115         2.57638 
          1.534         6.78469         2.55158 
        1.54013         6.75789         2.52714 
        1.54627         6.70473         2.50297 
        1.55241         6.65022         2.47912 
        1.55855         6.63637         2.45561 
        1.56467         6.60904         2.43247 
         1.5708         6.55147         2.40957 
        1.57695          6.5093         2.38692 
        1.58308         6.46866         2.36462 
        1.58922         6.44488         2.34259 
        1.59535         6.41412         2.32085 
         1.6015         6.34202         2.29936 
        1.60764         6.31854         2.27815 
        1.61376          6.2966         2.25726 
        1.61989         6.24583         2.23663 
        1.62604         6.23133          2.2162 
        1.63218         6.19474         2.19604 
        1.63831          6.1526         2.17618 
        1.64444         6.10526         2.15656 
        1.65059         6.07543         2.13713 
        1.65673         6.06031         2.11797 
        1.66285         6.01878         2.09909 
        1.66898         5.99931         2.08044 
        1.67512         5.96454         2.06198 
        1.68127         5.90598         2.04373 
         1.6874         5.89439         2.02574 
        1.69353         5.84395         2.00797 
        1.69967         5.82863         1.99038 
        1.70581         5.79078         1.97301 
        1.71193         5.76424         1.95591 
        1.71806         5.72966         1.93898 
        1.72421         5.69859         1.92221 
        1.73035         5.68066         1.90566 
        1.73649         5.65368         1.88931 
        1.74262         5.59878         1.87317 
        1.74876         5.59659          1.8572 
        1.75489         5.56685         1.84145 
        1.76101         5.51499         1.82589 
        1.76715          5.5147         1.81049 
        1.77329         5.47618         1.79525 
        1.77943         5.43366         1.78018 
        1.78557         5.43585          1.7653 
        1.79171         5.39701         1.75059 
        1.79785         5.37924         1.73605 
        1.80399         5.33673         1.72167 
        1.81012         5.31509         1.70748 
        1.81625         5.28296         1.69345 
        1.82239         5.26398         1.67956 
        1.82853         5.22472         1.66584 
        1.83466         5.19213         1.65228 
        1.84078          5.1771         1.63888 
        1.84692         5.15623         1.62561 
        1.85306         5.13142         1.61248 
         1.8592         5.11406         1.59951 
        1.86533         5.08747         1.58669 
        1.87147         5.06599         1.57399 
        1.87761         5.04082         1.56143 
        1.88375         5.01404         1.54902 
        1.88988         4.99144         1.53676 
        1.89601         4.96446         1.52462 
        1.90215         4.93886         1.51261 
        1.90829         4.92434         1.50073 
        1.91442         4.89736         1.48898 
        1.92056         4.88868         1.47737 
         1.9267          4.8528         1.46587 
        1.93284         4.83773         1.45448 
        1.93897          4.8057         1.44324 
        1.94509         4.76809         1.43214 
        1.95123         4.77023         1.42112 
        1.95737         4.74945         1.41022 
        1.96349         4.71691         1.39946 
        1.96964         4.69051         1.38878 
        1.97578         4.67855         1.37821 
        1.98192         4.65606         1.36776 
        1.98805         4.63843         1.35743 
        1.99419         4.61992          1.3472 
        2.00033         4.58992         1.33707 
        2.00647         4.58085         1.32705 
         2.0126         4.56003         1.31715 
        2.01874         4.53211         1.30734 
        2.02488         4.52273         1.29761 
        2.03101         4.49266         1.28801 
        2.03714         4.46826         1.27851 
        2.04328         4.45485         1.26909 
        2.04941         4.43282         1.25978 
        2.05554          4.4184         1.25057 
        2.06167         4.40813         1.24143 
        2.06781         4.37906         1.23239 
        2.07396         4.35959         1.22343 
        2.08009         4.33805         1.21457 
        2.08622         4.33504          1.2058 
        2.09237         4.31383         1.19711 
        2.09851         4.28536          1.1885 
        2.10464         4.27556         1.17999 
        2.11077         4.25184         1.17158 
        2.11691         4.23945         1.16323 
        2.12305         4.22024         1.15495 
        2.12918         4.20343         1.14678 
        2.13531         4.18708         1.13869 
        2.14145         4.16725         1.13066 
         2.1476         4.15078         1.12269 
        2.15372         4.13109         1.11484 
        2.15985         4.12136         1.10706 
        2.16599         4.10455         1.09933 
        2.17213         4.10022         1.09169 
        2.17827         4.06571         1.08411 
         2.1844         4.05867         1.07662 
        2.19054         4.04542          1.0692 
        2.19666         4.02396         1.06185 
         2.2028         3.99908         1.05457 
        2.20893         3.99865         1.04735 
        2.21508         3.97312          1.0402 
        2.22122          3.9517          1.0331 
        2.22736         3.93615         1.02609 
        2.23349         3.92236         1.01915 
        2.23962         3.91291         1.01226 
        2.24577         3.89375         1.00543 
         2.2519         3.89442        0.998679 
        2.25802         3.84898        0.991998 
        2.26417         3.84701        0.985359 
        2.27031         3.83272        0.978775 
        2.27644         3.82168         0.97227 
        2.28257         3.80216        0.965824 
        2.28872         3.78794        0.959425 
        2.29486         3.77289        0.953085 
        2.30099         3.76525        0.946815 
        2.30712         3.74368        0.940599 
        2.31326         3.73494        0.934428 
         2.3194         3.71351        0.928317 
        2.32553         3.70393         0.92227 
        2.33166         3.69003        0.916279 
         2.3378         3.67874        0.910334 
        2.34394         3.65886         0.90444 
        2.35007         3.64805        0.898606 
        2.35619         3.64139         0.89283 
        2.36233         3.61912        0.887092 
        2.36848         3.60885        0.881393 
        2.37462         3.59839        0.875755 
        2.38075         3.58561        0.870173 
        2.38689         3.57666        0.864634 
        2.39303         3.55532        0.859145 
        2.39916         3.54766        0.853709 
        2.40529          3.5296        0.848321 
        2.41143          3.5264        0.842975 
        2.41757         3.50983        0.837673 
         2.4237         3.49871        0.832426 
        2.42983          3.4835        0.827225 
        2.43598         3.47606        0.822054 
        2.44211         3.45597        0.816936 
        2.44823         3.44408        0.811873 
        2.45437         3.43268        0.806839 
        2.46052         3.42688        0.801844 
        2.46665         3.40932          0.7969 
        2.47279         3.39611        0.791999 
        2.47892         3.38541        0.787136 
        2.48507         3.37584        0.782309 
         2.4912         3.36121        0.777533 
