# k  (h/Mpc)    Pcb(k)  (Mpc/h)^3    Pcb_linear(k)  (Mpc/h)^3
     0.00783031         346.934         350.229 
       0.013688         411.449         412.757 
       0.019231         403.789         403.979 
      0.0249154          361.25         362.424 
      0.0312784         304.361         304.244 
      0.0375637         252.507         251.839 
      0.0433917         214.463         214.266 
      0.0492413         188.079         187.674 
      0.0555754         168.428         168.601 
      0.0619321         155.858         155.347 
       0.067871         144.481         144.686 
      0.0738098         133.162         133.406 
      0.0800417         119.736         120.101 
      0.0862327         105.999          106.04 
      0.0921407         93.2356         93.1414 
      0.0982031         81.6949         81.6921 
       0.104506         72.8193         72.4617 
       0.110769         66.3004         66.0158 
       0.116806         61.8841         61.8478 
       0.122832         59.0479         58.8912 
       0.129052         56.1859         56.2343 
       0.135211         53.2535         53.3273 
       0.141259         49.9725         49.9087 
       0.147318         46.1889         46.0031 
       0.153489         41.9993         41.8741 
       0.159709         38.1439         37.9875 
       0.165845         35.0722         34.7483 
       0.171974         32.3841         32.2402 
       0.178125         30.5935         30.4046 
       0.184229         29.2904          29.077 
        0.19034         28.0552         28.0007 
       0.196428         27.0942         26.9543 
       0.202534         26.0328         25.7779 
       0.208729         24.5754         24.4041 
       0.214876         23.0291         22.9116 
       0.220989         21.6446         21.4092 
       0.227147          20.134         19.9974 
        0.23329         18.9221         18.7772 
       0.239377         17.9629         17.7869 
       0.245482         17.1081         16.9947 
       0.251667         16.5436          16.342 
       0.257832         15.9289         15.7687 
       0.263955         15.3887         15.2113 
       0.270079         14.7972         14.6237 
        0.27624         14.2201         13.9897 
       0.282372         13.5656         13.3319 
        0.28843         12.8728         12.6849 
       0.294538         12.2621          12.069 
       0.300721         11.7534         11.5073 
        0.30691         11.2079         11.0175 
       0.313033         10.7961         10.5995 
       0.319153         10.3571         10.2322 
       0.325316         10.1155         9.89262 
        0.33145         9.77015         9.56599 
       0.337538         9.43892         9.24032 
       0.343633          9.0818         8.90906 
       0.349808         8.76973         8.57088 
       0.355968         8.44106         8.23954 
       0.362074         8.11462         7.92563 
       0.368217         7.82781         7.63197 
       0.374374          7.5307         7.36275 
       0.380519         7.31044         7.11818 
       0.386598         7.09905         6.89592 
       0.392688          6.9048          6.6868 
        0.39888         6.68423         6.48273 
       0.405048         6.48949         6.28389 
       0.411186         6.29719         6.08828 
       0.417313         6.08732         5.89615 
       0.423458         5.91178         5.70812 
       0.429607         5.71409         5.52694 
       0.435692         5.54179          5.3568 
       0.441815          5.3832         5.19547 
       0.447964         5.25167         5.04317 
       0.454126          5.0809         4.89948 
       0.460267         4.94879         4.76339 
       0.466387         4.80267         4.63296 
        0.47254         4.68602         4.50585 
       0.478662         4.57119         4.38278 
       0.484765         4.43498          4.2631 
       0.490885         4.32064         4.14639 
       0.497035         4.23524         4.03311 
       0.503198         4.10939         3.92414 
       0.509342         4.00855         3.82011 
       0.515458          3.9015         3.72108 
       0.521598         3.80826         3.62605 
       0.527764         3.70408         3.53454 
       0.533884         3.63429         3.44697 
           0.54          3.5415         3.36222 
       0.546137         3.46192          3.2797 
       0.552299         3.38136          3.1993 
       0.558452           3.289         3.12143 
       0.564573         3.22326         3.04631 
       0.570708         3.14841         2.97347 
       0.576825         3.06942         2.90336 
       0.582926         3.00994         2.83597 
       0.589034          2.9251          2.7709 
       0.595184         2.86753         2.70759 
       0.601379         2.80287         2.64588 
       0.607522         2.75324         2.58656 
       0.613639         2.70352         2.52925 
       0.619772          2.6296         2.47349 
       0.625918         2.58346         2.41924 
       0.632068         2.53693         2.36653 
       0.638161         2.47592         2.31582 
         0.6443         2.42425         2.26623 
       0.650464         2.36813         2.21795 
       0.656582          2.3307         2.17149 
       0.662703         2.28381         2.12642 
       0.668861         2.24536         2.08241 
       0.675024         2.19464         2.03964 
       0.681124         2.14761          1.9985 
       0.687237         2.11377         1.95839 
       0.693381         2.07405         1.91916 
       0.699536         2.02136         1.88092 
       0.705665          1.9871         1.84388 
       0.711789         1.95416         1.80787 
       0.717957         1.91385          1.7726 
        0.72409         1.87995         1.73849 
       0.730186         1.84412         1.70549 
       0.736317         1.82245         1.67319 
       0.742472         1.78761         1.64161 
       0.748622         1.75104         1.61088 
        0.75476         1.71662           1.581 
       0.760888         1.68608         1.55192 
       0.767043          1.6664         1.52345 
       0.773185         1.63004         1.49576 
       0.779291         1.60544         1.46892 
       0.785407         1.57717          1.4427 
       0.791564          1.5528         1.41696 
       0.797719         1.52897         1.39187 
       0.803834         1.50536         1.36755 
       0.809972         1.47898         1.34372 
       0.816124         1.45147         1.32042 
       0.822261         1.42471         1.29774 
       0.828378         1.40548         1.27566 
       0.834502         1.38753         1.25408 
       0.840667         1.35707         1.23285 
       0.846816         1.33649         1.21218 
       0.852925         1.32225         1.19212 
       0.859047         1.30093         1.17246 
       0.865192         1.27824         1.15319 
       0.871341         1.25963         1.13434 
       0.877463         1.24394         1.11599 
       0.883569         1.22066          1.0981 
       0.889708         1.20227         1.08051 
       0.895864         1.18447         1.06326 
       0.902008         1.16471         1.04643 
       0.908149         1.14941         1.02997 
       0.914301          1.1265         1.01384 
       0.920448         1.11246        0.998068 
       0.926574         1.09563        0.982689 
       0.932687         1.07959        0.967668 
       0.938823           1.069        0.952908 
       0.944975         1.05235        0.938423 
       0.951105         1.03865        0.924291 
       0.957225         1.02695        0.910474 
       0.963368         1.01098        0.896895 
       0.969511        0.994859        0.883592 
       0.975621        0.979186        0.870631 
       0.981748        0.969952        0.857898 
       0.987916         0.95481        0.845341 
        0.99406         0.94008        0.833082 
        1.00019        0.930968        0.821092 
        1.00632        0.914929        0.809349 
        1.01246        0.903114        0.797819 
        1.01859        0.892752        0.786533 
        1.02471         0.87959         0.77548 
        1.03085        0.871056        0.764602 
        1.03698        0.857195        0.753956 
        1.04314        0.847468        0.743468 
        1.04929        0.834942        0.733205 
        1.05541        0.826191        0.723177 
        1.06154         0.81406        0.713313 
        1.06769        0.803561        0.703618 
        1.07382        0.793855        0.694135 
        1.07993        0.781652        0.684849 
        1.08607        0.776193        0.675695 
        1.09222         0.76404        0.666698 
        1.09836        0.757789        0.657877 
        1.10449        0.748084        0.649225 
        1.11063         0.73604         0.64072 
        1.11677        0.726416         0.63237 
         1.1229        0.718941        0.624183 
        1.12903        0.709547        0.616135 
        1.13518        0.702637        0.608221 
        1.14131        0.692803        0.600451 
        1.14745        0.680855        0.592821 
        1.15359        0.676138        0.585323 
        1.15973        0.665749         0.57795 
        1.16584        0.662056        0.570738 
        1.17197        0.653142        0.563639 
        1.17811        0.646419        0.556638 
        1.18424        0.640348        0.549777 
        1.19038        0.630909        0.543011 
        1.19652        0.622419        0.536362 
        1.20267        0.618176        0.529825 
        1.20881        0.609205        0.523398 
        1.21495        0.604212        0.517087 
        1.22108         0.59697        0.510882 
         1.2272        0.591643        0.504793 
        1.23334        0.583792         0.49879 
        1.23949        0.577376         0.49287 
        1.24562        0.571496        0.487063 
        1.25174        0.565739        0.481358 
        1.25789        0.559951        0.475728 
        1.26402        0.552054        0.470197 
        1.27014        0.546454        0.464768 
        1.27628        0.542676        0.459409 
        1.28244         0.53413        0.454124 
        1.28858        0.529487        0.448929 
        1.29471        0.525098        0.443827 
        1.30084        0.518224        0.438809 
        1.30697        0.512882        0.433862 
        1.31312        0.505589        0.428983 
        1.31925        0.501991        0.424195 
        1.32537        0.497508        0.419485 
        1.33151        0.493204        0.414829 
        1.33765        0.487517        0.410246 
        1.34378        0.481137        0.405742 
        1.34992         0.47764        0.401302 
        1.35606        0.472076        0.396919 
         1.3622        0.467676         0.39261 
        1.36833        0.462847        0.388374 
        1.37445        0.456778        0.384203 
        1.38059        0.452959        0.380081 
        1.38675        0.451175        0.376009 
        1.39288        0.445049        0.372013 
        1.39901        0.440882        0.368076 
        1.40515        0.436907        0.364188 
         1.4113        0.431668        0.360358 
        1.41742        0.427656        0.356597 
        1.42355        0.425444        0.352882 
         1.4297        0.419566        0.349209 
        1.43585         0.41576         0.34559 
        1.44198        0.413714        0.342036 
        1.44809        0.408186        0.338539 
        1.45423        0.404577        0.335077 
        1.46036        0.400873         0.33167 
        1.46649        0.397549         0.32831 
        1.47263         0.39334        0.324993 
        1.47877        0.389144        0.321723 
        1.48491        0.386041        0.318493 
        1.49104        0.381566        0.315314 
        1.49718        0.378845        0.312176 
        1.50333        0.375717        0.309076 
        1.50947        0.372258        0.306025 
         1.5156        0.368329        0.303019 
        1.52172        0.365366        0.300053 
        1.52787         0.36173        0.297121 
          1.534         0.35877        0.294232 
        1.54013        0.354949        0.291384 
        1.54627        0.352326        0.288569 
        1.55241        0.348788        0.285791 
        1.55855        0.345398        0.283053 
        1.56467        0.344085        0.280358 
         1.5708        0.339965        0.277691 
        1.57695        0.337397        0.275054 
        1.58308        0.334308        0.272458 
        1.58922        0.331522        0.269893 
        1.59535        0.328352        0.267362 
         1.6015        0.325582        0.264861 
        1.60764        0.323144        0.262392 
        1.61376        0.319503        0.259962 
        1.61989        0.317534         0.25756 
        1.62604        0.314767        0.255183 
        1.63218        0.312587        0.252838 
        1.63831        0.309844        0.250528 
        1.64444        0.306987        0.248245 
        1.65059        0.304639        0.245985 
        1.65673        0.301869        0.243756 
        1.66285        0.299779        0.241561 
        1.66898        0.297634        0.239392 
        1.67512        0.294333        0.237245 
        1.68127        0.291729        0.235123 
         1.6874        0.290441        0.233031 
        1.69353        0.287407        0.230966 
        1.69967        0.285427        0.228921 
        1.70581        0.282709        0.226901 
        1.71193        0.280683        0.224914 
        1.71806         0.27821        0.222946 
        1.72421        0.276244        0.220997 
        1.73035        0.273595        0.219074 
        1.73649        0.272139        0.217175 
        1.74262        0.269751        0.215299 
        1.74876         0.26738        0.213444 
        1.75489        0.265513        0.211615 
        1.76101        0.263162        0.209808 
        1.76715        0.261168        0.208019 
        1.77329        0.259105        0.206249 
        1.77943        0.256883        0.204499 
        1.78557        0.255411        0.202772 
        1.79171        0.253481        0.201064 
        1.79785        0.251356        0.199376 
        1.80399        0.249396        0.197707 
        1.81012        0.247747         0.19606 
        1.81625        0.245762        0.194432 
        1.82239        0.244155         0.19282 
        1.82853        0.241586        0.191227 
        1.83466        0.240077        0.189654 
        1.84078        0.238107          0.1881 
        1.84692        0.236473        0.186561 
        1.85306        0.235181        0.185037 
         1.8592        0.233135        0.183533 
        1.86533        0.231731        0.182046 
        1.87147        0.229881        0.180574 
        1.87761        0.228391        0.179117 
        1.88375        0.226181        0.177678 
        1.88988        0.224829        0.176257 
        1.89601        0.222918         0.17485 
        1.90215        0.221671        0.173457 
        1.90829        0.219809         0.17208 
        1.91442        0.218586        0.170718 
        1.92056        0.216768        0.169372 
         1.9267        0.215112        0.168039 
        1.93284         0.21356         0.16672 
        1.93897        0.212118        0.165417 
        1.94509        0.210926        0.164131 
        1.95123        0.209094        0.162855 
        1.95737        0.208025        0.161592 
        1.96349        0.206248        0.160345 
        1.96964        0.204795        0.159108 
        1.97578        0.203275        0.157883 
        1.98192        0.202098        0.156674 
        1.98805        0.200891        0.155477 
        1.99419        0.199233        0.154293 
        2.00033        0.197859         0.15312 
        2.00647        0.196956         0.15196 
         2.0126        0.195155        0.150814 
        2.01874        0.194066        0.149678 
        2.02488        0.192809        0.148552 
        2.03101        0.191286         0.14744 
        2.03714        0.189893        0.146341 
        2.04328         0.18893        0.145251 
        2.04941        0.187553        0.144174 
        2.05554         0.18639        0.143108 
        2.06167        0.185353        0.142051 
        2.06781        0.183413        0.141005 
        2.07396        0.182413        0.139968 
        2.08009        0.181222        0.138943 
        2.08622         0.18024         0.13793 
        2.09237        0.179276        0.136925 
        2.09851        0.178026        0.135929 
        2.10464        0.176779        0.134945 
        2.11077        0.175637        0.133972 
        2.11691        0.174424        0.133006 
        2.12305        0.173337         0.13205 
        2.12918        0.172382        0.131105 
        2.13531        0.171015         0.13017 
        2.14145        0.169935        0.129241 
         2.1476        0.169022        0.128321 
        2.15372        0.168185        0.127414 
        2.15985        0.166759        0.126515 
        2.16599         0.16549        0.125622 
        2.17213        0.164839        0.124738 
        2.17827        0.163766        0.123864 
         2.1844         0.16291        0.122998 
        2.19054        0.161683         0.12214 
        2.19666        0.160299        0.121292 
         2.2028        0.159762        0.120451 
        2.20893        0.158965        0.119617 
        2.21508        0.157501        0.118791 
        2.22122        0.156444        0.117972 
        2.22736        0.155867        0.117162 
        2.23349        0.154768         0.11636 
        2.23962        0.154093        0.115565 
        2.24577        0.152793        0.114777 
         2.2519        0.152199        0.113997 
        2.25802        0.150999        0.113226 
        2.26417        0.150183         0.11246 
        2.27031        0.149189          0.1117 
        2.27644        0.148388        0.110949 
        2.28257        0.147516        0.110205 
        2.28872        0.146586        0.109467 
        2.29486        0.145785        0.108736 
        2.30099        0.144902        0.108012 
        2.30712        0.144083        0.107295 
        2.31326        0.142974        0.106583 
         2.3194        0.142834        0.105878 
        2.32553        0.141894        0.105181 
        2.33166        0.141105         0.10449 
         2.3378        0.140191        0.103805 
        2.34394        0.139053        0.103125 
        2.35007        0.138384        0.102452 
        2.35619        0.137473        0.101786 
        2.36233        0.136583        0.101125 
        2.36848         0.13604        0.100468 
        2.37462        0.135045       0.0998178 
        2.38075        0.134631       0.0991743 
        2.38689        0.133678        0.098536 
        2.39303        0.133262       0.0979033 
        2.39916        0.131985       0.0972768 
        2.40529        0.131469       0.0966558 
        2.41143         0.13076       0.0960398 
        2.41757        0.129963       0.0954289 
         2.4237        0.129384       0.0948244 
        2.42983        0.128475       0.0942252 
        2.43598         0.12812       0.0936295 
        2.44211        0.127201         0.09304 
        2.44823         0.12674       0.0924568 
        2.45437        0.125626       0.0918771 
        2.46052        0.125164       0.0913018 
        2.46665         0.12437       0.0907324 
        2.47279        0.123705       0.0901681 
        2.47892        0.122977       0.0896082 
        2.48507        0.122208       0.0890525 
         2.4912        0.121741       0.0885025 
