# k  (h/Mpc)    P(k)  (Mpc/h)^3    P_linear(k)  (Mpc/h)^3
     0.00783031         2929.32          2956.4 
       0.013688         3593.57         3648.34 
       0.019231         3629.68         3656.16 
      0.0249154         3323.32         3319.57 
      0.0312784         2794.73         2799.57 
      0.0375637         2310.54         2320.51 
      0.0433917         1985.18         1980.65 
      0.0492413          1744.6         1748.34 
      0.0555754         1597.76         1591.32 
      0.0619321         1468.95         1487.67 
       0.067871         1396.13         1401.04 
      0.0738098         1297.74         1300.11 
      0.0800417         1173.83         1171.84 
      0.0862327         1030.39         1031.48 
      0.0921407         903.489         902.221 
      0.0982031         797.419         789.488 
       0.104506         703.145         702.138 
       0.110769         647.932         645.118 
       0.116806         620.272         611.522 
       0.122832         591.776         589.219 
       0.129052         571.815         567.709 
       0.135211         547.887         540.389 
       0.141259         508.962         505.095 
       0.147318         464.424         463.365 
       0.153489         424.422         419.355 
       0.159709         388.904          379.05 
       0.165845         351.854         347.042 
       0.171974         336.414         323.946 
       0.178125         320.482         308.525 
       0.184229         305.709         298.234 
        0.19034         299.656         289.709 
       0.196428         289.717         280.189 
       0.202534         272.517         267.993 
       0.208729         262.127         252.789 
       0.214876         247.742         236.052 
       0.220989         228.082         219.533 
       0.227147         218.059          204.65 
        0.23329         206.943         192.547 
       0.239377         199.406         183.442 
       0.245482         190.564         176.675 
       0.251667         183.325         171.268 
       0.257832         181.057         166.273 
       0.263955         172.269         160.857 
       0.270079         165.688         154.576 
        0.27624         157.956         147.464 
       0.282372         151.609         140.003 
        0.28843         147.908         132.822 
       0.294538         140.412         126.253 
       0.300721         133.797          120.59 
        0.30691         130.996         115.939 
       0.313033         125.808         112.144 
       0.319153         123.783         108.838 
       0.325316         119.057         105.657 
        0.33145         115.302          102.38 
       0.337538         111.694         98.9046 
       0.343633         108.295         95.2256 
       0.349808         104.389         91.4392 
       0.355968         101.051         87.7714 
       0.362074         98.7914         84.4114 
       0.368217         95.8791          81.384 
       0.374374          93.528         78.7202 
       0.380519         89.6586         76.3642 
       0.386598         87.4253         74.2238 
       0.392688         84.9113         72.1711 
        0.39888         83.3997         70.0851 
       0.405048         81.4269         67.9695 
       0.411186         79.4013         65.8398 
       0.417313          77.125         63.7195 
       0.423458         74.9332         61.6587 
       0.429607         73.4949         59.7147 
       0.435692         72.2426          57.927 
       0.441815          69.601         56.2711 
       0.447964         67.5352         54.7373 
       0.454126         66.3569           53.29 
       0.460267         65.7482         51.9014 
       0.466387         63.9785         50.5486 
        0.47254         63.1085         49.2024 
       0.478662         60.9641         47.8714 
       0.484765         59.8139         46.5684 
       0.490885         58.1273         45.3026 
       0.497035         57.4185         44.0834 
       0.503198         56.0785         42.9214 
       0.509342         54.5874         41.8271 
       0.515458         53.8953         40.7978 
       0.521598         52.5973         39.8111 
       0.527764         51.9006         38.8541 
       0.533884         51.0209         37.9291 
           0.54         49.8738         37.0269 
       0.546137         48.4626         36.1416 
       0.552299         47.6228          35.272 
       0.558452         46.6475         34.4272 
       0.564573         46.3225         33.6147 
       0.570708         45.0166         32.8328 
       0.576825         44.5021          32.086 
       0.582926         43.8112         31.3701 
       0.589034         42.9425         30.6784 
       0.595184         42.4029         30.0037 
       0.601379         41.2782          29.344 
       0.607522         40.6213          28.708 
       0.613639         40.1061         28.0916 
       0.619772         39.3655         27.4893 
       0.625918         38.6877         26.9013 
       0.632068         38.3246         26.3295 
       0.638161          37.557         25.7799 
         0.6443          37.066         25.2439 
       0.650464         36.1708         24.7239 
       0.656582         35.9712         24.2243 
       0.662703         35.5099         23.7394 
       0.668861          34.613         23.2652 
       0.675024         34.2747         22.8028 
       0.681124         34.0112         22.3565 
       0.687237         33.3199         21.9205 
       0.693381         32.7322         21.4936 
       0.699536          32.544         21.0773 
       0.705665         31.9591         20.6743 
       0.711789         31.4451         20.2829 
       0.717957         30.8606         19.8996 
        0.72409         30.5715         19.5289 
       0.730186         30.4295         19.1701 
       0.736317         29.8172         18.8186 
       0.742472         29.4608         18.4745 
       0.748622         29.0243         18.1392 
        0.75476         28.3703         17.8127 
       0.760888         28.3188         17.4948 
       0.767043         27.8143         17.1833 
       0.773185         27.5205         16.8802 
       0.779291         27.1949         16.5862 
       0.785407          26.797         16.2989 
       0.791564         26.6835         16.0169 
       0.797719         26.1092         15.7419 
       0.803834         25.9889         15.4752 
       0.809972         25.5224         15.2138 
       0.816124         25.2705          14.958 
       0.822261         24.9906         14.7088 
       0.828378         24.7642         14.4661 
       0.834502          24.507         14.2287 
       0.840667         24.2511         13.9951 
       0.846816         23.7512         13.7674 
       0.852925         23.6886         13.5463 
       0.859047         23.4573         13.3295 
       0.865192         23.1169         13.1169 
       0.871341          22.835         12.9088 
       0.877463         22.5935         12.7062 
       0.883569         22.4754         12.5085 
       0.889708         22.1425         12.3141 
       0.895864         21.8644         12.1234 
       0.902008         21.6384         11.9371 
       0.908149         21.3833         11.7549 
       0.914301         21.2694         11.5763 
       0.920448         20.9775         11.4016 
       0.926574         20.8074         11.2311 
       0.932687         20.5488         11.0646 
       0.938823         20.2881         10.9008 
       0.944975          20.155           10.74 
       0.951105         19.9678         10.5831 
       0.957225         19.8278         10.4296 
       0.963368         19.5376         10.2787 
       0.969511         19.3577         10.1308 
       0.975621         19.1965         9.98658 
       0.981748         18.9644         9.84486 
       0.987916         18.8547         9.70502 
        0.99406         18.6053         9.56845 
        1.00019         18.4982         9.43481 
        1.00632         18.3534         9.30386 
        1.01246         18.1665         9.17522 
        1.01859         17.9706         9.04925 
        1.02471         17.8041         8.92582 
        1.03085         17.7232         8.80429 
        1.03698         17.5798          8.6853 
        1.04314         17.3579         8.56802 
        1.04929         17.1641          8.4532 
        1.05541         17.0949         8.34097 
        1.06154         16.9545         8.23052 
        1.06769         16.7799         8.12192 
        1.07382         16.5871         8.01564 
        1.07993         16.4565         7.91153 
        1.08607         16.3709         7.80885 
        1.09222          16.189          7.7079 
        1.09836         16.0711         7.60888 
        1.10449         15.9489         7.51172 
        1.11063         15.8501         7.41617 
        1.11677         15.7672         7.32232 
         1.1229         15.6007         7.23028 
        1.12903         15.4698         7.13976 
        1.13518          15.323         7.05072 
        1.14131         15.2395         6.96327 
        1.14745         15.0314         6.87736 
        1.15359         14.9077         6.79289 
        1.15973         14.8129         6.70982 
        1.16584         14.6869         6.62853 
        1.17197         14.5525         6.54847 
        1.17811          14.471         6.46951 
        1.18424         14.3654         6.39209 
        1.19038         14.3012         6.31572 
        1.19652         14.1443         6.24064 
        1.20267         14.0781         6.16679 
        1.20881         13.9129         6.09416 
        1.21495         13.8312         6.02283 
        1.22108         13.7718         5.95265 
         1.2272         13.6591         5.88377 
        1.23334         13.5832         5.81583 
        1.23949         13.4605         5.74881 
        1.24562         13.3377         5.68303 
        1.25174         13.2872          5.6184 
        1.25789         13.1636         5.55457 
        1.26402         13.1022         5.49187 
        1.27014         13.0364         5.43029 
        1.27628         12.8789         5.36947 
        1.28244          12.874         5.30948 
        1.28858           12.73         5.25049 
        1.29471         12.5898         5.19254 
        1.30084          12.519         5.13552 
        1.30697         12.4943         5.07928 
        1.31312         12.3766          5.0238 
        1.31925         12.3155         4.96933 
        1.32537         12.2142         4.91573 
        1.33151         12.1371         4.86273 
        1.33765         12.0668         4.81055 
        1.34378         12.0285         4.75925 
        1.34992         11.9151         4.70866 
        1.35606         11.7982          4.6587 
         1.3622         11.7233         4.60956 
        1.36833         11.6997         4.56126 
        1.37445         11.6224         4.51367 
        1.38059         11.5399         4.46662 
        1.38675         11.4761         4.42014 
        1.39288         11.3695         4.37451 
        1.39901         11.3081         4.32954 
        1.40515         11.2412         4.28511 
         1.4113         11.1638         4.24133 
        1.41742         11.1212         4.19833 
        1.42355         11.0189         4.15585 
         1.4297         10.9646         4.11384 
        1.43585         10.9142         4.07242 
        1.44198         10.8674         4.03174 
        1.44809         10.7829         3.99169 
        1.45423         10.7085         3.95205 
        1.46036         10.6453         3.91301 
        1.46649         10.5808          3.8745 
        1.47263         10.5353         3.83647 
        1.47877         10.4611         3.79898 
        1.48491         10.4195         3.76193 
        1.49104         10.3394         3.72546 
        1.49718         10.2978         3.68945 
        1.50333         10.2374         3.65385 
        1.50947         10.1784         3.61881 
         1.5156         10.1313         3.58427 
        1.52172         10.0566          3.5502 
        1.52787         10.0299         3.51649 
          1.534         9.95909         3.48327 
        1.54013         9.91497         3.45051 
        1.54627         9.84116         3.41812 
        1.55241         9.76547         3.38614 
        1.55855         9.74765         3.35462 
        1.56467          9.7057         3.32358 
         1.5708         9.64571         3.29286 
        1.57695         9.58082         3.26248 
        1.58308         9.52315         3.23255 
        1.58922         9.48785         3.20298 
        1.59535         9.43989          3.1738 
         1.6015         9.34567         3.14494 
        1.60764         9.31416         3.11645 
        1.61376         9.28947          3.0884 
        1.61989         9.21259         3.06067 
        1.62604          9.1956         3.03322 
        1.63218         9.14848         3.00613 
        1.63831         9.08308         2.97944 
        1.64444         9.01561         2.95306 
        1.65059         8.97545         2.92693 
        1.65673         8.95719         2.90116 
        1.66285          8.8968         2.87577 
        1.66898         8.87538         2.85068 
        1.67512         8.82647         2.82583 
        1.68127         8.74384         2.80127 
         1.6874         8.73163         2.77705 
        1.69353          8.6576         2.75314 
        1.69967         8.63913         2.72945 
        1.70581         8.58934         2.70605 
        1.71193         8.55131         2.68302 
        1.71806         8.50848         2.66021 
        1.72421         8.46052         2.63762 
        1.73035         8.43377         2.61532 
        1.73649          8.4001         2.59328 
        1.74262         8.31226         2.57151 
        1.74876         8.31935         2.54999 
        1.75489         8.27715         2.52875 
        1.76101         8.20436         2.50776 
        1.76715         8.19914         2.48699 
        1.77329         8.15005         2.46642 
        1.77943         8.09195         2.44608 
        1.78557         8.09448           2.426 
        1.79171         8.03987         2.40614 
        1.79785         8.01468          2.3865 
        1.80399         7.95312         2.36709 
        1.81012         7.92705         2.34792 
        1.81625          7.8757         2.32897 
        1.82239         7.84843          2.3102 
        1.82853         7.79665         2.29165 
        1.83466         7.74988         2.27332 
        1.84078         7.73628         2.25522 
        1.84692         7.70995         2.23728 
        1.85306         7.67395         2.21952 
         1.8592         7.64467         2.20198 
        1.86533         7.60718         2.18463 
        1.87147           7.572         2.16746 
        1.87761         7.54357         2.15046 
        1.88375         7.50367         2.13367 
        1.88988         7.46693         2.11708 
        1.89601         7.44368         2.10065 
        1.90215         7.39847         2.08439 
        1.90829         7.37308         2.06831 
        1.91442         7.33376         2.05239 
        1.92056         7.33226         2.03666 
         1.9267         7.27554         2.02108 
        1.93284         7.26138         2.00565 
        1.93897         7.21161         1.99042 
        1.94509         7.16609         1.97537 
        1.95123         7.16304         1.96045 
        1.95737         7.13541         1.94567 
        1.96349          7.0806         1.93107 
        1.96964          7.0502         1.91659 
        1.97578         7.03281         1.90225 
        1.98192         7.00076         1.88809 
        1.98805         6.97547         1.87407 
        1.99419         6.95212         1.86019 
        2.00033         6.91182         1.84645 
        2.00647         6.89383         1.83285 
         2.0126         6.86698         1.81941 
        2.01874         6.82145         1.80609 
        2.02488         6.80876         1.79289 
        2.03101         6.77575         1.77984 
        2.03714         6.73702         1.76694 
        2.04328         6.71171         1.75415 
        2.04941          6.6819          1.7415 
        2.05554         6.66653         1.72899 
        2.06167         6.64929         1.71658 
        2.06781         6.60847         1.70429 
        2.07396         6.58473          1.6921 
        2.08009         6.54291         1.68005 
        2.08622         6.54534         1.66814 
        2.09237         6.51643         1.65632 
        2.09851          6.4743         1.64461 
        2.10464         6.46217         1.63303 
        2.11077         6.42314         1.62159 
        2.11691          6.4127         1.61022 
        2.12305         6.37915         1.59897 
        2.12918         6.35348         1.58785 
        2.13531         6.33239         1.57683 
        2.14145         6.30601         1.56589 
         2.1476         6.28722         1.55505 
        2.15372         6.25516         1.54436 
        2.15985         6.23772         1.53377 
        2.16599         6.21603         1.52324 
        2.17213         6.21031         1.51283 
        2.17827         6.16367         1.50251 
         2.1844         6.15122          1.4923 
        2.19054         6.13107         1.48218 
        2.19666         6.10013         1.47217 
         2.2028         6.07183         1.46224 
        2.20893         6.05813         1.45241 
        2.21508         6.03303         1.44265 
        2.22122         5.99543         1.43297 
        2.22736         5.97719         1.42341 
        2.23349         5.95721         1.41394 
        2.23962         5.94442         1.40455 
        2.24577          5.9178         1.39523 
         2.2519           5.916         1.38602 
        2.25802         5.84903          1.3769 
        2.26417         5.84969         1.36784 
        2.27031         5.82958         1.35885 
        2.27644         5.81193         1.34997 
        2.28257         5.77775         1.34117 
        2.28872         5.76483         1.33243 
        2.29486         5.74401         1.32377 
        2.30099         5.73268         1.31521 
        2.30712         5.69893         1.30672 
        2.31326         5.68295         1.29829 
         2.3194         5.65684         1.28994 
        2.32553         5.63834         1.28168 
        2.33166         5.61789         1.27349 
         2.3378         5.60287         1.26537 
        2.34394         5.57793         1.25731 
        2.35007          5.5581         1.24933 
        2.35619         5.54795         1.24144 
        2.36233         5.51502         1.23359 
        2.36848         5.50302          1.2258 
        2.37462          5.4845         1.21809 
        2.38075         5.46891         1.21045 
        2.38689         5.45556         1.20287 
        2.39303         5.42058         1.19536 
        2.39916         5.41447         1.18793 
        2.40529          5.3867         1.18055 
        2.41143         5.37673         1.17323 
        2.41757         5.35278         1.16598 
         2.4237         5.33933         1.15879 
        2.42983         5.32033         1.15167 
        2.43598         5.30616         1.14459 
        2.44211         5.28255         1.13758 
        2.44823         5.25726         1.13065 
        2.45437         5.24504         1.12376 
        2.46052         5.23528         1.11691 
        2.46665         5.21358         1.11014 
        2.47279         5.19424         1.10342 
        2.47892         5.17187         1.09676 
        2.48507         5.15922         1.09015 
         2.4912         5.13953          1.0836 
