#  k  (h/Mpc)          P(k)  (Mpc/h)^3     P_linear(k) (Mpc/h)^3
     0.00783031         20190.7         20505.6 
       0.013688         25603.6         25323.8 
       0.019231         25812.8         25784.9 
      0.0249154         23418.4         24045.9 
      0.0312784         20673.5         21020.4 
      0.0375637         17920.5         17997.6 
      0.0433917         15264.8         15661.3 
      0.0492413         13721.2         13896.4 
      0.0555754         12041.7         12553.9 
      0.0619321         11544.3         11594.3 
       0.067871         10422.6         10846.2 
      0.0738098          9700.6         10094.9 
      0.0800417         8743.16         9229.73 
      0.0862327         7993.44         8303.85 
      0.0921407         7323.98         7423.16 
      0.0982031         6510.46          6600.5 
       0.104506         6059.91         5893.62 
       0.110769         5543.54         5362.78 
       0.116806         5190.09         4996.24 
       0.122832         4917.41         4731.76 
       0.129052          4568.1         4512.49 
       0.135211          4357.4         4300.93 
       0.141259         4206.96         4068.43 
       0.147318         3990.15          3803.1 
       0.153489         3665.33         3511.56 
       0.159709         3465.98         3220.09 
       0.165845         3333.98          2959.1 
       0.171974         3138.61         2740.89 
       0.178125         2976.99         2569.37 
       0.184229         2828.67         2440.51 
        0.19034          2702.5         2340.25 
       0.196428         2645.31         2253.91 
       0.202534         2541.24         2167.56 
       0.208729         2441.32         2071.57 
       0.214876         2360.62         1965.96 
       0.220989         2279.37          1854.4 
       0.227147         2191.36         1742.48 
        0.23329          2105.1         1638.54 
       0.239377          2076.2         1548.29 
       0.245482         1954.69         1472.48 
       0.251667         1943.98         1409.47 
       0.257832         1867.68         1356.85 
       0.263955         1806.15         1310.19 
       0.270079         1748.84         1264.88 
        0.27624         1726.39         1217.85 
       0.282372         1658.53         1168.68 
        0.28843         1659.26         1118.45 
       0.294538          1582.6         1068.01 
       0.300721         1567.82         1019.29 
        0.30691          1516.2          974.64 
       0.313033         1483.61         935.351 
       0.319153         1468.15         900.853 
       0.325316         1418.93         870.031 
        0.33145         1391.08         841.977 
       0.337538         1362.49         815.407 
       0.343633         1340.16          789.15 
       0.349808         1299.67         762.369 
       0.355968         1288.14         735.549 
       0.362074         1279.39         709.231 
       0.368217         1236.92         683.646 
       0.374374         1199.13          659.41 
       0.380519         1202.06         636.963 
       0.386598         1166.09         616.549 
       0.392688         1160.18         597.669 
        0.39888         1129.14         579.773 
       0.405048         1120.87         562.829 
       0.411186         1103.64         546.487 
       0.417313         1080.12         530.505 
       0.423458         1062.58         514.717 
       0.429607         1051.61         499.221 
       0.435692         1032.57         484.342 
       0.441815         1022.64         469.951 
       0.447964         1003.22         456.197 
       0.454126         998.349         443.182 
       0.460267         973.471         430.933 
       0.466387         958.707         419.348 
        0.47254         962.469         408.225 
       0.478662         945.584         397.568 
       0.484765         923.128          387.25 
       0.490885         918.036         377.166 
       0.497035         898.237         367.301 
       0.503198         893.958           357.7 
       0.509342         882.378         348.433 
       0.515458         878.936         339.548 
       0.521598         859.199         330.995 
       0.527764         845.007         322.765 
       0.533884         841.652         314.923 
           0.54          837.34         307.385 
       0.546137         824.213         300.088 
       0.552299         817.271         292.997 
       0.558452         808.029         286.124 
       0.564573         799.494         279.473 
       0.570708          791.11         272.996 
       0.576825          772.84         266.733 
       0.582926          776.41         260.685 
       0.589034         766.854         254.824 
       0.595184         760.363         249.117 
       0.601379         751.279         243.561 
       0.607522          739.82         238.235 
       0.613639         739.233         233.102 
       0.619772         727.397         228.112 
       0.625918         720.611         223.256 
       0.632068         712.858          218.53 
       0.638161         708.867         213.976 
         0.6443         698.383         209.515 
       0.650464         696.999         205.165 
       0.656582         689.036         200.971 
       0.662703          687.09         196.898 
       0.668861         676.253         192.917 
       0.675024         669.561         189.046 
       0.681124         666.176         185.323 
       0.687237         661.817         181.695 
       0.693381         653.631         178.149 
       0.699536           641.7         174.692 
       0.705665         642.536         171.342 
       0.711789          638.14         168.083 
       0.717957         632.543         164.886 
        0.72409         628.746         161.789 
       0.730186         620.405         158.791 
       0.736317         617.898         155.852 
       0.742472         612.346         152.978 
       0.748622         606.649         150.181 
        0.75476         597.412          147.46 
       0.760888         594.131         144.813 
       0.767043         591.262         142.221 
       0.773185         586.693         139.698 
       0.779291         581.776         137.252 
       0.785407         575.756         134.861 
       0.791564          571.04         132.513 
       0.797719         569.748         130.221 
       0.803834         562.116         127.999 
       0.809972         559.474          125.82 
       0.816124         558.133         123.688 
       0.822261         549.644         121.612 
       0.828378         547.239          119.59 
       0.834502         541.603         117.612 
       0.840667          536.82         115.667 
       0.846816         533.981         113.772 
       0.852925         530.736         111.932 
       0.859047         528.917         110.128 
       0.865192         521.344         108.359 
       0.871341         517.787         106.628 
       0.877463         516.728         104.943 
       0.883569         511.364         103.298 
       0.889708         509.467         101.681 
       0.895864         507.699         100.094 
       0.902008         503.226          98.545 
       0.908149          495.28         97.0296 
       0.914301         494.415         95.5438 
       0.920448         492.004         94.0906 
       0.926574         484.566         92.6729 
       0.932687         482.574         91.2875 
       0.938823         478.725         89.9257 
       0.944975         477.253         88.5886 
       0.951105         473.629         87.2837 
       0.957225         469.648         86.0074 
       0.963368         464.644         84.7525 
       0.969511          463.73         83.5228 
       0.975621         460.549         82.3242 
       0.981748         456.492         81.1462 
       0.987916         453.914          79.984 
        0.99406         447.986         78.8491 
        1.00019         446.556         77.7386 
        1.00632             444         76.6506 
        1.01246          440.44         75.5819 
        1.01859         438.977         74.5355 
        1.02471         434.612         73.5104 
        1.03085         432.323         72.5011 
        1.03698         429.461          71.513 
        1.04314         426.269         70.5393 
        1.04929         422.429         69.5861 
        1.05541          422.95         68.6544 
        1.06154         416.777         67.7376 
        1.06769         415.021         66.8363 
        1.07382         411.433         65.9544 
        1.07993         409.308         65.0905 
        1.08607         408.396         64.2386 
        1.09222         403.065         63.4011 
        1.09836         399.893         62.5797 
        1.10449         398.724         61.7738 
        1.11063         392.634         60.9813 
        1.11677         394.103         60.2031 
         1.1229         390.919         59.4398 
        1.12903          388.16         58.6891 
        1.13518          384.01         57.9509 
        1.14131         382.443         57.2257 
        1.14745         379.154         56.5134 
        1.15359         377.506         55.8132 
        1.15973         375.477         55.1245 
        1.16584          372.31         54.4506 
        1.17197         370.805         53.7871 
        1.17811         367.906         53.1326 
        1.18424         364.307         52.4909 
        1.19038         362.973         51.8581 
        1.19652         360.886         51.2359 
        1.20267         359.213          50.624 
        1.20881         356.128         50.0223 
        1.21495         353.806         49.4313 
        1.22108         351.359           48.85 
         1.2272          349.48         48.2795 
        1.23334         347.681         47.7168 
        1.23949         343.808         47.1617 
        1.24562         341.974         46.6171 
        1.25174          340.87         46.0819 
        1.25789         336.961         45.5536 
        1.26402         335.473         45.0345 
        1.27014          332.96         44.5248 
        1.27628         330.087         44.0215 
        1.28244         330.669         43.5251 
        1.28858         326.944          43.037 
        1.29471         326.171         42.5575 
        1.30084         322.923         42.0858 
        1.30697         322.231         41.6205 
        1.31312         318.488         41.1617 
        1.31925         316.742         40.7112 
        1.32537         315.739         40.2679 
        1.33151         312.831         39.8297 
        1.33765         310.296         39.3983 
        1.34378         309.535         38.9741 
        1.34992         307.356         38.5559 
        1.35606         305.129          38.143 
         1.3622         303.125         37.7369 
        1.36833         301.962         37.3377 
        1.37445         299.544         36.9444 
        1.38059         297.842         36.5557 
        1.38675           295.5         36.1716 
        1.39288         294.119         35.7946 
        1.39901         292.054         35.4231 
        1.40515         290.981         35.0561 
         1.4113         288.487         34.6944 
        1.41742         286.456         34.3392 
        1.42355         284.776         33.9883 
         1.4297         283.015         33.6413 
        1.43585         281.589         33.2993 
        1.44198         280.485         32.9633 
        1.44809         277.066         32.6327 
        1.45423         275.717         32.3053 
        1.46036         274.408          31.983 
        1.46649         273.142         31.6651 
        1.47263         271.199         31.3512 
        1.47877         269.117         31.0417 
        1.48491         266.798         30.7359 
        1.49104         265.704          30.435 
        1.49718         263.847         30.1378 
        1.50333         262.829         29.8441 
        1.50947         261.089         29.5549 
         1.5156         258.885         29.2701 
        1.52172         258.247          28.989 
        1.52787         256.086          28.711 
          1.534         255.255          28.437 
        1.54013         252.697         28.1669 
        1.54627         251.746         27.8998 
        1.55241         250.006         27.6362 
        1.55855         247.372         27.3763 
        1.56467         247.613         27.1205 
         1.5708         245.385         26.8673 
        1.57695         243.408         26.6169 
        1.58308         242.303         26.3703 
        1.58922         240.176         26.1267 
        1.59535         239.204         25.8862 
         1.6015         237.527         25.6484 
        1.60764         236.366         25.4138 
        1.61376         234.971         25.1827 
        1.61989         233.383         24.9543 
        1.62604         231.657         24.7282 
        1.63218         230.756         24.5051 
        1.63831         229.215         24.2853 
        1.64444         227.674          24.068 
        1.65059         226.674         23.8529 
        1.65673         224.895         23.6407 
        1.66285         223.466         23.4316 
        1.66898         222.364         23.2251 
        1.67512         221.114         23.0206 
        1.68127         219.134         22.8184 
         1.6874         218.162          22.619 
        1.69353         216.866         22.4222 
        1.69967         215.574         22.2272 
        1.70581         214.195         22.0347 
        1.71193         212.828         21.8452 
        1.71806         211.893         21.6575 
        1.72421         210.074         21.4716 
        1.73035         209.661         21.2882 
        1.73649         208.314         21.1069 
        1.74262         206.331         20.9279 
        1.74876          205.23         20.7508 
        1.75489         204.444         20.5762 
        1.76101         202.841         20.4036 
        1.76715         201.781         20.2328 
        1.77329         200.661         20.0637 
        1.77943         199.268         19.8965 
        1.78557         197.861         19.7314 
        1.79171         197.205         19.5682 
        1.79785         195.596         19.4068 
        1.80399         194.671         19.2473 
        1.81012         193.347         19.0897 
        1.81625         192.177         18.9341 
        1.82239         191.117         18.7799 
        1.82853         190.051         18.6275 
        1.83466         189.145         18.4769 
        1.84078         187.859         18.3282 
        1.84692         186.845         18.1809 
        1.85306         185.537          18.035 
         1.8592         184.764         17.8909 
        1.86533         183.712         17.7485 
        1.87147         182.695         17.6075 
        1.87761         181.445          17.468 
        1.88375         180.593         17.3301 
        1.88988         178.731         17.1939 
        1.89601         178.761          17.059 
        1.90215           177.4         16.9255 
        1.90829         176.092         16.7935 
        1.91442         175.401         16.6629 
        1.92056         174.302         16.5338 
         1.9267         172.947          16.406 
        1.93284         172.054         16.2794 
        1.93897         171.176         16.1544 
        1.94509         170.153         16.0309 
        1.95123         168.927         15.9085 
        1.95737         168.235         15.7872 
        1.96349         167.285         15.6676 
        1.96964         165.816         15.5488 
        1.97578         165.217         15.4312 
        1.98192         164.116          15.315 
        1.98805         163.079         15.2001 
        1.99419         162.299         15.0863 
        2.00033         161.304         14.9736 
        2.00647         160.471         14.8621 
         2.0126         159.144         14.7519 
        2.01874         158.907         14.6427 
        2.02488         157.786         14.5345 
        2.03101         157.097         14.4276 
        2.03714         155.994         14.3218 
        2.04328         154.817          14.217 
        2.04941         154.325         14.1134 
        2.05554         152.934         14.0108 
        2.06167         152.503         13.9092 
        2.06781          151.68         13.8085 
        2.07396         150.729         13.7087 
        2.08009         149.509           13.61 
        2.08622         148.693         13.5124 
        2.09237         147.984         13.4156 
        2.09851         147.097         13.3197 
        2.10464         146.546          13.225 
        2.11077         145.552         13.1312 
        2.11691         144.647         13.0382 
        2.12305         143.787          12.946 
        2.12918         143.231          12.855 
        2.13531         142.358         12.7648 
        2.14145         141.318         12.6753 
         2.1476         140.506         12.5866 
        2.15372         139.976         12.4991 
        2.15985         139.066         12.4124 
        2.16599         138.394         12.3263 
        2.17213         137.623          12.241 
        2.17827         136.705         12.1566 
         2.1844         135.968         12.0731 
        2.19054          135.32         11.9903 
        2.19666         134.461         11.9084 
         2.2028         133.777         11.8272 
        2.20893         133.134         11.7468 
        2.21508         132.188         11.6669 
        2.22122          131.33         11.5878 
        2.22736         130.673         11.5096 
        2.23349         130.164         11.4322 
        2.23962         129.409         11.3554 
        2.24577         128.625         11.2792 
         2.2519         128.023         11.2039 
        2.25802          127.15         11.1294 
        2.26417         126.479         11.0553 
        2.27031         125.743         10.9818 
        2.27644         125.159         10.9093 
        2.28257         124.406         10.8373 
        2.28872         123.791         10.7659 
        2.29486         123.007         10.6952 
        2.30099         122.408         10.6252 
        2.30712         121.604         10.5559 
        2.31326          120.97          10.487 
         2.3194         120.263         10.4188 
        2.32553         119.575         10.3513 
        2.33166         119.047         10.2844 
         2.3378         118.571          10.218 
        2.34394         117.726         10.1522 
        2.35007         117.074         10.0871 
        2.35619         116.324         10.0226 
        2.36233         115.782         9.95856 
        2.36848         115.267         9.89492 
        2.37462         114.617         9.83197 
        2.38075         114.058         9.76963 
        2.38689         113.466         9.70778 
        2.39303         112.509         9.64647 
        2.39916         112.025         9.58576 
        2.40529         111.832         9.52557 
        2.41143         110.932         9.46586 
        2.41757         110.453         9.40664 
         2.4237         109.802         9.34803 
        2.42983         109.525         9.28992 
        2.43598         108.534         9.23216 
        2.44211          108.04         9.17498 
        2.44823         107.453         9.11841 
        2.45437         107.102         9.06217 
        2.46052           106.3         9.00636 
        2.46665         105.859         8.95111 
        2.47279          105.34         8.89634 
        2.47892          104.75           8.842 
        2.48507         104.057         8.78806 
         2.4912         103.523         8.73467 
