# k  (h/Mpc)    P(k)  (Mpc/h)^3    P_linear(k)  (Mpc/h)^3
     0.00783031         1939.18         1955.29 
       0.013688         2453.48         2486.99 
       0.019231         2544.55         2560.82 
      0.0249154         2389.98         2389.18 
      0.0312784         2069.59          2073.5 
      0.0375637         1752.55         1759.55 
      0.0433917          1526.8         1524.11 
      0.0492413         1352.34         1354.89 
      0.0555754         1238.51         1234.76 
      0.0619321         1141.38         1153.74 
       0.067871         1085.06         1088.78 
      0.0738098         1014.99         1016.97 
      0.0800417         927.985         927.211 
      0.0862327         826.184         827.626 
      0.0921407         732.442         733.077 
      0.0982031          651.06         647.211 
       0.104506         576.445         577.186 
       0.110769         529.041         528.545 
       0.116806         502.965         498.077 
       0.122832         478.418         477.692 
       0.129052         462.059         460.062 
       0.135211         444.168         440.108 
       0.141259         416.556         415.124 
       0.147318          384.14         385.032 
       0.153489         353.707         351.993 
       0.159709         324.928         320.134 
       0.165845         294.638         293.307 
       0.171974          279.58          272.67 
       0.178125         264.806         258.019 
       0.184229         252.026         248.038 
        0.19034          246.38         240.444 
       0.196428         238.557         233.094 
       0.202534         226.171         224.343 
       0.208729         218.281          213.41 
       0.214876         207.493         200.897 
       0.220989          191.74         187.879 
       0.227147         183.112         175.456 
        0.23329         173.287         164.744 
       0.239377         165.893         156.244 
       0.245482         158.207         149.744 
       0.251667         151.934         144.705 
       0.257832         149.658         140.465 
       0.263955         143.136         136.301 
       0.270079         138.258         131.672 
        0.27624         132.156         126.358 
       0.282372         127.044         120.571 
        0.28843         123.697         114.707 
       0.294538         117.523         109.064 
       0.300721         111.715         103.958 
        0.30691          108.92         99.6283 
       0.313033         104.582           96.09 
       0.319153         102.766         93.1174 
       0.325316         98.6062         90.4435 
        0.33145         95.6657         87.8514 
       0.337538         92.9649         85.1685 
       0.343633         90.2932         82.3105 
       0.349808         87.1208         79.2709 
       0.355968         84.1625         76.2145 
       0.362074         82.2069         73.2901 
       0.368217          79.561         70.5772 
       0.374374         77.6452          68.144 
       0.380519         74.3815         66.0027 
       0.386598         72.3681         64.1169 
       0.392688         70.3239         62.3721 
        0.39888         69.0676         60.6662 
       0.405048         67.4514         58.9679 
       0.411186         65.6951         57.2428 
       0.417313         63.8207         55.5009 
       0.423458         61.9465         53.7588 
       0.429607         60.7847         52.0648 
       0.435692         59.6399         50.4815 
       0.441815          57.381         49.0007 
       0.447964         55.6485         47.6281 
       0.454126         54.6978         46.3603 
       0.460267         54.1449         45.1735 
       0.466387         52.6444         44.0353 
        0.47254          51.879         42.9142 
       0.478662         50.2208         41.8117 
       0.484765         49.1966          40.718 
       0.490885         47.7887         39.6348 
       0.497035         47.0389         38.5759 
       0.503198          45.969         37.5585 
       0.509342         44.7239         36.5927 
       0.515458         44.1515         35.6814 
       0.521598         43.1067         34.8172 
       0.527764          42.526          33.992 
       0.533884         41.5927         33.2036 
           0.54         40.7547         32.4361 
       0.546137         39.5521         31.6816 
       0.552299         38.8897         30.9401 
       0.558452         38.0862         30.2161 
       0.564573         37.7278         29.5131 
       0.570708         36.7129         28.8292 
       0.576825         36.2318         28.1716 
       0.582926         35.6069         27.5429 
       0.589034         34.9056         26.9398 
       0.595184         34.4621         26.3553 
       0.601379         33.5355         25.7859 
       0.607522         33.0201         25.2369 
       0.613639          32.495         24.7041 
       0.619772         31.9472         24.1836 
       0.625918         31.3213         23.6755 
       0.632068         31.0517         23.1803 
       0.638161         30.4128         22.7026 
         0.6443         29.9456         22.2349 
       0.650464          29.213         21.7792 
       0.656582         29.0338          21.341 
       0.662703          28.679         20.9168 
       0.668861         27.9288         20.5034 
       0.675024         27.5896         20.1018 
       0.681124         27.4316         19.7152 
       0.687237         26.8721         19.3376 
       0.693381          26.314         18.9669 
       0.699536         26.1922         18.6044 
       0.705665         25.7015         18.2524 
       0.711789         25.2503         17.9096 
       0.717957         24.7499         17.5736 
        0.72409         24.5366         17.2486 
       0.730186         24.4146         16.9346 
       0.736317         23.9042         16.6273 
       0.742472         23.6151          16.327 
       0.748622         23.2456         16.0345 
        0.75476         22.6762         15.7499 
       0.760888         22.6047         15.4725 
       0.767043         22.2179         15.2005 
       0.773185         21.9809         14.9353 
       0.779291         21.7679          14.678 
       0.785407         21.3995         14.4262 
       0.791564         21.2513         14.1789 
       0.797719         20.7956         13.9375 
       0.803834         20.7055         13.7035 
       0.809972         20.3131         13.4742 
       0.816124         20.0958         13.2498 
       0.822261         19.8769         13.0313 
       0.828378          19.659         12.8185 
       0.834502         19.4602         12.6103 
       0.840667         19.2541         12.4055 
       0.846816         18.8384         12.2059 
       0.852925         18.7752         12.0119 
       0.859047         18.5513         11.8217 
       0.865192         18.2931         11.6351 
       0.871341         18.0591         11.4524 
       0.877463         17.8656         11.2745 
       0.883569         17.7591         11.1008 
       0.889708         17.4712         10.9299 
       0.895864         17.2576         10.7622 
       0.902008           17.06         10.5985 
       0.908149         16.8433         10.4383 
       0.914301          16.757         10.2812 
       0.920448         16.5082         10.1275 
       0.926574         16.4002          9.9775 
       0.932687         16.1691         9.83091 
       0.938823         15.9664         9.68678 
       0.944975         15.8501         9.54524 
       0.951105         15.6691         9.40707 
       0.957225         15.5744          9.2719 
       0.963368         15.3377         9.13896 
       0.969511         15.1861         9.00864 
       0.975621         15.0462         8.88159 
       0.981748         14.8526         8.75669 
       0.987916         14.7493         8.63343 
        0.99406         14.5946         8.51303 
        1.00019          14.482         8.39519 
        1.00632         14.3586         8.27971 
        1.01246         14.2088         8.16625 
        1.01859         14.0442         8.05513 
        1.02471         13.8872         7.94622 
        1.03085          13.836         7.83897 
        1.03698         13.7051         7.73395 
        1.04314         13.5362         7.63043 
        1.04929         13.3664         7.52905 
        1.05541         13.3065         7.42995 
        1.06154          13.188          7.3324 
        1.06769         13.0934         7.23648 
        1.07382         12.8912          7.1426 
        1.07993         12.7886         7.05062 
        1.08607         12.7292          6.9599 
        1.09222         12.5679         6.87069 
        1.09836         12.5174         6.78317 
        1.10449          12.339         6.69728 
        1.11063         12.2964         6.61281 
        1.11677         12.2106         6.52983 
         1.1229         12.0927         6.44844 
        1.12903         12.0004         6.36837 
        1.13518         11.8369         6.28961 
        1.14131         11.7715         6.21224 
        1.14745          11.612         6.13622 
        1.15359         11.5256         6.06148 
        1.15973         11.4328         5.98796 
        1.16584         11.3459           5.916 
        1.17197         11.2457         5.84514 
        1.17811         11.1571         5.77522 
        1.18424          11.083         5.70666 
        1.19038         11.0178         5.63903 
        1.19652           10.92         5.57253 
        1.20267         10.8413         5.50711 
        1.20881         10.7183         5.44276 
        1.21495         10.6429         5.37955 
        1.22108         10.5876         5.31737 
         1.2272         10.4939         5.25632 
        1.23334         10.4508          5.1961 
        1.23949         10.3389         5.13668 
        1.24562         10.2588         5.07837 
        1.25174         10.2027         5.02106 
        1.25789         10.0729         4.96446 
        1.26402         10.0471         4.90884 
        1.27014         9.99154         4.85422 
        1.27628          9.8608         4.80027 
        1.28244         9.84985         4.74704 
        1.28858          9.7643          4.6947 
        1.29471         9.63577         4.64327 
        1.30084         9.57397         4.59266 
        1.30697         9.56496         4.54273 
        1.31312         9.45967         4.49349 
        1.31925         9.40435         4.44513 
        1.32537         9.34246         4.39754 
        1.33151         9.27066         4.35048 
        1.33765         9.19849         4.30414 
        1.34378         9.18649         4.25857 
        1.34992         9.08879         4.21364 
        1.35606          9.0161         4.16926 
         1.3622         8.94795         4.12561 
        1.36833         8.90637         4.08269 
        1.37445         8.84382         4.04041 
        1.38059         8.78426          3.9986 
        1.38675         8.72626         3.95729 
        1.39288         8.65131         3.91673 
        1.39901         8.59357         3.87676 
        1.40515          8.5425         3.83727 
         1.4113         8.47749         3.79834 
        1.41742         8.44552         3.76011 
        1.42355         8.36584         3.72234 
         1.4297         8.32796         3.68497 
        1.43585         8.28357         3.64814 
        1.44198         8.22779         3.61195 
        1.44809         8.17766         3.57633 
        1.45423         8.11114         3.54105 
        1.46036         8.07276         3.50632 
        1.46649         8.01788         3.47205 
        1.47263         7.97913         3.43821 
        1.47877         7.92375         3.40484 
        1.48491         7.88856         3.37186 
        1.49104          7.8185         3.33939 
        1.49718         7.79402         3.30733 
        1.50333          7.7373         3.27564 
        1.50947         7.67458         3.24443 
         1.5156         7.65675         3.21368 
        1.52172         7.60493         3.18333 
        1.52787         7.56546         3.15331 
          1.534         7.51468         3.12372 
        1.54013         7.48362         3.09454 
        1.54627          7.4294         3.06569 
        1.55241         7.36722          3.0372 
        1.55855         7.35757         3.00911 
        1.56467          7.3078         2.98146 
         1.5708         7.26473         2.95408 
        1.57695         7.20663         2.92701 
        1.58308         7.16133         2.90034 
        1.58922         7.13925         2.87398 
        1.59535         7.09862         2.84797 
         1.6015         7.03807         2.82224 
        1.60764         7.01227         2.79685 
        1.61376         6.98533         2.77184 
        1.61989         6.91961         2.74711 
        1.62604         6.90032         2.72264 
        1.63218         6.86801         2.69848 
        1.63831         6.83003         2.67467 
        1.64444         6.77217         2.65114 
        1.65059         6.74477         2.62784 
        1.65673         6.72027         2.60485 
        1.66285         6.68315          2.5822 
        1.66898         6.64589         2.55981 
        1.67512         6.60411         2.53765 
        1.68127         6.55971         2.51573 
         1.6874         6.53914         2.49412 
        1.69353         6.49051         2.47277 
        1.69967         6.47135         2.45163 
        1.70581         6.42284         2.43074 
        1.71193           6.405         2.41018 
        1.71806         6.36726         2.38982 
        1.72421         6.32784         2.36965 
        1.73035         6.30224         2.34974 
        1.73649         6.26847         2.33006 
        1.74262         6.22561         2.31062 
        1.74876         6.22119          2.2914 
        1.75489          6.1779         2.27243 
        1.76101         6.13135         2.25369 
        1.76715          6.1237         2.23513 
        1.77329         6.09159         2.21676 
        1.77943         6.04034         2.19859 
        1.78557         6.03764         2.18065 
        1.79171         6.00443         2.16291 
        1.79785         5.97556         2.14536 
        1.80399         5.92076         2.12802 
        1.81012         5.91122         2.11089 
        1.81625         5.87384         2.09396 
        1.82239         5.85345         2.07719 
        1.82853         5.81627         2.06061 
        1.83466         5.77512         2.04423 
        1.84078         5.75874         2.02804 
        1.84692         5.73331         2.01201 
        1.85306          5.7057         1.99613 
         1.8592         5.69057         1.98045 
        1.86533          5.6642         1.96494 
        1.87147         5.63256         1.94959 
        1.87761         5.61629         1.93439 
        1.88375          5.5776         1.91938 
        1.88988         5.55157         1.90454 
        1.89601         5.53042         1.88985 
        1.90215         5.49138          1.8753 
        1.90829         5.48366         1.86092 
        1.91442         5.44594         1.84668 
        1.92056         5.44151         1.83261 
         1.9267          5.3977         1.81867 
        1.93284         5.39503         1.80487 
        1.93897         5.35295         1.79124 
        1.94509         5.31709         1.77778 
        1.95123         5.30892         1.76442 
        1.95737          5.2892         1.75119 
        1.96349         5.24951         1.73814 
        1.96964         5.23007         1.72518 
        1.97578         5.21232         1.71234 
        1.98192         5.18384         1.69966 
        1.98805         5.16748         1.68712 
        1.99419         5.14985         1.67469 
        2.00033          5.1102         1.66239 
        2.00647         5.10338         1.65021 
         2.0126         5.08011         1.63818 
        2.01874          5.0607         1.62625 
        2.02488         5.03883         1.61443 
        2.03101         5.00299         1.60275 
        2.03714         4.98552         1.59119 
        2.04328         4.97088         1.57974 
        2.04941         4.94338         1.56841 
        2.05554         4.93341          1.5572 
        2.06167         4.90868         1.54609 
        2.06781         4.88609         1.53508 
        2.07396         4.86167         1.52416 
        2.08009         4.84927         1.51337 
        2.08622         4.83162          1.5027 
        2.09237         4.81978         1.49211 
        2.09851         4.78191         1.48162 
        2.10464         4.76798         1.47125 
        2.11077         4.75643         1.46099 
        2.11691         4.73749         1.45081 
        2.12305         4.70866         1.44072 
        2.12918          4.6977         1.43076 
        2.13531         4.67249         1.42088 
        2.14145         4.65799         1.41108 
         2.1476         4.63541         1.40136 
        2.15372         4.61585         1.39179 
        2.15985         4.60566         1.38229 
        2.16599         4.58759         1.37285 
        2.17213         4.57638         1.36351 
        2.17827         4.54116         1.35427 
         2.1844         4.52445         1.34511 
        2.19054         4.51436         1.33604 
        2.19666         4.49716         1.32707 
         2.2028         4.46436         1.31817 
        2.20893         4.46679         1.30934 
        2.21508         4.44698         1.30059 
        2.22122         4.41106         1.29192 
        2.22736         4.40423         1.28334 
        2.23349          4.3871         1.27485 
        2.23962         4.37842         1.26642 
        2.24577         4.34615         1.25807 
         2.2519         4.34496          1.2498 
        2.25802         4.31116         1.24163 
        2.26417         4.30304          1.2335 
        2.27031         4.28624         1.22543 
        2.27644         4.26952         1.21747 
        2.28257         4.25599         1.20957 
        2.28872         4.24087         1.20173 
        2.29486         4.21969         1.19396 
        2.30099         4.20616         1.18628 
        2.30712         4.19169         1.17866 
        2.31326         4.17711          1.1711 
         2.3194         4.15893          1.1636 
        2.32553         4.14374         1.15619 
        2.33166         4.13508         1.14884 
         2.3378         4.11841         1.14155 
        2.34394         4.09753         1.13432 
        2.35007         4.08034         1.12716 
        2.35619         4.07551         1.12007 
        2.36233         4.05103         1.11303 
        2.36848         4.04478         1.10603 
        2.37462         4.02962         1.09911 
        2.38075         4.01987         1.09225 
        2.38689         4.00321         1.08545 
        2.39303         3.98504         1.07871 
        2.39916         3.97316         1.07203 
        2.40529         3.95363         1.06541 
        2.41143         3.94773         1.05884 
        2.41757         3.93596         1.05232 
         2.4237         3.91594         1.04587 
        2.42983         3.90972         1.03947 
        2.43598         3.89692         1.03311 
        2.44211         3.87516         1.02682 
        2.44823         3.86039         1.02059 
        2.45437         3.84603          1.0144 
        2.46052         3.83748         1.00825 
        2.46665         3.82576         1.00217 
        2.47279         3.80305        0.996135 
        2.47892         3.79638        0.990148 
        2.48507         3.78747        0.984206 
         2.4912         3.77231        0.978323 
