# k  (h/Mpc)    Pcb(k)  (Mpc/h)^3    Pcb_linear(k)  (Mpc/h)^3
     0.00783031         1954.13         1967.04 
       0.013688         2472.56         2504.17 
       0.019231         2564.41         2579.45 
      0.0249154         2408.68         2407.05 
      0.0312784          2085.8         2089.29 
      0.0375637         1766.29         1773.09 
      0.0433917         1538.77         1535.92 
      0.0492413         1362.95         1365.43 
      0.0555754         1248.24         1244.41 
      0.0619321         1150.34         1162.77 
       0.067871         1093.58         1097.33 
      0.0738098         1022.96         1024.97 
      0.0800417         935.274          934.51 
      0.0862327         832.673         834.148 
      0.0921407         738.195         738.858 
      0.0982031         656.175         652.318 
       0.104506         580.974         581.744 
       0.110769         533.198         532.722 
       0.116806         506.917         502.014 
       0.122832         482.178         481.469 
       0.129052         465.689         463.701 
       0.135211         447.658         443.591 
       0.141259         419.829          418.41 
       0.147318         387.159          388.08 
       0.153489         356.487          354.78 
       0.159709         327.482          322.67 
       0.165845         296.953          295.63 
       0.171974         281.778          274.83 
       0.178125         266.887         260.063 
       0.184229         254.006         250.004 
        0.19034         248.316          242.35 
       0.196428         240.432         234.942 
       0.202534         227.949         226.121 
       0.208729         219.996         215.101 
       0.214876         209.124          202.49 
       0.220989         193.247         189.369 
       0.227147         184.551         176.847 
        0.23329         174.649          166.05 
       0.239377         167.197         157.483 
       0.245482          159.45         150.932 
       0.251667         153.129         145.853 
       0.257832         150.834         141.579 
       0.263955         144.261         137.382 
       0.270079         139.345         132.716 
        0.27624         133.195         127.361 
       0.282372         128.043         121.528 
        0.28843         124.669         115.617 
       0.294538         118.447         109.929 
       0.300721         112.593         104.783 
        0.30691         109.777         100.419 
       0.313033         105.404         96.8522 
       0.319153         103.574         93.8562 
       0.325316         99.3814          91.161 
        0.33145         96.4178         88.5483 
       0.337538         93.6958         85.8442 
       0.343633          91.003         82.9632 
       0.349808         87.8057         79.8998 
       0.355968         84.8242         76.8193 
       0.362074         82.8532         73.8716 
       0.368217         80.1865         71.1374 
       0.374374         78.2557         68.6848 
       0.380519         74.9663         66.5263 
       0.386598         72.9371         64.6258 
       0.392688         70.8768         62.8669 
        0.39888         69.6106         61.1477 
       0.405048         67.9818         59.4356 
       0.411186         66.2117         57.6971 
       0.417313         64.3225         55.9414 
       0.423458         62.4335         54.1854 
       0.429607         61.2626         52.4782 
       0.435692         60.1088          50.882 
       0.441815         57.8322         49.3896 
       0.447964         56.0861         48.0063 
       0.454126         55.1279         46.7281 
       0.460267         54.5706          45.532 
       0.466387         53.0584         44.3848 
        0.47254          52.287         43.2548 
       0.478662         50.6157         42.1433 
       0.484765         49.5835         41.0412 
       0.490885         48.1645         39.9494 
       0.497035         47.4088         38.8821 
       0.503198         46.3305         37.8566 
       0.509342         45.0756         36.8831 
       0.515458         44.4987         35.9647 
       0.521598         43.4457         35.0935 
       0.527764         42.8604         34.2619 
       0.533884         41.9198         33.4671 
           0.54         41.0753         32.6936 
       0.546137         39.8632         31.9331 
       0.552299         39.1955         31.1857 
       0.558452         38.3858         30.4559 
       0.564573         38.0245         29.7474 
       0.570708         37.0017          29.058 
       0.576825         36.5168         28.3952 
       0.582926         35.8869         27.7616 
       0.589034         35.1801         27.1535 
       0.595184         34.7332         26.5645 
       0.601379         33.7993         25.9905 
       0.607522         33.2798         25.4372 
       0.613639         32.7506         24.9002 
       0.619772         32.1985         24.3756 
       0.625918         31.5677         23.8634 
       0.632068         31.2959         23.3642 
       0.638161         30.6521         22.8828 
         0.6443         30.1811         22.4113 
       0.650464         29.4428         21.9521 
       0.656582         29.2621         21.5105 
       0.662703         28.9046         21.0828 
       0.668861         28.1485         20.6661 
       0.675024         27.8066         20.2613 
       0.681124         27.6474         19.8717 
       0.687237         27.0835          19.491 
       0.693381          26.521         19.1175 
       0.699536         26.3983         18.7521 
       0.705665         25.9037         18.3973 
       0.711789          25.449         18.0518 
       0.717957         24.9446         17.7131 
        0.72409         24.7296         17.3855 
       0.730186         24.6066          17.069 
       0.736317         24.0923         16.7593 
       0.742472         23.8009         16.4566 
       0.748622         23.4284         16.1618 
        0.75476         22.8546         15.8749 
       0.760888         22.7825         15.5953 
       0.767043         22.3927         15.3211 
       0.773185         22.1538         15.0539 
       0.779291         21.9391         14.7945 
       0.785407         21.5679         14.5407 
       0.791564         21.4185         14.2914 
       0.797719         20.9592         14.0482 
       0.803834         20.8684         13.8123 
       0.809972         20.4729         13.5812 
       0.816124         20.2539          13.355 
       0.822261         20.0333         13.1347 
       0.828378         19.8137         12.9202 
       0.834502         19.6133         12.7104 
       0.840667         19.4056          12.504 
       0.846816         18.9866         12.3028 
       0.852925          18.923         12.1072 
       0.859047         18.6973         11.9156 
       0.865192         18.4371         11.7275 
       0.871341         18.2012         11.5433 
       0.877463         18.0061         11.3639 
       0.883569         17.8988         11.1889 
       0.889708         17.6087         11.0167 
       0.895864         17.3934         10.8477 
       0.902008         17.1943         10.6826 
       0.908149         16.9758         10.5211 
       0.914301         16.8889         10.3628 
       0.920448         16.6381         10.2079 
       0.926574         16.5293         10.0567 
       0.932687         16.2963         9.90895 
       0.938823          16.092         9.76368 
       0.944975         15.9748         9.62101 
       0.951105         15.7924         9.48175 
       0.957225         15.6969          9.3455 
       0.963368         15.4584          9.2115 
       0.969511         15.3056         9.08015 
       0.975621         15.1646         8.95209 
       0.981748         14.9695          8.8262 
       0.987916         14.8654         8.70196 
        0.99406         14.7095         8.58061 
        1.00019         14.5959         8.46183 
        1.00632         14.4716         8.34544 
        1.01246         14.3206         8.23108 
        1.01859         14.1547         8.11907 
        1.02471         13.9965          8.0093 
        1.03085         13.9449          7.9012 
        1.03698          13.813         7.79534 
        1.04314         13.6427           7.691 
        1.04929         13.4716         7.58882 
        1.05541         13.4112         7.48893 
        1.06154         13.2918         7.39061 
        1.06769         13.1965         7.29392 
        1.07382         12.9927          7.1993 
        1.07993         12.8892         7.10659 
        1.08607         12.8294         7.01514 
        1.09222         12.6668         6.92523 
        1.09836          12.616         6.83701 
        1.10449         12.4361         6.75045 
        1.11063         12.3932          6.6653 
        1.11677         12.3067         6.58167 
         1.1229         12.1878         6.49962 
        1.12903         12.0949         6.41892 
        1.13518         11.9301         6.33954 
        1.14131         11.8642         6.26155 
        1.14745         11.7034         6.18494 
        1.15359         11.6163          6.1096 
        1.15973         11.5227          6.0355 
        1.16584         11.4352         5.96297 
        1.17197         11.3342         5.89154 
        1.17811         11.2449         5.82107 
        1.18424         11.1702         5.75196 
        1.19038         11.1045          5.6838 
        1.19652         11.0059         5.61677 
        1.20267         10.9266         5.55083 
        1.20881         10.8027         5.48597 
        1.21495         10.7266         5.42226 
        1.22108         10.6709         5.35958 
         1.2272         10.5765         5.29804 
        1.23334         10.5331         5.23734 
        1.23949         10.4203         5.17746 
        1.24562         10.3395         5.11868 
        1.25174          10.283         5.06092 
        1.25789         10.1522         5.00387 
        1.26402         10.1262         4.94781 
        1.27014         10.0702         4.89276 
        1.27628         9.93841         4.83838 
        1.28244         9.92737         4.78473 
        1.28858         9.84116         4.73197 
        1.29471         9.71161         4.68013 
        1.30084         9.64932         4.62912 
        1.30697         9.64025          4.5788 
        1.31312         9.53412         4.52916 
        1.31925         9.47837         4.48042 
        1.32537         9.41599         4.43245 
        1.33151         9.34364         4.38501 
        1.33765          9.2709         4.33831 
        1.34378          9.2588         4.29238 
        1.34992         9.16033         4.24709 
        1.35606         9.08707         4.20236 
         1.3622         9.01838         4.15836 
        1.36833         8.97648          4.1151 
        1.37445         8.91343         4.07248 
        1.38059         8.85341         4.03034 
        1.38675         8.79495         3.98871 
        1.39288          8.7194         3.94782 
        1.39901         8.66121         3.90754 
        1.40515         8.60974         3.86773 
         1.4113         8.54422          3.8285 
        1.41742           8.512         3.78996 
        1.42355         8.43169         3.75189 
         1.4297         8.39351         3.71422 
        1.43585         8.34878          3.6771 
        1.44198         8.29256         3.64062 
        1.44809         8.24203         3.60472 
        1.45423         8.17498         3.56916 
        1.46036         8.13631         3.53416 
        1.46649         8.08099         3.49961 
        1.47263         8.04194          3.4655 
        1.47877         7.98612         3.43187 
        1.48491         7.95066         3.39863 
        1.49104         7.88004          3.3659 
        1.49718         7.85537         3.33358 
        1.50333         7.79821         3.30164 
        1.50947           7.735         3.27018 
         1.5156         7.71702         3.23919 
        1.52172         7.66479          3.2086 
        1.52787         7.62501         3.17834 
          1.534         7.57383         3.14852 
        1.54013         7.54253         3.11911 
        1.54627         7.48788         3.09002 
        1.55241         7.42521         3.06131 
        1.55855         7.41549           3.033 
        1.56467         7.36532         3.00513 
         1.5708         7.32191         2.97753 
        1.57695         7.26336         2.95024 
        1.58308          7.2177         2.92336 
        1.58922         7.19545          2.8968 
        1.59535          7.1545         2.87058 
         1.6015         7.09348         2.84464 
        1.60764         7.06747         2.81905 
        1.61376         7.04031         2.79384 
        1.61989         6.97408         2.76892 
        1.62604         6.95464         2.74425 
        1.63218         6.92207          2.7199 
        1.63831          6.8838          2.6959 
        1.64444         6.82548         2.67219 
        1.65059         6.79786          2.6487 
        1.65673         6.77317         2.62553 
        1.66285         6.73576          2.6027 
        1.66898          6.6982         2.58013 
        1.67512          6.6561         2.55779 
        1.68127         6.61135          2.5357 
         1.6874         6.59062         2.51392 
        1.69353          6.5416          2.4924 
        1.69967          6.5223         2.47109 
        1.70581          6.4734         2.45004 
        1.71193         6.45542         2.42932 
        1.71806         6.41738         2.40879 
        1.72421         6.37765         2.38846 
        1.73035         6.35185         2.36839 
        1.73649         6.31782         2.34855 
        1.74262         6.27461         2.32896 
        1.74876         6.27016         2.30959 
        1.75489         6.22653         2.29047 
        1.76101         6.17962         2.27158 
        1.76715         6.17191         2.25287 
        1.77329         6.13955         2.23436 
        1.77943         6.08788         2.21604 
        1.78557         6.08516         2.19796 
        1.79171         6.05169         2.18008 
        1.79785         6.02259          2.1624 
        1.80399         5.96737         2.14491 
        1.81012         5.95775         2.12765 
        1.81625         5.92008         2.11058 
        1.82239         5.89953         2.09368 
        1.82853         5.86205         2.07697 
        1.83466         5.82058         2.06045 
        1.84078         5.80408         2.04414 
        1.84692         5.77845         2.02798 
        1.85306         5.75062         2.01197 
         1.8592         5.73536         1.99617 
        1.86533         5.70879         1.98054 
        1.87147          5.6769         1.96506 
        1.87761          5.6605         1.94975 
        1.88375          5.6215         1.93461 
        1.88988         5.59527         1.91965 
        1.89601         5.57395         1.90485 
        1.90215         5.53461         1.89019 
        1.90829         5.52683         1.87569 
        1.91442         5.48881         1.86134 
        1.92056         5.48434         1.84716 
         1.9267         5.44019         1.83311 
        1.93284          5.4375          1.8192 
        1.93897         5.39509         1.80546 
        1.94509         5.35894         1.79189 
        1.95123         5.35071         1.77843 
        1.95737         5.33083          1.7651 
        1.96349         5.29083         1.75194 
        1.96964         5.27124         1.73887 
        1.97578         5.25335         1.72593 
        1.98192         5.22465         1.71316 
        1.98805         5.20816         1.70051 
        1.99419         5.19039         1.68799 
        2.00033         5.15043         1.67559 
        2.00647         5.14355         1.66331 
         2.0126          5.1201         1.65119 
        2.01874         5.10054         1.63916 
        2.02488          5.0785         1.62725 
        2.03101         5.04237         1.61547 
        2.03714         5.02476         1.60383 
        2.04328         5.01001         1.59228 
        2.04941          4.9823         1.58086 
        2.05554         4.97225         1.56956 
        2.06167         4.94732         1.55836 
        2.06781         4.92455         1.54727 
        2.07396         4.89994         1.53626 
        2.08009         4.88745         1.52539 
        2.08622         4.86965         1.51463 
        2.09237         4.85773         1.50395 
        2.09851         4.81955         1.49338 
        2.10464         4.80551         1.48293 
        2.11077         4.79388         1.47259 
        2.11691         4.77478         1.46232 
        2.12305         4.74573         1.45216 
        2.12918         4.73468         1.44211 
        2.13531         4.70927         1.43216 
        2.14145         4.69466         1.42228 
         2.1476          4.6719         1.41249 
        2.15372         4.65219         1.40283 
        2.15985         4.64191         1.39326 
        2.16599          4.6237         1.38375 
        2.17213         4.61241         1.37434 
        2.17827          4.5769         1.36502 
         2.1844         4.56007         1.35579 
        2.19054         4.54989         1.34665 
        2.19666         4.53257          1.3376 
         2.2028         4.49951         1.32863 
        2.20893         4.50195         1.31974 
        2.21508         4.48199         1.31092 
        2.22122         4.44578         1.30218 
        2.22736          4.4389         1.29353 
        2.23349         4.42163         1.28497 
        2.23962         4.41288         1.27648 
        2.24577         4.38036         1.26806 
         2.2519         4.37916         1.25973 
        2.25802          4.3451         1.25148 
        2.26417         4.33691         1.24329 
        2.27031         4.31998         1.23516 
        2.27644         4.30313         1.22713 
        2.28257         4.28949         1.21917 
        2.28872         4.27425         1.21127 
        2.29486         4.25291         1.20344 
        2.30099         4.23927          1.1957 
        2.30712         4.22469         1.18802 
        2.31326         4.20999         1.18039 
         2.3194         4.19166         1.17284 
        2.32553         4.17636         1.16537 
        2.33166         4.16763         1.15796 
         2.3378         4.15083         1.15061 
        2.34394         4.12979         1.14332 
        2.35007         4.11246         1.13611 
        2.35619         4.10759         1.12896 
        2.36233         4.08291         1.12186 
        2.36848         4.07662         1.11481 
        2.37462         4.06134         1.10783 
        2.38075         4.05152         1.10092 
        2.38689         4.03472         1.09407 
        2.39303         4.01641         1.08727 
        2.39916         4.00444         1.08054 
        2.40529         3.98476         1.07386 
        2.41143         3.97881         1.06724 
        2.41757         3.96695         1.06067 
         2.4237         3.94677         1.05417 
        2.42983          3.9405         1.04773 
        2.43598         3.92759         1.04132 
        2.44211         3.90567         1.03497 
        2.44823         3.89078         1.02869 
        2.45437          3.8763         1.02245 
        2.46052         3.86769         1.01626 
        2.46665         3.85588         1.01012 
        2.47279         3.83299         1.00404 
        2.47892         3.82627        0.998008 
        2.48507         3.81728        0.992019 
         2.4912         3.80201         0.98609 
