# k  (h/Mpc)    Pcb(k)  (Mpc/h)^3    Pcb_linear(k)  (Mpc/h)^3
     0.00783031         14150.7         14217.8 
       0.013688         17064.1         17504.5 
       0.019231         17458.4         17723.4 
      0.0249154         16408.5         16382.8 
      0.0312784         14013.7         14160.1 
      0.0375637         11800.9         12012.1 
      0.0433917         10345.1         10408.5 
      0.0492413         9116.41         9241.14 
      0.0555754         8332.79         8383.85 
      0.0619321         7493.46          7775.3 
       0.067871         7114.87         7278.22 
      0.0738098         6651.52         6747.72 
      0.0800417         6050.41         6117.97 
      0.0862327         5373.92         5447.76 
      0.0921407         4809.62         4828.15 
      0.0982031         4338.83          4273.4 
       0.104506         3842.91          3821.9 
       0.110769         3554.27         3503.17 
       0.116806         3400.34         3294.34 
       0.122832         3208.06         3143.75 
       0.129052          3051.4         3006.47 
       0.135211         2958.83         2855.59 
       0.141259         2738.81         2678.42 
       0.147318         2524.73         2476.42 
       0.153489         2355.59         2263.16 
       0.159709         2235.08         2062.62 
       0.165845          2031.2         1895.71 
       0.171974         1970.66         1766.74 
       0.178125          1898.2         1672.52 
       0.184229         1757.93         1604.18 
        0.19034         1733.12         1547.99 
       0.196428         1683.51         1492.13 
       0.202534         1578.49          1428.2 
       0.208729         1546.17         1352.95 
       0.214876         1472.43         1271.13 
       0.220989         1387.77         1189.09 
       0.227147         1346.29         1112.58 
        0.23329         1290.04         1047.17 
       0.239377         1277.69         994.805 
       0.245482         1214.39         953.481 
       0.251667          1170.3         919.614 
       0.257832         1153.06         889.518 
       0.263955         1098.32         859.491 
       0.270079         1065.77          826.97 
        0.27624         1021.19         791.271 
       0.282372         1005.07         753.973 
        0.28843         989.508         717.365 
       0.294538         940.738          682.84 
       0.300721         919.531         651.797 
        0.30691         899.058         625.229 
       0.313033         861.626         602.906 
       0.319153          850.95         583.439 
       0.325316         839.203         565.294 
        0.33145         820.255           547.5 
       0.337538         791.607         529.318 
       0.343633         771.959         510.486 
       0.349808         755.385         491.049 
       0.355968         741.052         471.995 
       0.362074         715.676         454.071 
       0.368217          713.29         437.508 
       0.374374         701.985         422.568 
       0.380519          675.21         409.167 
       0.386598         670.055         397.078 
       0.392688         653.678         385.667 
        0.39888         638.056         374.385 
       0.405048         625.576         363.219 
       0.411186         624.201         352.059 
       0.417313         618.858         340.987 
       0.423458         600.174         330.128 
       0.429607         583.364         319.692 
       0.435692         576.905         309.974 
       0.441815          566.09         300.863 
       0.447964         557.065         292.335 
       0.454126         550.446         284.331 
       0.460267         541.828         276.755 
       0.466387          532.25         269.446 
        0.47254         524.272         262.246 
       0.478662         515.129         255.212 
       0.484765         509.229         248.324 
       0.490885         504.028         241.577 
       0.497035         493.466         235.028 
       0.503198         493.207         228.758 
       0.509342         482.914         222.813 
       0.515458         473.617         217.179 
       0.521598         469.654         211.786 
       0.527764         460.385         206.601 
       0.533884         456.674         201.632 
           0.54         451.963         196.798 
       0.546137         443.721         192.058 
       0.552299          442.21         187.416 
       0.558452         435.382         182.913 
       0.564573         431.855          178.57 
       0.570708         426.548         174.362 
       0.576825         418.324         170.317 
       0.582926         416.763         166.435 
       0.589034         409.861         162.699 
       0.595184         406.713          159.07 
       0.601379         400.315         155.532 
       0.607522         392.968         152.121 
       0.613639         392.062         148.812 
       0.619772         390.379         145.582 
       0.625918         382.834         142.436 
       0.632068         380.335         139.379 
       0.638161         376.917         136.441 
         0.6443         372.023          133.57 
       0.650464         368.134         130.775 
       0.656582         364.848         128.084 
       0.662703          362.16         125.472 
       0.668861         356.157         122.922 
       0.675024         354.566         120.444 
       0.681124         348.914         118.059 
       0.687237         347.562         115.733 
       0.693381          342.59         113.457 
       0.699536         341.456         111.234 
       0.705665          337.14         109.079 
       0.711789         335.289         106.982 
       0.717957           331.2         104.926 
        0.72409         327.252         102.937 
       0.730186         328.868         101.015 
       0.736317         322.901         99.1324 
       0.742472         320.166          97.293 
       0.748622          317.58         95.5028 
        0.75476         315.762          93.762 
       0.760888         312.617         92.0671 
       0.767043          309.55         90.4067 
       0.773185         307.521           88.79 
       0.779291         303.775         87.2217 
       0.785407          302.18         85.6887 
       0.791564         299.886         84.1828 
       0.797719         295.021         82.7141 
       0.803834         296.932           81.29 
       0.809972         292.173         79.8948 
       0.816124          289.03         78.5298 
       0.822261         286.882         77.2007 
       0.828378         285.816         75.9068 
       0.834502         281.589         74.6417 
       0.840667         281.859         73.3975 
       0.846816         276.751         72.1853 
       0.852925          277.18         71.0083 
       0.859047         274.522         69.8551 
       0.865192         273.464         68.7238 
       0.871341         269.838         67.6169 
       0.877463         268.106         66.5395 
       0.883569         266.546         65.4884 
       0.889708         264.139         64.4546 
       0.895864         261.332         63.4407 
       0.902008         259.905         62.4507 
       0.908149         257.653         61.4826 
       0.914301         256.195         60.5335 
       0.920448         254.733         59.6054 
       0.926574         252.726         58.7001 
       0.932687         251.915         57.8156 
       0.938823         249.062         56.9462 
       0.944975         248.513         56.0928 
       0.951105         245.807           55.26 
       0.957225         243.502         54.4456 
       0.963368         243.706          53.645 
       0.969511         239.292         52.8604 
       0.975621         237.885         52.0958 
       0.981748         237.329         51.3445 
       0.987916         236.018         50.6032 
        0.99406         233.845         49.8795 
        1.00019         232.154         49.1714 
        1.00632         231.463         48.4777 
        1.01246         229.467         47.7964 
        1.01859         227.037         47.1294 
        1.02471         225.546         46.4759 
        1.03085         224.443         45.8326 
        1.03698          223.55         45.2029 
        1.04314         222.634         44.5824 
        1.04929         221.106          43.975 
        1.05541         219.396         43.3813 
        1.06154          217.58         42.7973 
        1.06769         215.997         42.2231 
        1.07382         214.965         41.6613 
        1.07993         213.062         41.1111 
        1.08607         212.079         40.5686 
        1.09222         210.308         40.0354 
        1.09836         209.734         39.5124 
        1.10449         208.062         38.9993 
        1.11063         206.569         38.4949 
        1.11677         205.114         37.9995 
         1.1229         204.408         37.5138 
        1.12903          202.51         37.0361 
        1.13518          201.31         36.5664 
        1.14131         200.596         36.1051 
        1.14745           198.5         35.6521 
        1.15359          197.17         35.2067 
        1.15973         196.549         34.7688 
        1.16584          195.29         34.3404 
        1.17197         194.229         33.9185 
        1.17811          192.58         33.5025 
        1.18424         191.519         33.0947 
        1.19038         190.692         32.6925 
        1.19652         188.505         32.2971 
        1.20267         187.848         31.9083 
        1.20881         186.464          31.526 
        1.21495         186.326         31.1506 
        1.22108         184.717         30.7813 
         1.2272         183.095         30.4189 
        1.23334         182.381         30.0616 
        1.23949         181.452         29.7091 
        1.24562         180.194         29.3633 
        1.25174         179.306         29.0235 
        1.25789         177.658          28.688 
        1.26402         177.381         28.3585 
        1.27014         176.584         28.0349 
        1.27628         174.994         27.7155 
        1.28244         173.768         27.4003 
        1.28858         172.802         27.0905 
        1.29471         171.762         26.7862 
        1.30084          170.87         26.4869 
        1.30697         169.499         26.1917 
        1.31312         168.667         25.9005 
        1.31925         167.505         25.6147 
        1.32537         167.016         25.3335 
        1.33151         165.906         25.0555 
        1.33765         164.722         24.7819 
        1.34378         164.212         24.5129 
        1.34992         162.933         24.2477 
        1.35606         162.141         23.9859 
         1.3622         161.112         23.7284 
        1.36833         159.893         23.4753 
        1.37445         159.801          23.226 
        1.38059          158.12         22.9796 
        1.38675         157.315         22.7362 
        1.39288         156.301         22.4972 
        1.39901         155.257         22.2618 
        1.40515         154.835         22.0293 
         1.4113         153.632         21.8002 
        1.41742         152.595         21.5752 
        1.42355         152.452          21.353 
         1.4297         151.074         21.1332 
        1.43585         150.532         20.9166 
        1.44198         148.956         20.7039 
        1.44809         148.573         20.4945 
        1.45423         147.854         20.2873 
        1.46036         146.722         20.0833 
        1.46649         145.827          19.882 
        1.47263         145.289         19.6834 
        1.47877         144.183         19.4875 
        1.48491         143.319          19.294 
        1.49104         141.999         19.1035 
        1.49718         141.807         18.9154 
        1.50333         140.727         18.7296 
        1.50947         140.118         18.5467 
         1.5156         139.117         18.3664 
        1.52172         138.508         18.1886 
        1.52787         137.838         18.0128 
          1.534         137.042         17.8395 
        1.54013         136.092         17.6686 
        1.54627         135.342         17.4997 
        1.55241         134.845          17.333 
        1.55855         134.186         17.1687 
        1.56467         133.301         17.0069 
         1.5708         132.149         16.8468 
        1.57695         131.858         16.6885 
        1.58308         130.774         16.5326 
        1.58922         130.248         16.3786 
        1.59535         129.541         16.2266 
         1.6015         128.678         16.0764 
        1.60764         127.854          15.928 
        1.61376         127.176          15.782 
        1.61989         126.707         15.6377 
        1.62604         125.608         15.4949 
        1.63218          125.17         15.3539 
        1.63831         124.315          15.215 
        1.64444         123.484         15.0778 
        1.65059         123.033          14.942 
        1.65673         122.485          14.808 
        1.66285         121.959          14.676 
        1.66898         120.985         14.5455 
        1.67512         120.168         14.4164 
        1.68127         119.844         14.2887 
         1.6874         118.881         14.1629 
        1.69353          118.45         14.0387 
        1.69967         117.564         13.9156 
        1.70581         117.229         13.7941 
        1.71193         116.409         13.6745 
        1.71806         115.402          13.556 
        1.72421         115.071         13.4387 
        1.73035         114.449          13.323 
        1.73649         113.583         13.2086 
        1.74262         113.294         13.0956 
        1.74876          112.47         12.9839 
        1.75489         112.178         12.8738 
        1.76101         111.243         12.7649 
        1.76715         110.506         12.6572 
        1.77329         109.992         12.5505 
        1.77943         109.304         12.4451 
        1.78557         108.965          12.341 
        1.79171         108.224         12.2381 
        1.79785         107.424         12.1363 
        1.80399         107.072         12.0357 
        1.81012         106.169         11.9364 
        1.81625         105.798         11.8382 
        1.82239         105.354          11.741 
        1.82853         104.534          11.645 
        1.83466         103.828         11.5501 
        1.84078         103.657         11.4563 
        1.84692         103.315         11.3635 
        1.85306         102.508         11.2716 
         1.8592         102.051         11.1808 
        1.86533         101.259         11.0911 
        1.87147         100.956         11.0022 
        1.87761         100.103         10.9143 
        1.88375         99.5198         10.8275 
        1.88988         98.9629         10.7416 
        1.89601         98.7293         10.6567 
        1.90215         98.3156         10.5726 
        1.90829         97.3551         10.4895 
        1.91442         96.6968         10.4073 
        1.92056         96.3787          10.326 
         1.9267         95.8824         10.2455 
        1.93284         95.2327         10.1658 
        1.93897         94.8685         10.0871 
        1.94509         94.3683         10.0094 
        1.95123         93.8745         9.93229 
        1.95737         93.4713         9.85596 
        1.96349         92.9461         9.78064 
        1.96964         92.3242         9.70588 
        1.97578         91.8275         9.63186 
        1.98192         91.5418         9.55877 
        1.98805         90.8763         9.48643 
        1.99419         90.4315         9.41483 
        2.00033         89.8434         9.34393 
        2.00647         89.3966         9.27378 
         2.0126         88.9434         9.20447 
        2.01874         88.6945         9.13576 
        2.02488         87.9453         9.06769 
        2.03101          87.559         9.00044 
        2.03714         87.0815         8.93393 
        2.04328         86.8547         8.86802 
        2.04941         86.3654         8.80283 
        2.05554         85.8152         8.73834 
        2.06167         85.1648          8.6744 
        2.06781          84.796          8.6111 
        2.07396         84.2913         8.54834 
        2.08009         83.7252         8.48631 
        2.08622         83.5243         8.42496 
        2.09237         82.9791          8.3641 
        2.09851         82.4477         8.30383 
        2.10464          82.309         8.24425 
        2.11077         81.7308         8.18533 
        2.11691         81.4049         8.12686 
        2.12305         80.9144         8.06894 
        2.12918         80.4277         8.01174 
        2.13531          79.994         7.95508 
        2.14145         79.6502         7.89883 
         2.1476         79.3042         7.84307 
        2.15372         78.7181         7.78812 
        2.15985         78.3447         7.73364 
        2.16599         77.9252         7.67953 
        2.17213         77.4613         7.62599 
        2.17827          76.946         7.57298 
         2.1844         76.7229         7.52051 
        2.19054         76.2288         7.46853 
        2.19666         75.8545         7.41711 
         2.2028         75.6144         7.36612 
        2.20893         75.2296         7.31559 
        2.21508         74.7667         7.26548 
        2.22122         74.2495         7.21582 
        2.22736         74.0022         7.16672 
        2.23349         73.4952         7.11809 
        2.23962         73.1903         7.06989 
        2.24577         72.8862         7.02209 
         2.2519         72.4239          6.9748 
        2.25802         72.0397         6.92802 
        2.26417         71.6104         6.88153 
        2.27031         71.2215         6.83543 
        2.27644         70.9076         6.78988 
        2.28257         70.5745         6.74475 
        2.28872         70.1374         6.69995 
        2.29486         70.0231         6.65556 
        2.30099         69.3844         6.61166 
        2.30712          69.205         6.56814 
        2.31326         68.8078         6.52493 
         2.3194          68.444         6.48214 
        2.32553         68.0118          6.4398 
        2.33166         67.7029         6.39786 
         2.3378         67.4446         6.35623 
        2.34394         67.1468         6.31496 
        2.35007         66.6748         6.27412 
        2.35619         66.4074         6.23368 
        2.36233         65.9744         6.19351 
        2.36848         65.6558          6.1536 
        2.37462         65.3608         6.11413 
        2.38075         64.9883         6.07504 
        2.38689         64.6125         6.03627 
        2.39303         64.4072         5.99783 
        2.39916         63.9883         5.95977 
        2.40529         63.7779         5.92205 
        2.41143         63.4177         5.88462 
        2.41757         62.9872         5.84749 
         2.4237         62.7203         5.81076 
        2.42983         62.4033         5.77434 
        2.43598         62.1209         5.73814 
        2.44211         61.7976         5.70231 
        2.44823         61.5533         5.66686 
        2.45437         61.1651         5.63162 
        2.46052         60.9015         5.59664 
        2.46665         60.3698         5.56203 
        2.47279         60.2213         5.52772 
        2.47892         60.0126         5.49367 
        2.48507         59.6465         5.45988 
         2.4912         59.3145         5.42643 
