# k  (h/Mpc)    Pcb(k)  (Mpc/h)^3    Pcb_linear(k)  (Mpc/h)^3
     0.00783031         14685.2         14754.1 
       0.013688         17700.1         18164.6 
       0.019231         18110.6         18391.6 
      0.0249154         17025.9         17000.4 
      0.0312784         14536.4         14693.9 
      0.0375637         12239.3           12465 
      0.0433917         10730.8         10800.8 
      0.0492413          9455.5         9589.49 
      0.0555754         8642.47         8699.88 
      0.0619321         7768.56         8068.39 
       0.067871         7376.62         7552.57 
      0.0738098         6898.09         7002.07 
      0.0800417         6274.21         6348.57 
      0.0862327         5573.24          5653.1 
      0.0921407         4989.87         5010.14 
      0.0982031         4503.25         4434.48 
       0.104506          3988.9         3965.95 
       0.110769         3690.14         3635.22 
       0.116806         3530.44         3418.51 
       0.122832         3331.38         3262.25 
       0.129052         3167.06         3119.79 
       0.135211          3072.4         2963.23 
       0.141259         2843.39         2779.38 
       0.147318          2622.3         2569.76 
       0.153489         2447.59         2348.46 
       0.159709         2324.43         2140.37 
       0.165845         2113.21         1967.17 
       0.171974         2050.32         1833.33 
       0.178125         1976.18         1735.56 
       0.184229         1829.13         1664.64 
        0.19034         1804.07         1606.34 
       0.196428         1752.72         1548.37 
       0.202534         1644.18         1482.04 
       0.208729         1610.48         1403.94 
       0.214876         1533.66         1319.04 
       0.220989         1447.27         1233.91 
       0.227147          1403.9         1154.51 
        0.23329         1345.44         1086.64 
       0.239377         1333.55          1032.3 
       0.245482         1267.93          989.42 
       0.251667         1222.03         954.276 
       0.257832         1203.59         923.046 
       0.263955         1147.12         891.888 
       0.270079          1113.8         858.141 
        0.27624         1067.29         821.096 
       0.282372         1051.17         782.392 
        0.28843         1034.18         744.405 
       0.294538         983.881         708.578 
       0.300721         962.433         676.365 
        0.30691         940.439         648.796 
       0.313033          901.85         625.631 
       0.319153         891.033         605.431 
       0.325316         878.925         586.602 
        0.33145         859.068         568.137 
       0.337538         829.351          549.27 
       0.343633         809.141         529.727 
       0.349808          792.18         509.558 
       0.355968         777.067         489.786 
       0.362074         750.749         471.186 
       0.368217         748.328         453.999 
       0.374374         736.664         438.496 
       0.380519         708.882         424.589 
       0.386598         703.765         412.045 
       0.392688         686.407         400.203 
        0.39888         670.425         388.496 
       0.405048         657.196         376.909 
       0.411186         655.835         365.329 
       0.417313         650.508          353.84 
       0.423458          630.87         342.572 
       0.429607         613.277         331.742 
       0.435692         606.805         321.658 
       0.441815           595.3         312.203 
       0.447964         586.295         303.353 
       0.454126         579.235         295.048 
       0.460267         570.425         287.186 
       0.466387         560.288         279.602 
        0.47254         551.883         272.131 
       0.478662         542.597         264.831 
       0.484765         536.403         257.684 
       0.490885         530.962         250.683 
       0.497035         519.895         243.887 
       0.503198         519.585         237.381 
       0.509342         509.009         231.211 
       0.515458         499.073         225.365 
       0.521598         495.541         219.769 
       0.527764         485.342         214.388 
       0.533884         481.208         209.232 
           0.54         476.553         204.216 
       0.546137         468.171         199.297 
       0.552299         466.408          194.48 
       0.558452         459.381         189.808 
       0.564573           455.8         185.301 
       0.570708         450.313         180.935 
       0.576825         441.567         176.736 
       0.582926         440.091         172.709 
       0.589034         432.843         168.832 
       0.595184         429.391         165.066 
       0.601379         422.662         161.395 
       0.607522         415.074         157.855 
       0.613639         414.249         154.421 
       0.619772          412.34          151.07 
       0.625918         404.386         147.805 
       0.632068         402.046         144.633 
       0.638161         398.217         141.584 
         0.6443          393.04         138.605 
       0.650464         389.184         135.704 
       0.656582         385.795         132.912 
       0.662703         382.764         130.201 
       0.668861         376.641         127.556 
       0.675024         374.974         124.984 
       0.681124         368.652         122.509 
       0.687237         367.552         120.096 
       0.693381         362.198         117.733 
       0.699536         361.285         115.427 
       0.705665         356.534          113.19 
       0.711789         354.831         111.014 
       0.717957         350.388         108.881 
        0.72409         346.351         106.817 
       0.730186         347.789         104.822 
       0.736317         341.587         102.869 
       0.742472         338.727          100.96 
       0.748622         336.305         99.1026 
        0.75476         333.936         97.2961 
       0.760888         330.914         95.5373 
       0.767043         327.821         93.8143 
       0.773185         325.574         92.1368 
       0.779291         321.774         90.5093 
       0.785407         319.928         88.9185 
       0.791564         317.662         87.3559 
       0.797719         312.541         85.8318 
       0.803834          314.39          84.354 
       0.809972         309.273         82.9062 
       0.816124         306.236         81.4897 
       0.822261         303.995         80.1106 
       0.828378         302.743         78.7679 
       0.834502         298.177         77.4551 
       0.840667         298.423          76.164 
       0.846816          293.26         74.9062 
       0.852925         293.767         73.6848 
       0.859047         290.915         72.4881 
       0.865192         289.652         71.3142 
       0.871341         285.851         70.1656 
       0.877463         284.217         69.0475 
       0.883569         282.323         67.9568 
       0.889708         279.788         66.8841 
       0.895864         276.737         65.8319 
       0.902008         275.441         64.8046 
       0.908149         272.975            63.8 
       0.914301         271.563         62.8151 
       0.920448         269.723         61.8521 
       0.926574         267.742         60.9126 
       0.932687         266.949         59.9948 
       0.938823         263.835         59.0927 
       0.944975         263.301         58.2071 
       0.951105         260.534         57.3429 
       0.957225         257.915         56.4978 
       0.963368         258.243          55.667 
       0.969511         253.552         54.8529 
       0.975621         252.111         54.0595 
       0.981748          251.54         53.2798 
       0.987916          250.08         52.5106 
        0.99406         247.753         51.7596 
        1.00019         245.841         51.0248 
        1.00632         245.245         50.3049 
        1.01246         243.122          49.598 
        1.01859          240.51         48.9058 
        1.02471         238.989         48.2277 
        1.03085         237.892         47.5602 
        1.03698         236.937         46.9067 
        1.04314         235.859         46.2628 
        1.04929         234.266         45.6325 
        1.05541         232.382         45.0165 
        1.06154         230.549         44.4104 
        1.06769         228.768         43.8146 
        1.07382          227.58         43.2317 
        1.07993         225.803         42.6607 
        1.08607         224.697         42.0977 
        1.09222         222.778         41.5444 
        1.09836         222.158         41.0017 
        1.10449         220.471         40.4693 
        1.11063         218.879         39.9458 
        1.11677         217.153         39.4318 
         1.1229         216.628         38.9278 
        1.12903         214.484         38.4321 
        1.13518         213.236         37.9447 
        1.14131         212.476          37.466 
        1.14745         210.244         36.9959 
        1.15359         208.839         36.5338 
        1.15973          208.13         36.0794 
        1.16584         206.773         35.6347 
        1.17197         205.693          35.197 
        1.17811         203.903         34.7653 
        1.18424         202.758         34.3421 
        1.19038         201.954         33.9247 
        1.19652         199.552         33.5145 
        1.20267         198.954          33.111 
        1.20881          197.47         32.7143 
        1.21495         197.253         32.3247 
        1.22108         195.578         31.9416 
         1.2272         193.797         31.5655 
        1.23334         193.062         31.1947 
        1.23949         192.025         30.8289 
        1.24562         190.731         30.4701 
        1.25174         189.784         30.1175 
        1.25789         188.017         29.7694 
        1.26402         187.732         29.4274 
        1.27014         186.873         29.0916 
        1.27628         185.255         28.7601 
        1.28244         183.862         28.4331 
        1.28858         182.897         28.1117 
        1.29471         181.773         27.7959 
        1.30084         180.949         27.4852 
        1.30697         179.399         27.1789 
        1.31312         178.516         26.8768 
        1.31925         177.291         26.5802 
        1.32537          176.78         26.2884 
        1.33151         175.544         25.9999 
        1.33765         174.337          25.716 
        1.34378         173.728         25.4368 
        1.34992         172.311         25.1617 
        1.35606         171.543           24.89 
         1.3622          170.34         24.6227 
        1.36833         169.236         24.3601 
        1.37445         169.078         24.1014 
        1.38059         167.214         23.8457 
        1.38675         166.309         23.5931 
        1.39288         165.338         23.3452 
        1.39901         164.138          23.101 
        1.40515         163.708         22.8596 
         1.4113         162.496         22.6219 
        1.41742         161.331         22.3884 
        1.42355         161.133         22.1578 
         1.4297         159.767         21.9298 
        1.43585         159.217          21.705 
        1.44198          157.55         21.4843 
        1.44809          157.14          21.267 
        1.45423         156.286          21.052 
        1.46036         155.174         20.8403 
        1.46649          154.19         20.6314 
        1.47263         153.671         20.4253 
        1.47877         152.519          20.222 
        1.48491         151.475         20.0212 
        1.49104         150.132         19.8235 
        1.49718         149.928         19.6284 
        1.50333         148.622         19.4356 
        1.50947         148.072         19.2457 
         1.5156          147.06         19.0587 
        1.52172         146.391         18.8742 
        1.52787         145.664         18.6917 
          1.534         144.855         18.5119 
        1.54013         143.809         18.3346 
        1.54627         143.074         18.1593 
        1.55241         142.476         17.9863 
        1.55855         141.787         17.8158 
        1.56467         140.867          17.648 
         1.5708         139.683         17.4818 
        1.57695         139.312         17.3176 
        1.58308         138.161         17.1558 
        1.58922         137.536          16.996 
        1.59535         136.738         16.8382 
         1.6015         135.946         16.6823 
        1.60764         135.048         16.5284 
        1.61376         134.273         16.3769 
        1.61989         133.788         16.2271 
        1.62604         132.657         16.0789 
        1.63218         132.176         15.9327 
        1.63831         131.296         15.7885 
        1.64444         130.373         15.6462 
        1.65059         129.911         15.5052 
        1.65673         129.216         15.3661 
        1.66285          128.71         15.2291 
        1.66898         127.717         15.0938 
        1.67512         126.825         14.9598 
        1.68127         126.479         14.8273 
         1.6874         125.517         14.6967 
        1.69353         125.063         14.5678 
        1.69967         124.104         14.4401 
        1.70581         123.721          14.314 
        1.71193         122.876         14.1899 
        1.71806         121.747          14.067 
        1.72421          121.42         13.9453 
        1.73035         120.764         13.8251 
        1.73649         119.868         13.7064 
        1.74262         119.497         13.5892 
        1.74876         118.706         13.4733 
        1.75489         118.395          13.359 
        1.76101         117.319          13.246 
        1.76715         116.604         13.1342 
        1.77329         116.003         13.0236 
        1.77943         115.281         12.9141 
        1.78557          114.88         12.8061 
        1.79171         114.109         12.6993 
        1.79785         113.312         12.5937 
        1.80399          112.87         12.4894 
        1.81012         112.021         12.3863 
        1.81625         111.564         12.2844 
        1.82239         111.095         12.1836 
        1.82853         110.206         12.0839 
        1.83466         109.428         11.9854 
        1.84078         109.248         11.8882 
        1.84692          108.88         11.7918 
        1.85306         108.012         11.6964 
         1.8592         107.542         11.6022 
        1.86533         106.732         11.5091 
        1.87147         106.346         11.4169 
        1.87761         105.541         11.3257 
        1.88375         104.882         11.2356 
        1.88988         104.342         11.1465 
        1.89601         104.028         11.0584 
        1.90215         103.619         10.9711 
        1.90829         102.587         10.8849 
        1.91442         101.853         10.7995 
        1.92056         101.545         10.7152 
         1.9267         100.992         10.6316 
        1.93284         100.304         10.5489 
        1.93897         99.9213         10.4673 
        1.94509         99.3995         10.3866 
        1.95123         98.8799         10.3067 
        1.95737         98.3734         10.2275 
        1.96349          97.827         10.1493 
        1.96964         97.1838         10.0717 
        1.97578            96.7         9.99491 
        1.98192          96.395         9.91906 
        1.98805         95.7402         9.84399 
        1.99419          95.141         9.76969 
        2.00033         94.6086         9.69612 
        2.00647          94.148         9.62333 
         2.0126         93.6329         9.55141 
        2.01874         93.2886         9.48011 
        2.02488         92.5554         9.40947 
        2.03101         92.1759         9.33969 
        2.03714         91.6203         9.27067 
        2.04328         91.3862         9.20228 
        2.04941         90.8309         9.13463 
        2.05554         90.3257         9.06771 
        2.06167         89.5884         9.00136 
        2.06781         89.2439         8.93567 
        2.07396         88.6988         8.87054 
        2.08009         88.0753         8.80618 
        2.08622         87.8307         8.74252 
        2.09237          87.236         8.67936 
        2.09851         86.7625         8.61682 
        2.10464         86.5806           8.555 
        2.11077         85.9025         8.49386 
        2.11691         85.5639         8.43318 
        2.12305         85.0804         8.37308 
        2.12918         84.5659         8.31372 
        2.13531         84.1271         8.25492 
        2.14145         83.7515         8.19656 
         2.1476         83.3396         8.13869 
        2.15372         82.7586         8.08167 
        2.15985         82.3779         8.02514 
        2.16599         81.8807         7.96899 
        2.17213         81.4106         7.91344 
        2.17827         80.9084         7.85842 
         2.1844         80.6586         7.80398 
        2.19054         80.1102         7.75004 
        2.19666          79.624         7.69668 
         2.2028         79.4706         7.64377 
        2.20893         79.0585         7.59133 
        2.21508         78.5561         7.53933 
        2.22122         78.0537          7.4878 
        2.22736         77.7857         7.43685 
        2.23349          77.212         7.38639 
        2.23962         76.8801         7.33637 
        2.24577         76.5564         7.28677 
         2.2519         76.0664          7.2377 
        2.25802         75.7032         7.18915 
        2.26417         75.2035         7.14091 
        2.27031         74.7642         7.09307 
        2.27644         74.4944         7.04581 
        2.28257         74.1225         6.99898 
        2.28872         73.6811         6.95249 
        2.29486         73.5289         6.90642 
        2.30099         72.8759         6.86087 
        2.30712         72.6859         6.81571 
        2.31326         72.2187         6.77087 
         2.3194         71.8621         6.72647 
        2.32553         71.4391         6.68253 
        2.33166         71.0762         6.63901 
         2.3378         70.7693         6.59581 
        2.34394          70.509         6.55299 
        2.35007         69.9748          6.5106 
        2.35619         69.6882         6.46864 
        2.36233         69.2351         6.42695 
        2.36848         68.9292         6.38554 
        2.37462         68.6329         6.34459 
        2.38075         68.1922         6.30403 
        2.38689         67.8429         6.26379 
        2.39303         67.6071          6.2239 
        2.39916         67.1699         6.18441 
        2.40529         66.9373         6.14526 
        2.41143         66.5264         6.10642 
        2.41757         66.1129          6.0679 
         2.4237           65.78         6.02978 
        2.42983         65.4528         5.99199 
        2.43598          65.194         5.95442 
        2.44211         64.8706         5.91724 
        2.44823         64.5459         5.88046 
        2.45437         64.1998         5.84389 
        2.46052         63.8774         5.80759 
        2.46665         63.3029         5.77167 
        2.47279         63.1851         5.73607 
        2.47892         62.9484         5.70074 
        2.48507         62.5692         5.66567 
         2.4912         62.2068         5.63097 
