# k  (h/Mpc)    Pcb(k)  (Mpc/h)^3    Pcb_linear(k)  (Mpc/h)^3
     0.00783031          6885.3         6929.24 
       0.013688         8268.76         8427.92 
       0.019231         8261.69         8343.13 
      0.0249154         7525.94         7503.69 
      0.0312784         6279.21          6300.5 
      0.0375637         5200.24         5242.89 
      0.0433917         4522.62         4519.54 
      0.0492413         4015.56         4035.95 
      0.0555754         3707.35         3702.16 
      0.0619321         3382.72          3454.3 
       0.067871         3188.99         3218.48 
      0.0738098         2927.46         2939.67 
      0.0800417         2609.77         2606.61 
      0.0862327         2271.01         2272.34 
      0.0921407         1999.11         1990.12 
      0.0982031         1793.86         1763.69 
       0.104506         1608.75         1601.32 
       0.110769            1511         1499.66 
       0.116806         1461.93          1434.3 
       0.122832          1385.5         1376.47 
       0.129052         1317.05         1305.36 
       0.135211         1246.13         1215.95 
       0.141259         1136.11         1114.35 
       0.147318         1027.27         1010.54 
       0.153489         944.889         915.391 
       0.159709         885.442          838.87 
       0.165845         812.396         784.392 
       0.171974         794.892         747.173 
       0.178125         766.435          720.04 
       0.184229         722.831         695.563 
        0.19034         704.518         667.605 
       0.196428         674.815         633.784 
       0.202534         623.582           594.9 
       0.208729         601.353         553.883 
       0.214876         569.299         515.722 
       0.220989         528.091         483.299 
       0.227147         513.737         457.403 
        0.23329         494.195         437.666 
       0.239377         484.335         422.178 
       0.245482         461.567         408.315 
       0.251667         443.163         393.906 
       0.257832         436.694         378.001 
       0.263955         410.954         360.638 
       0.270079         393.579          342.56 
        0.27624         375.237         324.868 
       0.282372         363.914         308.851 
        0.28843         359.656         295.175 
       0.294538         341.793         283.566 
       0.300721         329.688         273.597 
        0.30691         324.408         264.661 
       0.313033         310.184         256.147 
       0.319153          304.69         247.451 
       0.325316         295.931         238.357 
        0.33145         287.341         229.086 
       0.337538         276.796         219.997 
       0.343633         267.829         211.354 
       0.349808          259.91         203.324 
       0.355968         253.935         196.143 
       0.362074         247.186         189.757 
       0.368217         243.215         183.898 
       0.374374         237.302         178.346 
       0.380519         227.562         172.937 
       0.386598         223.548         167.611 
       0.392688         217.264         162.273 
        0.39888         212.613         156.924 
       0.405048         207.891         151.765 
       0.411186         205.273          146.89 
       0.417313         200.668         142.345 
       0.423458         195.367         138.107 
       0.429607         190.726         134.143 
       0.435692         187.508         130.438 
       0.441815         183.083         126.854 
       0.447964         177.738         123.344 
       0.454126         174.749         119.899 
       0.460267         172.865          116.54 
       0.466387         168.867          113.28 
        0.47254         166.849         110.118 
       0.478662         161.429         107.115 
       0.484765         159.255         104.268 
       0.490885         156.326          101.55 
       0.497035         154.677         98.9438 
       0.503198         152.045           96.44 
       0.509342         148.044         94.0293 
       0.515458          146.05         91.6949 
       0.521598         142.504         89.4118 
       0.527764         141.095         87.1844 
       0.533884         140.242         85.0433 
           0.54         136.547         82.9765 
       0.546137         133.428         80.9763 
       0.552299         131.718         79.0435 
       0.558452         129.388         77.1886 
       0.564573         128.755         75.4115 
       0.570708         125.275         73.6896 
       0.576825         123.816         72.0246 
       0.582926         122.475         70.4102 
       0.589034         120.427         68.8391 
       0.595184         119.139         67.3036 
       0.601379          116.49         65.8045 
       0.607522         114.369         64.3645 
       0.613639         113.479         62.9753 
       0.619772          111.69         61.6256 
       0.625918          110.83         60.3148 
       0.632068         108.444         59.0434 
       0.638161         107.061         57.8216 
         0.6443          106.46         56.6264 
       0.650464         104.197         55.4609 
       0.656582         103.781         54.3361 
       0.662703         102.442         53.2414 
       0.668861         100.259         52.1702 
       0.675024         100.233         51.1274 
       0.681124         98.5283          50.124 
       0.687237           96.91         49.1462 
       0.693381         96.1427          48.191 
       0.699536         94.9665         47.2605 
       0.705665         93.7177         46.3594 
       0.711789         92.4553         45.4832 
       0.717957         91.3305          44.624 
        0.72409         90.5275         43.7918 
       0.730186         90.0777         42.9859 
       0.736317         88.5474         42.1959 
       0.742472         87.3029         41.4229 
       0.748622         86.0153         40.6701 
        0.75476          85.817         39.9377 
       0.760888         85.1929         39.2248 
       0.767043         83.4839         38.5267 
       0.773185         82.4834         37.8474 
       0.779291         81.5985         37.1886 
       0.785407         80.7586         36.5448 
       0.791564         80.5025         35.9124 
       0.797719         79.3022         35.2955 
       0.803834         78.8252         34.6972 
       0.809972         78.1405         34.1108 
       0.816124         77.1012         33.5368 
       0.822261         76.1504         32.9777 
       0.828378         75.9754         32.4332 
       0.834502         74.9043         31.9006 
       0.840667         74.3999         31.3767 
       0.846816         73.6769         30.8661 
       0.852925         72.7964         30.3703 
       0.859047         72.5749         29.8844 
       0.865192         71.5329         29.4077 
       0.871341         70.7531         28.9412 
       0.877463         70.2027         28.4871 
       0.883569         70.0948         28.0439 
       0.889708         69.3527          27.608 
       0.895864         68.7986         27.1804 
       0.902008         68.0619         26.7628 
       0.908149          67.244         26.3544 
       0.914301         66.9793         25.9539 
       0.920448         66.7784         25.5622 
       0.926574         65.4112           25.18 
       0.932687         65.1906         24.8066 
       0.938823           64.66         24.4395 
       0.944975         63.8793          24.079 
       0.951105         63.3962         23.7272 
       0.957225         63.1915         23.3831 
       0.963368         62.5576         23.0448 
       0.969511         62.0597         22.7131 
       0.975621         61.5349         22.3899 
       0.981748         60.9879         22.0722 
       0.987916          60.519         21.7587 
        0.99406         60.2243         21.4525 
        1.00019         59.4834         21.1529 
        1.00632         59.0822         20.8594 
        1.01246         58.7043          20.571 
        1.01859         58.4322         20.2886 
        1.02471         57.7992         20.0119 
        1.03085         57.3875         19.7395 
        1.03698         57.0561         19.4728 
        1.04314         56.5891         19.2099 
        1.04929         56.1147         18.9525 
        1.05541         55.8416         18.7009 
        1.06154         55.4675         18.4533 
        1.06769         54.8648         18.2098 
        1.07382         54.4308         17.9716 
        1.07993         54.2563         17.7382 
        1.08607         53.8054          17.508 
        1.09222         53.5864         17.2818 
        1.09836         53.1299         17.0598 
        1.10449         52.8368          16.842 
        1.11063         52.3681         16.6278 
        1.11677         52.2092         16.4175 
         1.1229         51.6614         16.2112 
        1.12903         51.4614         16.0083 
        1.13518         51.2993         15.8087 
        1.14131         50.7556         15.6127 
        1.14745         50.3944         15.4201 
        1.15359         49.8417         15.2308 
        1.15973         49.8516         15.0446 
        1.16584         49.4518         14.8624 
        1.17197         48.9321          14.683 
        1.17811         48.7383          14.506 
        1.18424           48.09         14.3325 
        1.19038         48.0184         14.1614 
        1.19652         47.8043         13.9931 
        1.20267         47.4609         13.8276 
        1.20881         47.1524         13.6648 
        1.21495         46.9596         13.5049 
        1.22108         46.8252         13.3476 
         1.2272         46.3045         13.1932 
        1.23334         46.0915         13.0409 
        1.23949         45.7973         12.8907 
        1.24562         45.4885         12.7433 
        1.25174         45.2078         12.5984 
        1.25789         45.1198         12.4554 
        1.26402         44.7622         12.3148 
        1.27014         44.6109         12.1768 
        1.27628         44.1255         12.0405 
        1.28244         44.1162          11.906 
        1.28858         43.7279         11.7738 
        1.29471         43.4279         11.6439 
        1.30084         43.0772         11.5161 
        1.30697         43.1204         11.3901 
        1.31312         42.7168         11.2657 
        1.31925         42.3629         11.1436 
        1.32537         42.1729         11.0235 
        1.33151         41.9069         10.9047 
        1.33765         41.7634         10.7877 
        1.34378         41.5762         10.6728 
        1.34992         41.2635         10.5594 
        1.35606          40.948         10.4474 
         1.3622         40.8168         10.3373 
        1.36833         40.6535          10.229 
        1.37445         40.2396         10.1224 
        1.38059         40.1574         10.0169 
        1.38675          39.788         9.91273 
        1.39288         39.7294         9.81045 
        1.39901         39.4186         9.70968 
        1.40515         39.2837         9.61011 
         1.4113         39.2194         9.51198 
        1.41742         38.9176         9.41561 
        1.42355         38.6176          9.3204 
         1.4297         38.4891         9.22624 
        1.43585           38.24         9.13342 
        1.44198         37.9894         9.04224 
        1.44809         37.7578         8.95249 
        1.45423         37.6665         8.86363 
        1.46036         37.5165         8.77615 
        1.46649         37.2745         8.68983 
        1.47263          37.048         8.60461 
        1.47877         36.8864         8.52057 
        1.48491         36.7245         8.43754 
        1.49104         36.4307         8.35579 
        1.49718         36.3648         8.27507 
        1.50333         36.1994         8.19529 
        1.50947         35.9435         8.11673 
         1.5156         35.8062         8.03932 
        1.52172         35.5482         7.96293 
        1.52787         35.4512         7.88739 
          1.534         35.1928         7.81292 
        1.54013         35.2099          7.7395 
        1.54627         34.8628         7.66689 
        1.55241         34.6869         7.59521 
        1.55855         34.5992         7.52456 
        1.56467         34.3609           7.455 
         1.5708         34.2792         7.38613 
        1.57695         34.1129         7.31804 
        1.58308         33.8148         7.25096 
        1.58922         33.6872         7.18469 
        1.59535         33.5779         7.11927 
         1.6015         33.5246         7.05459 
        1.60764         33.2371         6.99074 
        1.61376         33.0719         6.92787 
        1.61989         32.8427         6.86572 
        1.62604         32.7306          6.8042 
        1.63218         32.5519         6.74348 
        1.63831         32.4642         6.68364 
        1.64444         32.3006         6.62451 
        1.65059         32.1254         6.56597 
        1.65673         31.9931          6.5082 
        1.66285         31.9164         6.45128 
        1.66898         31.6641         6.39504 
        1.67512         31.5898         6.33936 
        1.68127         31.4054          6.2843 
         1.6874          31.263         6.23002 
        1.69353         31.1723         6.17642 
        1.69967         31.0317         6.12332 
        1.70581          30.809         6.07088 
        1.71193         30.6736         6.01925 
        1.71806         30.5891         5.96811 
        1.72421         30.4434         5.91747 
        1.73035         30.2742         5.86748 
        1.73649         30.0765         5.81808 
        1.74262         29.9096         5.76929 
        1.74876         29.9235         5.72103 
        1.75489         29.6964         5.67343 
        1.76101            29.6         5.62638 
        1.76715          29.479         5.57981 
        1.77329         29.2409          5.5337 
        1.77943         29.2166         5.48811 
        1.78557         29.1139         5.44309 
        1.79171          28.964         5.39858 
        1.79785          28.831         5.35456 
        1.80399         28.6808         5.31104 
        1.81012         28.6137         5.26807 
        1.81625         28.3546         5.22559 
        1.82239         28.2835         5.18352 
        1.82853         28.1697         5.14194 
        1.83466         28.0273         5.10085 
        1.84078         27.8876         5.06027 
        1.84692         27.7911         5.02006 
        1.85306         27.6239         4.98024 
         1.8592         27.5936         4.94091 
        1.86533         27.4318         4.90204 
        1.87147         27.2931         4.86354 
        1.87761         27.1493         4.82544 
        1.88375         27.0979          4.7878 
        1.88988          26.964          4.7506 
        1.89601         26.7945         4.71378 
        1.90215         26.7051         4.67732 
        1.90829         26.6328         4.64126 
        1.91442          26.454         4.60559 
        1.92056         26.3721         4.57032 
         1.9267         26.2971          4.5354 
        1.93284          26.184         4.50081 
        1.93897         26.0873         4.46666 
        1.94509         25.9531         4.43293 
        1.95123         25.8622         4.39947 
        1.95737         25.7141         4.36633 
        1.96349         25.6492         4.33363 
        1.96964         25.5722         4.30116 
        1.97578         25.3626         4.26901 
        1.98192         25.2872         4.23726 
        1.98805         25.1296         4.20583 
        1.99419         25.0783         4.17472 
        2.00033         24.9492         4.14391 
        2.00647         24.9014         4.11342 
         2.0126         24.7334         4.08329 
        2.01874         24.6553         4.05341 
        2.02488         24.5174         4.02381 
        2.03101          24.394         3.99457 
        2.03714         24.3476         3.96564 
        2.04328          24.234         3.93697 
        2.04941         24.1181          3.9086 
        2.05554         24.0496         3.88054 
        2.06167         23.9336         3.85272 
        2.06781         23.8632         3.82516 
        2.07396         23.7617         3.79784 
        2.08009          23.622         3.77083 
        2.08622          23.558         3.74412 
        2.09237         23.4915         3.71762 
        2.09851         23.3556         3.69137 
        2.10464         23.2066         3.66541 
        2.11077         23.1971         3.63974 
        2.11691         23.0657         3.61426 
        2.12305         22.9894         3.58903 
        2.12918         22.8861         3.56409 
        2.13531          22.814          3.5394 
        2.14145         22.7006         3.51488 
         2.1476         22.5636         3.49056 
        2.15372         22.5396          3.4666 
        2.15985         22.4235         3.44284 
        2.16599         22.2977         3.41924 
        2.17213         22.2457         3.39588 
        2.17827         22.1348         3.37275 
         2.1844           22.06         3.34986 
        2.19054         22.0315         3.32717 
        2.19666         21.8783         3.30472 
         2.2028         21.8601         3.28247 
        2.20893         21.7156         3.26041 
        2.21508         21.6303         3.23852 
        2.22122          21.525         3.21684 
        2.22736         21.5026         3.19539 
        2.23349         21.3426         3.17415 
        2.23962         21.2967         3.15309 
        2.24577         21.1949         3.13221 
         2.2519          21.125         3.11154 
        2.25802         20.9928          3.0911 
        2.26417         20.9351         3.07078 
        2.27031         20.8646         3.05063 
        2.27644         20.8081         3.03071 
        2.28257         20.7104         3.01098 
        2.28872         20.6789         2.99139 
        2.29486         20.5688         2.97197 
        2.30099         20.4445         2.95277 
        2.30712         20.4034         2.93373 
        2.31326         20.2836         2.91483 
         2.3194         20.2295          2.8961 
        2.32553         20.1725         2.87757 
        2.33166         20.0502         2.85922 
         2.3378         20.0011         2.84099 
        2.34394         19.9092         2.82293 
        2.35007          19.852         2.80504 
        2.35619         19.8118         2.78733 
        2.36233         19.6417         2.76974 
        2.36848         19.5939         2.75226 
        2.37462         19.5589         2.73497 
        2.38075         19.4791         2.71784 
        2.38689         19.3539         2.70085 
        2.39303         19.3127         2.68401 
        2.39916         19.2006         2.66733 
        2.40529         19.1722         2.65079 
        2.41143         19.0567         2.63438 
        2.41757          18.965         2.61811 
         2.4237         18.9258           2.602 
        2.42983         18.8575         2.58603 
        2.43598         18.7599         2.57015 
        2.44211         18.7191         2.55443 
        2.44823         18.6145         2.53888 
        2.45437          18.603         2.52342 
        2.46052         18.4957         2.50807 
        2.46665         18.4641         2.49288 
        2.47279          18.346         2.47782 
        2.47892         18.2816         2.46287 
        2.48507         18.2293         2.44804 
         2.4912         18.1459         2.43335 
