# k  (h/Mpc)    P(k)  (Mpc/h)^3    P_linear(k)  (Mpc/h)^3
     0.00783031         13547.5         13719.7 
       0.013688         17544.4         17388.3 
       0.019231         18087.2         18069.8 
      0.0249154         16798.8         17169.5 
      0.0312784         15088.5         15294.7 
      0.0375637         13250.5         13306.2 
      0.0433917         11452.1         11715.3 
      0.0492413         10357.9         10482.8 
      0.0555754         9182.44         9525.54 
      0.0619321         8790.27         8831.88 
       0.067871         8002.04         8290.55 
      0.0738098         7472.57          7749.7 
      0.0800417         6779.08         7127.42 
      0.0862327         6222.03         6457.24 
      0.0921407          5701.5         5812.37 
      0.0982031         5087.53         5201.02 
       0.104506         4727.34         4666.43 
       0.110769         4327.74         4257.18 
       0.116806         4033.65         3969.47 
       0.122832         3832.63         3759.79 
       0.129052         3572.87         3587.32 
       0.135211         3417.21          3424.8 
       0.141259         3294.59          3249.4 
       0.147318         3125.44         3049.93 
       0.153489         2877.09         2829.14 
       0.159709         2719.16         2605.43 
       0.165845         2603.49         2401.78 
       0.171974         2440.86         2228.48 
       0.178125         2312.67         2089.92 
       0.184229         2208.63         1984.56 
        0.19034         2088.83         1902.59 
       0.196428         2054.73          1833.2 
       0.202534         1984.46         1765.45 
       0.208729         1902.96         1691.25 
       0.214876         1827.28         1609.67 
       0.220989         1769.17         1522.73 
       0.227147          1690.6         1434.31 
        0.23329         1622.35         1350.91 
       0.239377          1595.3         1277.44 
       0.245482         1495.12         1215.02 
       0.251667         1486.86         1162.84 
       0.257832         1429.99         1119.49 
       0.263955         1385.09         1081.62 
       0.270079          1340.1         1045.46 
        0.27624         1327.44         1008.32 
       0.282372         1272.14         969.476 
        0.28843         1264.66         929.492 
       0.294538         1203.02         888.887 
       0.300721          1196.9         849.162 
        0.30691         1149.43         812.361 
       0.313033         1127.53         779.715 
       0.319153         1108.22         751.024 
       0.325316         1072.17         725.481 
        0.33145         1048.89         702.476 
       0.337538         1032.68         680.911 
       0.343633         1008.77         659.752 
       0.349808         976.229         638.186 
       0.355968         970.281         616.485 
       0.362074         960.123         595.027 
       0.368217         931.138         573.963 
       0.374374         896.484         553.872 
       0.380519         897.203          535.15 
       0.386598         873.847         518.109 
       0.392688         871.254         502.395 
        0.39888         845.963         487.566 
       0.405048         835.454         473.629 
       0.411186         823.615         460.246 
       0.417313         806.603         447.163 
       0.423458         794.102          434.23 
       0.429607         782.736         421.464 
       0.435692         767.042         409.135 
       0.441815         761.708         397.159 
       0.447964         745.729         385.667 
       0.454126         737.453         374.766 
       0.460267         721.261         364.528 
       0.466387          713.09         354.869 
        0.47254         706.316         345.617 
       0.478662         701.156         336.779 
       0.484765         681.422         328.242 
       0.490885         677.231         319.886 
       0.497035         663.232         311.688 
       0.503198         658.887         303.692 
       0.509342         652.198         295.952 
       0.515458         648.369         288.508 
       0.521598         633.235         281.325 
       0.527764         621.031          274.42 
       0.533884         620.291         267.848 
           0.54         613.121         261.536 
       0.546137         609.449          255.43 
       0.552299         600.207         249.502 
       0.558452         596.564         243.761 
       0.564573         588.365         238.202 
       0.570708         582.038         232.775 
       0.576825         566.437         227.517 
       0.582926         568.671         222.431 
       0.589034         563.624         217.502 
       0.595184         558.409           212.7 
       0.601379         551.033         208.023 
       0.607522          543.36         203.537 
       0.613639         543.708         199.216 
       0.619772         530.883         195.018 
       0.625918         528.801         190.934 
       0.632068         521.858          186.96 
       0.638161         520.154         183.127 
         0.6443         510.637         179.367 
       0.650464         508.626         175.696 
       0.656582         505.811         172.154 
       0.662703         503.227         168.713 
       0.668861         494.513         165.351 
       0.675024         490.933         162.082 
       0.681124         487.782         158.937 
       0.687237         483.637         155.871 
       0.693381         477.583         152.873 
       0.699536         470.696         149.949 
       0.705665         469.951         147.115 
       0.711789          466.89         144.357 
       0.717957         462.899          141.65 
        0.72409         459.982         139.029 
       0.730186          454.14         136.489 
       0.736317         450.824         133.999 
       0.742472         449.031         131.563 
       0.748622         443.984          129.19 
        0.75476         438.379         126.882 
       0.760888         434.102         124.634 
       0.767043         434.821         122.434 
       0.773185         429.659         120.292 
       0.779291         425.009         118.215 
       0.785407         422.622         116.184 
       0.791564         417.783         114.188 
       0.797719         415.549         112.241 
       0.803834         411.955         110.352 
       0.809972         410.468         108.499 
       0.816124         409.914         106.686 
       0.822261         403.784         104.919 
       0.828378         401.755         103.197 
       0.834502         397.902         101.514 
       0.840667         394.489         99.8568 
       0.846816          392.94         98.2421 
       0.852925         389.783         96.6737 
       0.859047         388.404         95.1366 
       0.865192         383.942         93.6282 
       0.871341         381.002         92.1518 
       0.877463         379.898         90.7142 
       0.883569         377.008         89.3112 
       0.889708         374.216         87.9309 
       0.895864         371.514         86.5765 
       0.902008         369.006         85.2537 
       0.908149         366.003         83.9595 
       0.914301         362.846         82.6903 
       0.920448         360.781         81.4487 
       0.926574         356.195         80.2372 
       0.932687         356.626          79.053 
       0.938823         352.638         77.8887 
       0.944975         352.467         76.7454 
       0.951105         348.584         75.6293 
       0.957225         346.367         74.5374 
       0.963368         342.711         73.4636 
       0.969511         341.316         72.4111 
       0.975621         338.852          71.385 
       0.981748         338.202         70.3764 
       0.987916         335.772          69.381 
        0.99406         330.293         68.4089 
        1.00019         330.061         67.4574 
        1.00632         328.275          66.525 
        1.01246         325.537          65.609 
        1.01859          326.16         64.7119 
        1.02471         321.143         63.8328 
        1.03085         319.411         62.9672 
        1.03698         318.459         62.1195 
        1.04314         315.327          61.284 
        1.04929         312.719          60.466 
        1.05541         313.376         59.6662 
        1.06154           308.3         58.8791 
        1.06769         307.607         58.1051 
        1.07382         305.725         57.3477 
        1.07993         303.671         56.6055 
        1.08607         302.757         55.8735 
        1.09222         300.183         55.1538 
        1.09836         298.162         54.4477 
        1.10449         295.323         53.7549 
        1.11063         292.703         53.0734 
        1.11677         292.718         52.4041 
         1.1229         290.768         51.7475 
        1.12903         288.609         51.1017 
        1.13518         286.372         50.4664 
        1.14131         284.729         49.8424 
        1.14745         283.774         49.2293 
        1.15359         281.471         48.6264 
        1.15973         279.907         48.0335 
        1.16584         277.804         47.4532 
        1.17197         277.717         46.8816 
        1.17811         274.525         46.3178 
        1.18424         272.748         45.7649 
        1.19038         271.848         45.2196 
        1.19652         269.706         44.6834 
        1.20267          269.02         44.1559 
        1.20881         267.048         43.6371 
        1.21495         265.043         43.1275 
        1.22108         263.705         42.6262 
         1.2272         261.935         42.1341 
        1.23334         260.512         41.6486 
        1.23949         259.043         41.1698 
        1.24562         257.897         40.6998 
        1.25174         255.644         40.2379 
        1.25789         253.852         39.7818 
        1.26402         252.275         39.3337 
        1.27014         250.776         38.8936 
        1.27628         249.575         38.4589 
        1.28244         249.227         38.0301 
        1.28858         246.506         37.6085 
        1.29471         244.643         37.1942 
        1.30084         243.707         36.7866 
        1.30697         242.173         36.3845 
        1.31312         239.881         35.9879 
        1.31925         239.676         35.5984 
        1.32537         238.489         35.2152 
        1.33151         236.152         34.8362 
        1.33765         234.609          34.463 
        1.34378         233.898         34.0961 
        1.34992         232.601         33.7343 
        1.35606         232.362          33.377 
         1.3622         230.201         33.0255 
        1.36833         228.055           32.68 
        1.37445         227.271         32.3395 
        1.38059         225.316          32.003 
        1.38675          224.58         31.6704 
        1.39288           223.1         31.3439 
        1.39901         222.663         31.0221 
        1.40515         220.631         30.7042 
         1.4113         219.462         30.3909 
        1.41742         217.938         30.0832 
        1.42355         216.714         29.7791 
         1.4297         215.156         29.4784 
        1.43585         214.161          29.182 
        1.44198         213.049         28.8908 
        1.44809         212.089         28.6041 
        1.45423          210.68         28.3203 
        1.46036         209.649         28.0408 
        1.46649         207.989         27.7651 
        1.47263         206.641         27.4928 
        1.47877         205.643         27.2243 
        1.48491         204.086         26.9591 
        1.49104         203.427         26.6979 
        1.49718         201.529           26.44 
        1.50333         200.908         26.1851 
        1.50947         199.899         25.9341 
         1.5156         198.088         25.6868 
        1.52172         197.379         25.4428 
        1.52787         195.791         25.2014 
          1.534         195.419         24.9635 
        1.54013         193.736         24.7289 
        1.54627         192.903         24.4969 
        1.55241         191.502         24.2678 
        1.55855         190.404          24.042 
        1.56467          189.19         23.8198 
         1.5708         188.736         23.5997 
        1.57695         187.256         23.3821 
        1.58308         186.445         23.1677 
        1.58922         184.913         22.9559 
        1.59535         183.625         22.7468 
         1.6015         183.275         22.5401 
        1.60764         181.923          22.336 
        1.61376         180.702          22.135 
        1.61989         179.917         21.9364 
        1.62604         178.851         21.7397 
        1.63218         177.969         21.5456 
        1.63831         176.756         21.3543 
        1.64444         176.002         21.1653 
        1.65059         174.647         20.9781 
        1.65673         173.542         20.7934 
        1.66285         172.904         20.6114 
        1.66898         171.643         20.4316 
        1.67512         171.467         20.2535 
        1.68127         169.505         20.0774 
         1.6874         168.635         19.9039 
        1.69353         167.995         19.7324 
        1.69967         166.743         19.5626 
        1.70581          165.98         19.3949 
        1.71193         164.869         19.2298 
        1.71806         164.359         19.0663 
        1.72421         163.115         18.9043 
        1.73035          162.69         18.7444 
        1.73649         161.677         18.5865 
        1.74262         160.476         18.4304 
        1.74876         159.752         18.2761 
        1.75489         158.651         18.1238 
        1.76101         157.653         17.9734 
        1.76715         157.197         17.8244 
        1.77329         156.436          17.677 
        1.77943         155.316         17.5311 
        1.78557          154.57         17.3872 
        1.79171         153.741         17.2448 
        1.79785         152.692          17.104 
        1.80399         151.786         16.9648 
        1.81012         150.948         16.8273 
        1.81625         150.383         16.6915 
        1.82239         149.492         16.5569 
        1.82853         148.831         16.4239 
        1.83466         147.744         16.2925 
        1.84078         147.224         16.1627 
        1.84692         145.713          16.034 
        1.85306          145.69         15.9067 
         1.8592         144.537         15.7809 
        1.86533         143.596         15.6565 
        1.87147         142.644         15.5334 
        1.87761         142.246         15.4115 
        1.88375         140.903         15.2911 
        1.88988         140.379         15.1721 
        1.89601          139.68         15.0543 
        1.90215         138.801         14.9376 
        1.90829         138.213         14.8223 
        1.91442         137.428         14.7082 
        1.92056         136.656         14.5953 
         1.9267         136.085         14.4836 
        1.93284         135.246         14.3729 
        1.93897         134.344         14.2636 
        1.94509         133.811         14.1557 
        1.95123         133.205         14.0487 
        1.95737         132.522         13.9426 
        1.96349         131.761          13.838 
        1.96964         130.664         13.7341 
        1.97578         129.927         13.6312 
        1.98192         129.602         13.5296 
        1.98805         128.549         13.4291 
        1.99419         128.051         13.3295 
        2.00033         127.243         13.2309 
        2.00647         126.828         13.1334 
         2.0126         125.628          13.037 
        2.01874         125.215         12.9414 
        2.02488         124.756         12.8467 
        2.03101         123.642         12.7531 
        2.03714         123.155         12.6605 
        2.04328         122.502         12.5688 
        2.04941         121.837          12.478 
        2.05554         121.029         12.3882 
        2.06167         120.756         12.2992 
        2.06781         120.039          12.211 
        2.07396         119.136         12.1236 
        2.08009          118.68         12.0372 
        2.08622         118.021         11.9517 
        2.09237         117.181         11.8669 
        2.09851         116.713         11.7829 
        2.10464         116.219         11.6999 
        2.11077         115.604         11.6177 
        2.11691         115.035         11.5362 
        2.12305         113.967         11.4554 
        2.12918         113.534         11.3757 
        2.13531         113.009         11.2966 
        2.14145         112.232         11.2182 
         2.1476         111.487         11.1404 
        2.15372         111.203         11.0637 
        2.15985         110.805         10.9877 
        2.16599         109.987         10.9122 
        2.17213          109.29         10.8374 
        2.17827         108.962         10.7634 
         2.1844         108.039         10.6902 
        2.19054         107.715         10.6176 
        2.19666         107.203         10.5457 
         2.2028         106.464         10.4745 
        2.20893         106.005         10.4039 
        2.21508         105.329         10.3339 
        2.22122         104.818         10.2645 
        2.22736         104.357         10.1959 
        2.23349         103.831         10.1279 
        2.23962         103.081         10.0605 
        2.24577         102.789          9.9937 
         2.2519         102.373         9.92758 
        2.25802         101.359         9.86215 
        2.26417         101.059         9.79714 
        2.27031         100.477         9.73265 
        2.27644         99.9577         9.66893 
        2.28257         99.3968         9.60579 
        2.28872         98.9828         9.54309 
        2.29486         98.3701         9.48097 
        2.30099         97.9489         9.41953 
        2.30712         97.4404         9.35861 
        2.31326         96.8144         9.29812 
         2.3194          96.258         9.23821 
        2.32553         95.8805         9.17892 
        2.33166         95.3956         9.12018 
         2.3378         94.8581         9.06188 
        2.34394         94.4501         9.00407 
        2.35007         93.8421         8.94684 
        2.35619         93.5015         8.89018 
        2.36233         92.9135         8.83388 
        2.36848         92.3258         8.77795 
        2.37462         91.9529         8.72263 
        2.38075         91.4794         8.66783 
        2.38689         90.9924         8.61346 
        2.39303         90.2991         8.55957 
        2.39916         90.0545         8.50619 
        2.40529         89.6913         8.45328 
        2.41143         89.0854         8.40078 
        2.41757         88.7132          8.3487 
         2.4237         88.2433         8.29716 
        2.42983         87.6869         8.24606 
        2.43598         87.2473         8.19525 
        2.44211         87.0366         8.14496 
        2.44823         86.4891         8.09521 
        2.45437         85.8035         8.04573 
        2.46052         85.3826         7.99663 
        2.46665         85.0888         7.94803 
        2.47279         84.5898         7.89984 
        2.47892         84.2468         7.85203 
        2.48507         83.7269         7.80456 
         2.4912         83.4468         7.75758 
