# k  (h/Mpc)    Pcb(k)  (Mpc/h)^3    Pcb_linear(k)  (Mpc/h)^3
     0.00783031         19398.7         19694.2 
       0.013688         24735.3         24471.7 
       0.019231         25030.4         25001.9 
      0.0249154         22716.5         23311.5 
      0.0312784         19972.5         20294.6 
      0.0375637         17200.8         17261.6 
      0.0433917         14569.3         14924.5 
      0.0492413         13034.4         13179.8 
      0.0555754         11425.9         11885.1 
      0.0619321         10965.2         10995.4 
       0.067871         9938.06         10322.5 
      0.0738098          9279.1          9643.5 
      0.0800417         8384.05         8838.61 
      0.0862327         7660.39          7950.5 
      0.0921407         6997.79         7086.78 
      0.0982031         6192.88         6269.39 
       0.104506         5734.38         5564.41 
       0.110769         5228.46         5039.73 
       0.116806         4887.48         4687.44 
       0.122832          4635.3          4446.1 
       0.129052         4317.45          4257.7 
       0.135211         4130.86         4078.73 
       0.141259         3994.48         3874.45 
       0.147318         3790.35          3629.3 
       0.153489         3479.49         3348.51 
       0.159709         3282.98         3059.72 
       0.165845         3146.49         2797.25 
       0.171974         2955.22          2577.7 
       0.178125         2799.32         2408.06 
       0.184229         2659.75         2285.81 
        0.19034         2538.26          2196.7 
       0.196428         2488.19         2124.32 
       0.202534         2394.25         2052.27 
       0.208729         2299.63         1968.42 
       0.214876         2221.07          1870.7 
       0.220989         2143.81         1762.53 
       0.227147         2057.76         1650.57 
        0.23329         1974.11         1545.11 
       0.239377         1944.27         1453.81 
       0.245482         1828.32         1378.74 
       0.251667         1817.91         1319.01 
       0.257832         1746.06         1272.01 
       0.263955         1689.21         1232.24 
       0.270079         1634.68         1193.97 
        0.27624         1614.74         1152.88 
       0.282372         1550.44         1107.67 
        0.28843         1548.68         1059.37 
       0.294538         1475.56          1009.2 
       0.300721         1462.43         959.988 
        0.30691         1412.25         914.893 
       0.313033         1382.16         876.023 
       0.319153         1365.32          843.02 
       0.325316         1319.86         814.851 
        0.33145         1293.27         790.104 
       0.337538            1267         767.028 
       0.343633         1244.86         743.828 
       0.349808         1205.97         719.433 
       0.355968          1195.7         694.011 
       0.362074         1186.54         668.348 
       0.368217         1147.44         642.943 
       0.374374         1110.67          618.78 
       0.380519         1113.02         596.703 
       0.386598         1079.83         577.033 
       0.392688         1074.85         559.407 
        0.39888         1045.08         543.136 
       0.405048         1036.25         527.935 
       0.411186         1020.78         513.285 
       0.417313         998.916         498.693 
       0.423458         982.139         483.923 
       0.429607         971.441         469.135 
       0.435692         953.234         454.674 
       0.441815         943.981         440.588 
       0.447964         925.557         427.208 
       0.454126         920.463         414.691 
       0.460267         897.079          403.09 
       0.466387         884.106         392.343 
        0.47254         885.842         382.152 
       0.478662         871.331         372.402 
       0.484765         849.236         362.914 
       0.490885          844.43         353.561 
       0.497035         826.223         344.269 
       0.503198         821.972         335.099 
       0.509342         811.797         326.198 
       0.515458         808.282          317.67 
       0.521598         789.231         309.491 
       0.527764         776.135          301.67 
       0.533884         773.019           294.3 
           0.54         768.044          287.29 
       0.546137         757.317         280.538 
       0.552299         749.925         273.965 
       0.558452         741.976         267.558 
       0.564573         733.698         261.328 
       0.570708         725.853         255.231 
       0.576825         708.239         249.303 
       0.582926         711.464         243.553 
       0.589034         703.057         237.978 
       0.595184         697.107         232.569 
       0.601379         687.901         227.338 
       0.607522         677.558         222.355 
       0.613639         677.285         217.563 
       0.619772         665.683         212.906 
       0.625918         659.732         208.366 
       0.632068         652.261          203.94 
       0.638161          648.77         199.669 
         0.6443         638.803          195.48 
       0.650464         637.205         191.387 
       0.656582         629.983         187.435 
       0.662703         628.243         183.593 
       0.668861         618.111         179.841 
       0.675024         612.394         176.199 
       0.681124         608.691         172.707 
       0.687237         604.535         169.313 
       0.693381         596.512         165.999 
       0.699536          585.96         162.771 
       0.705665          586.55         159.639 
       0.711789         582.817         156.586 
       0.717957          577.52         153.585 
        0.72409         574.237         150.674 
       0.730186         566.154         147.855 
       0.736317          563.65         145.094 
       0.742472         558.882         142.396 
       0.748622         553.474         139.773 
        0.75476          544.86         137.226 
       0.760888          541.29         134.749 
       0.767043         539.605         132.325 
       0.773185         535.169         129.966 
       0.779291         530.117         127.678 
       0.785407         525.029          125.44 
       0.791564         520.393          123.24 
       0.797719          518.93         121.093 
       0.803834         511.924         119.009 
       0.809972         510.024         116.968 
       0.816124         508.475          114.97 
       0.822261         500.865         113.024 
       0.828378         498.708         111.131 
       0.834502         493.152          109.28 
       0.840667         489.184          107.46 
       0.846816         486.652         105.687 
       0.852925          483.56         103.966 
       0.859047         481.671          102.28 
       0.865192         474.836         100.626 
       0.871341          471.18         99.0073 
       0.877463         470.684         97.4317 
       0.883569         465.588         95.8944 
       0.889708         463.623         94.3823 
       0.895864         462.206         92.8989 
       0.902008         457.855         91.4506 
       0.908149         450.825          90.034 
       0.914301         449.706         88.6453 
       0.920448         447.612         87.2872 
       0.926574         440.666         85.9624 
       0.932687         439.081         84.6681 
       0.938823         435.338         83.3959 
       0.944975         434.632          82.147 
       0.951105         430.583         80.9283 
       0.957225         427.228         79.7365 
       0.963368         422.443         78.5648 
       0.969511         421.535         77.4168 
       0.975621         419.037         76.2979 
       0.981748         415.402         75.1983 
       0.987916         413.105         74.1136 
        0.99406         407.435         73.0544 
        1.00019         405.738          72.018 
        1.00632         403.856         71.0028 
        1.01246         400.336         70.0057 
        1.01859         399.407         69.0295 
        1.02471         394.835         68.0731 
        1.03085          393.07         67.1316 
        1.03698         390.576         66.2099 
        1.04314         387.684         65.3017 
        1.04929         383.829         64.4127 
        1.05541         384.545         63.5438 
        1.06154         378.607         62.6889 
        1.06769         377.073         61.8484 
        1.07382         373.842         61.0262 
        1.07993         371.983         60.2208 
        1.08607         370.978         59.4266 
        1.09222         366.225          58.646 
        1.09836          363.58         57.8804 
        1.10449         362.029         57.1293 
        1.11063         356.725         56.3908 
        1.11677          358.12         55.6656 
         1.1229         354.957         54.9545 
        1.12903          352.61         54.2552 
        1.13518         348.731         53.5675 
        1.14131         347.378         52.8921 
        1.14745         344.389         52.2288 
        1.15359         342.894         51.5767 
        1.15973         340.843         50.9356 
        1.16584         337.906         50.3082 
        1.17197         337.027         49.6905 
        1.17811         333.912         49.0813 
        1.18424         330.911         48.4841 
        1.19038         329.677         47.8952 
        1.19652         327.544         47.3163 
        1.20267         325.986         46.7469 
        1.20881         323.377         46.1871 
        1.21495         321.175         45.6373 
        1.22108         319.088         45.0966 
         1.2272         317.258         44.5659 
        1.23334         315.491         44.0426 
        1.23949         312.007         43.5264 
        1.24562         310.709           43.02 
        1.25174         309.497         42.5224 
        1.25789         306.096         42.0311 
        1.26402         304.526         41.5485 
        1.27014         302.332         41.0747 
        1.27628         299.812         40.6069 
        1.28244         300.236         40.1454 
        1.28858         296.966         39.6917 
        1.29471         296.047         39.2461 
        1.30084         293.138         38.8077 
        1.30697         292.341         38.3754 
        1.31312         288.938          37.949 
        1.31925         287.366         37.5304 
        1.32537         286.609         37.1186 
        1.33151         283.866         36.7114 
        1.33765         281.419         36.3106 
        1.34378         280.752         35.9166 
        1.34992          278.95         35.5282 
        1.35606         277.114         35.1447 
         1.3622         274.943         34.7675 
        1.36833         273.811         34.3968 
        1.37445         271.637         34.0316 
        1.38059         269.891         33.6707 
        1.38675         268.112         33.3141 
        1.39288         266.809         32.9641 
        1.39901         264.897         32.6194 
        1.40515         263.837         32.2787 
         1.4113         261.622         31.9431 
        1.41742         259.718         31.6135 
        1.42355         258.449         31.2879 
         1.4297         256.716          30.966 
        1.43585         255.274         30.6487 
        1.44198         254.299         30.3371 
        1.44809         251.428         30.0304 
        1.45423         250.159         29.7268 
        1.46036         248.896          29.428 
        1.46649         247.577         29.1331 
        1.47263         246.034         28.8421 
        1.47877         244.094         28.5552 
        1.48491         241.833         28.2717 
        1.49104         240.962         27.9927 
        1.49718         239.236         27.7172 
        1.50333         238.349          27.445 
        1.50947         236.736          27.177 
         1.5156         234.738         26.9129 
        1.52172          234.05         26.6524 
        1.52787         231.959         26.3948 
          1.534          231.33         26.1409 
        1.54013          229.01         25.8906 
        1.54627         228.216         25.6432 
        1.55241         226.641         25.3989 
        1.55855         224.271         25.1582 
        1.56467         224.432         24.9212 
         1.5708         222.524         24.6866 
        1.57695         220.925         24.4547 
        1.58308         219.686         24.2263 
        1.58922         217.641         24.0007 
        1.59535         216.643          23.778 
         1.6015         215.224         23.5578 
        1.60764         214.257         23.3405 
        1.61376         213.035         23.1266 
        1.61989         211.691         22.9151 
        1.62604         210.046         22.7059 
        1.63218         209.146         22.4993 
        1.63831         207.598         22.2958 
        1.64444         206.438         22.0948 
        1.65059          205.51         21.8957 
        1.65673         203.908         21.6994 
        1.66285         202.505         21.5059 
        1.66898         201.635         21.3148 
        1.67512         200.469         21.1256 
        1.68127         198.482         20.9386 
         1.6874         197.798         20.7542 
        1.69353         196.511         20.5721 
        1.69967         195.214         20.3918 
        1.70581         194.187         20.2138 
        1.71193         192.707         20.0385 
        1.71806         192.013          19.865 
        1.72421         190.417         19.6931 
        1.73035         189.902         19.5235 
        1.73649          188.61         19.3559 
        1.74262         187.164         19.1904 
        1.74876         185.838         19.0267 
        1.75489         185.186         18.8653 
        1.76101         183.691         18.7058 
        1.76715         182.731         18.5479 
        1.77329         181.644         18.3916 
        1.77943         180.574         18.2371 
        1.78557         179.278         18.0845 
        1.79171         178.633         17.9337 
        1.79785         177.123         17.7846 
        1.80399         176.292         17.6372 
        1.81012         175.202         17.4917 
        1.81625         174.265         17.3478 
        1.82239         173.064         17.2054 
        1.82853         172.235         17.0647 
        1.83466         171.347         16.9256 
        1.84078         170.295         16.7882 
        1.84692         169.148         16.6522 
        1.85306          168.11         16.5175 
         1.8592         167.277         16.3844 
        1.86533         166.487          16.253 
        1.87147         165.392         16.1228 
        1.87761         164.307         15.9939 
        1.88375         163.438         15.8667 
        1.88988         161.722         15.7409 
        1.89601         161.726         15.6165 
        1.90215          160.61         15.4932 
        1.90829         159.322         15.3714 
        1.91442         158.754         15.2509 
        1.92056           157.7         15.1318 
         1.9267         156.466         15.0138 
        1.93284         155.681          14.897 
        1.93897         155.007         14.7816 
        1.94509         154.122         14.6678 
        1.95123         152.993         14.5548 
        1.95737         152.117          14.443 
        1.96349         151.388         14.3326 
        1.96964         150.193          14.223 
        1.97578         149.459         14.1146 
        1.98192          148.47         14.0075 
        1.98805         147.671         13.9014 
        1.99419         146.835         13.7965 
        2.00033         145.998         13.6926 
        2.00647          145.14         13.5898 
         2.0126         144.026         13.4882 
        2.01874          143.82         13.3875 
        2.02488         142.926         13.2878 
        2.03101         141.972         13.1892 
        2.03714         141.142         13.0918 
        2.04328         140.044         12.9952 
        2.04941         139.646         12.8996 
        2.05554         138.344         12.8051 
        2.06167         137.922         12.7114 
        2.06781         136.976         12.6186 
        2.07396         136.357         12.5267 
        2.08009         135.306         12.4357 
        2.08622         134.454         12.3458 
        2.09237         133.824         12.2566 
        2.09851         133.108         12.1683 
        2.10464          132.59          12.081 
        2.11077         131.731         11.9946 
        2.11691          130.93         11.9089 
        2.12305         130.184         11.8241 
        2.12918         129.507         11.7402 
        2.13531         128.789         11.6572 
        2.14145         127.791         11.5748 
         2.1476         126.959          11.493 
        2.15372         126.719         11.4125 
        2.15985         125.775         11.3327 
        2.16599         125.122         11.2534 
        2.17213         124.542         11.1749 
        2.17827         123.612         11.0972 
         2.1844         122.949         11.0203 
        2.19054         122.438         10.9441 
        2.19666         121.596         10.8688 
         2.2028         120.964          10.794 
        2.20893         120.424           10.72 
        2.21508         119.561         10.6465 
        2.22122         118.863         10.5737 
        2.22736         118.169         10.5018 
        2.23349         117.708         10.4305 
        2.23962         117.039         10.3599 
        2.24577         116.299         10.2898 
         2.2519          115.72         10.2205 
        2.25802         114.876         10.1519 
        2.26417         114.478         10.0838 
        2.27031         113.771         10.0162 
        2.27644          113.15         9.94948 
        2.28257         112.522         9.88334 
        2.28872          111.89         9.81768 
        2.29486         111.198         9.75262 
        2.30099         110.607         9.68828 
        2.30712         110.027          9.6245 
        2.31326           109.4         9.56117 
         2.3194         108.685         9.49846 
        2.32553         108.037         9.43641 
        2.33166         107.594         9.37494 
         2.3378         107.195         9.31393 
        2.34394         106.357         9.25344 
        2.35007         105.839         9.19357 
        2.35619         105.201         9.13431 
        2.36233         104.706         9.07543 
        2.36848         104.152         9.01694 
        2.37462         103.651         8.95909 
        2.38075         103.032          8.9018 
        2.38689         102.545         8.84497 
        2.39303         101.764         8.78864 
        2.39916         101.318         8.73285 
        2.40529         101.057         8.67756 
        2.41143          100.37          8.6227 
        2.41757         99.7925         8.56829 
         2.4237          99.222         8.51445 
        2.42983         98.8761         8.46108 
        2.43598         98.1038         8.40802 
        2.44211         97.6776          8.3555 
        2.44823         97.0402         8.30355 
        2.45437         96.7668          8.2519 
        2.46052         96.0003         8.20064 
        2.46665         95.6257         8.14991 
        2.47279         95.1972         8.09962 
        2.47892         94.5683         8.04972 
        2.48507          94.081         8.00019 
         2.4912         93.5579         7.95118 
