# k  (h/Mpc)    Pcb(k)  (Mpc/h)^3    Pcb_linear(k)  (Mpc/h)^3
     0.00783031         647.535         653.759 
       0.013688         805.009         807.158 
       0.019231         810.329         810.645 
      0.0249154         735.134         738.519 
      0.0312784         624.939         625.082 
      0.0375637          520.32         518.832 
      0.0433917         442.173         442.069 
      0.0492413          389.45         388.579 
      0.0555754         351.096         351.887 
      0.0619321         329.398         328.048 
       0.067871         308.513         309.257 
      0.0738098         287.383         288.248 
      0.0800417         260.285         261.577 
      0.0862327         231.419         231.755 
      0.0921407         203.606         203.437 
      0.0982031         177.759         177.862 
       0.104506         158.252         157.234 
       0.110769          144.03          143.17 
       0.116806          134.77         134.633 
       0.122832         129.675         129.178 
       0.129052          124.45         124.604 
       0.135211         119.078         119.328 
       0.141259         112.675         112.502 
       0.147318         104.633          104.09 
       0.153489         95.0948         94.7396 
       0.159709          86.203         85.6753 
       0.165845         79.1249         78.0428 
       0.171974         72.7837         72.2034 
       0.178125         68.8327         68.1135 
       0.184229         66.1918         65.4027 
        0.19034         63.6618         63.4189 
       0.196428          62.072         61.5408 
       0.202534         60.1528         59.2826 
       0.208729         57.0145         56.4025 
       0.214876         53.4871         53.0468 
       0.220989         50.3589         49.5098 
       0.227147         46.6576         46.1036 
        0.23329         43.7592          43.149 
       0.239377         41.5468         40.7989 
       0.245482         39.5209          39.008 
       0.251667         38.4371          37.638 
       0.257832         37.2063         36.5124 
       0.263955         36.1316         35.4306 
       0.270079         34.9209         34.2383 
        0.27624         33.7472         32.8648 
       0.282372         32.2487         31.3559 
        0.28843         30.5824         29.8115 
       0.294538         29.1051           28.31 
       0.300721         27.9249         26.9393 
        0.30691         26.5856         25.7679 
       0.313033         25.6489         24.8078 
       0.319153         24.6002         24.0045 
       0.325316           24.19         23.2916 
        0.33145         23.4282         22.6121 
       0.337538         22.7364         21.9187 
       0.343633         21.9236         21.1843 
       0.349808         21.2209         20.4031 
       0.355968         20.4472         19.6131 
       0.362074         19.6604         18.8511 
       0.368217         18.9753          18.138 
       0.374374         18.2609         17.4926 
       0.380519         17.7609         16.9218 
       0.386598         17.2817         16.4188 
       0.392688         16.8649         15.9563 
        0.39888         16.3686         15.5093 
       0.405048         15.9493          15.069 
       0.411186         15.5178         14.6261 
       0.417313         15.0018         14.1804 
       0.423458         14.5873         13.7338 
       0.429607         14.1177          13.298 
       0.435692         13.6922         12.8877 
       0.441815         13.3306         12.5012 
       0.447964         13.0442         12.1413 
       0.454126          12.604          11.808 
       0.460267         12.3191         11.4965 
       0.466387         11.9579         11.1996 
        0.47254         11.7179         10.9097 
       0.478662          11.465         10.6262 
       0.484765         11.1251         10.3463 
       0.490885          10.849         10.0697 
       0.497035         10.6711         9.79892 
       0.503198         10.3641         9.53753 
       0.509342         10.1103         9.28822 
       0.515458         9.85464         9.05236 
       0.521598         9.64385         8.82818 
       0.527764         9.39809         8.61399 
       0.533884         9.23611         8.40966 
           0.54         9.01729         8.21176 
       0.546137          8.8348         8.01831 
       0.552299         8.65196         7.82881 
       0.558452         8.40431         7.64388 
       0.564573          8.2642         7.46431 
       0.570708         8.08685         7.28951 
       0.576825         7.88097         7.12127 
       0.582926          7.7407         6.96008 
       0.589034         7.52333         6.80496 
       0.595184         7.39604         6.65445 
       0.601379         7.23409         6.50795 
       0.607522          7.1246         6.36714 
       0.613639         7.01549         6.23098 
       0.619772         6.82363         6.09824 
       0.625918         6.73425         5.96872 
       0.632068         6.62373          5.8424 
       0.638161         6.46258         5.72053 
         0.6443         6.33052         5.60115 
       0.650464         6.19332         5.48488 
       0.656582         6.12138         5.37314 
       0.662703         6.00423         5.26491 
       0.668861          5.9034          5.1594 
       0.675024         5.77749         5.05687 
       0.681124         5.66714         4.95817 
       0.687237         5.58454         4.86178 
       0.693381         5.49182         4.76732 
       0.699536         5.34662         4.67508 
       0.705665         5.27281         4.58562 
       0.711789         5.18797          4.4986 
       0.717957          5.0913         4.41331 
        0.72409         5.00444         4.33083 
       0.730186          4.9241         4.25106 
       0.736317         4.87299         4.17294 
       0.742472         4.79022         4.09655 
       0.748622         4.69799         4.02217 
        0.75476         4.60315         3.94979 
       0.760888         4.53655         3.87929 
       0.767043         4.48349         3.81022 
       0.773185         4.38931         3.74297 
       0.779291         4.33963         3.67773 
       0.785407          4.2658         3.61397 
       0.791564         4.20335         3.55134 
       0.797719         4.13926         3.49026 
       0.803834         4.09031         3.43104 
       0.809972         4.03157         3.37302 
       0.816124         3.95367         3.31623 
       0.822261         3.88347         3.26093 
       0.828378         3.83643         3.20707 
       0.834502         3.79883         3.15439 
       0.840667         3.71735         3.10257 
       0.846816          3.6607         3.05206 
       0.852925         3.62904         3.00299 
       0.859047         3.57586         2.95491 
       0.865192         3.52803         2.90773 
       0.871341         3.48409         2.86156 
       0.877463         3.43681         2.81661 
       0.883569         3.37496         2.77274 
       0.889708         3.32494          2.7296 
       0.895864         3.28439         2.68727 
       0.902008         3.23465         2.64594 
       0.908149          3.1997         2.60552 
       0.914301         3.13995         2.56588 
       0.920448         3.10211         2.52711 
       0.926574         3.05807         2.48929 
       0.932687         3.02271         2.45233 
       0.938823         2.99068           2.416 
       0.944975          2.9493         2.38033 
       0.951105         2.91539         2.34551 
       0.957225         2.89375         2.31146 
       0.963368         2.85045         2.27797 
       0.969511         2.80803         2.24515 
       0.975621         2.76604         2.21317 
       0.981748         2.74164         2.18173 
       0.987916          2.7048          2.1507 
        0.99406          2.6611         2.12041 
        1.00019         2.63633         2.09076 
        1.00632         2.60344         2.06171 
        1.01246          2.5738         2.03318 
        1.01859           2.544         2.00524 
        1.02471         2.51066         1.97786 
        1.03085         2.48394          1.9509 
        1.03698         2.44969         1.92451 
        1.04314         2.42689          1.8985 
        1.04929         2.39482         1.87304 
        1.05541         2.36921         1.84814 
        1.06154          2.3417         1.82365 
        1.06769         2.31962         1.79956 
        1.07382         2.28823           1.776 
        1.07993         2.25567         1.75291 
        1.08607         2.24424         1.73014 
        1.09222         2.21281         1.70775 
        1.09836         2.19592         1.68579 
        1.10449          2.1703         1.66424 
        1.11063         2.13987         1.64305 
        1.11677         2.11713         1.62224 
         1.1229         2.09518         1.60183 
        1.12903         2.06987         1.58176 
        1.13518         2.05338         1.56201 
        1.14131         2.02424         1.54262 
        1.14745         1.99224         1.52356 
        1.15359          1.9829         1.50483 
        1.15973         1.95295         1.48641 
        1.16584         1.94492         1.46838 
        1.17197         1.92146         1.45063 
        1.17811         1.90377         1.43312 
        1.18424         1.88809         1.41595 
        1.19038         1.86451         1.39902 
        1.19652         1.84424         1.38237 
        1.20267          1.8305         1.36599 
        1.20881         1.80572         1.34989 
        1.21495         1.79258         1.33407 
        1.22108         1.77504         1.31851 
         1.2272         1.76238         1.30324 
        1.23334          1.7392         1.28817 
        1.23949         1.72023         1.27331 
        1.24562         1.70847         1.25873 
        1.25174         1.68909          1.2444 
        1.25789         1.67437         1.23025 
        1.26402         1.65288         1.21635 
        1.27014         1.63813          1.2027 
        1.27628         1.63094         1.18922 
        1.28244         1.60698         1.17592 
        1.28858         1.59482         1.16284 
        1.29471         1.57917         1.14999 
        1.30084         1.56252         1.13735 
        1.30697         1.55178         1.12489 
        1.31312         1.52856         1.11259 
        1.31925         1.52151         1.10051 
        1.32537         1.50753         1.08863 
        1.33151         1.49588         1.07689 
        1.33765         1.47853         1.06532 
        1.34378         1.46321         1.05395 
        1.34992         1.45668         1.04273 
        1.35606         1.43682         1.03166 
         1.3622         1.42877         1.02077 
        1.36833         1.41475         1.01006 
        1.37445         1.39904        0.999513 
        1.38059         1.38923        0.989085 
        1.38675         1.38457        0.978781 
        1.39288         1.36583        0.968666 
        1.39901         1.35327        0.958699 
        1.40515         1.34323        0.948851 
         1.4113         1.33126        0.939147 
        1.41742         1.31978        0.929616 
        1.42355         1.31484          0.9202 
         1.4297         1.29677        0.910887 
        1.43585         1.28808        0.901708 
        1.44198         1.28197        0.892691 
        1.44809         1.26464        0.883815 
        1.45423         1.25553        0.875028 
        1.46036          1.2453        0.866377 
        1.46649         1.23488         0.85784 
        1.47263          1.2241        0.849413 
        1.47877         1.21236        0.841103 
        1.48491         1.20312        0.832893 
        1.49104         1.19408         0.82481 
        1.49718         1.18727        0.816828 
        1.50333         1.17468        0.808941 
        1.50947         1.16812        0.801174 
         1.5156         1.15707        0.793522 
        1.52172         1.14764         0.78597 
        1.52787         1.13737        0.778502 
          1.534          1.1311         0.77114 
        1.54013         1.11893        0.763882 
        1.54627         1.10991        0.756704 
        1.55241         1.10096        0.749618 
        1.55855         1.09362        0.742633 
        1.56467         1.08728        0.735757 
         1.5708         1.07467        0.728949 
        1.57695         1.07042        0.722217 
        1.58308         1.06198        0.715586 
        1.58922         1.05311        0.709034 
        1.59535         1.04541        0.702567 
         1.6015         1.03754        0.696172 
        1.60764         1.03108        0.689861 
        1.61376         1.02174        0.683645 
        1.61989         1.01492        0.677501 
        1.62604         1.00611         0.67142 
        1.63218         1.00215        0.665417 
        1.63831         0.99159        0.659502 
        1.64444        0.984164        0.653658 
        1.65059        0.978863         0.64787 
        1.65673        0.969761        0.642159 
        1.66285        0.962882        0.636534 
        1.66898         0.95911        0.630974 
        1.67512        0.948302         0.62547 
        1.68127        0.941782        0.620028 
         1.6874        0.938175        0.614662 
        1.69353        0.928439        0.609364 
        1.69967        0.921739        0.604116 
        1.70581        0.917818        0.598932 
        1.71193        0.909811        0.593829 
        1.71806        0.905188        0.588775 
        1.72421        0.897811         0.58377 
        1.73035        0.890331        0.578829 
        1.73649        0.886282        0.573947 
        1.74262        0.879811        0.569125 
        1.74876        0.872948        0.564356 
        1.75489        0.865391        0.559652 
        1.76101          0.8603        0.555003 
        1.76715        0.855063          0.5504 
        1.77329        0.849774        0.545845 
        1.77943        0.842403        0.541339 
        1.78557        0.836605        0.536891 
        1.79171        0.833206        0.532492 
        1.79785        0.826512        0.528142 
        1.80399        0.821127        0.523842 
        1.81012        0.816959        0.519595 
        1.81625        0.810003        0.515398 
        1.82239        0.805629        0.511241 
        1.82853        0.796967        0.507132 
        1.83466        0.793826        0.503072 
        1.84078        0.787587        0.499062 
        1.84692        0.784799        0.495088 
        1.85306        0.779087        0.491154 
         1.8592        0.774889        0.487268 
        1.86533        0.768945        0.483427 
        1.87147        0.764268        0.479623 
        1.87761        0.759383        0.475859 
        1.88375        0.752385         0.47214 
        1.88988        0.750134        0.468464 
        1.89601        0.743911        0.464826 
        1.90215        0.739747        0.461224 
        1.90829        0.734216        0.457662 
        1.91442        0.729745        0.454137 
        1.92056        0.726191        0.450653 
         1.9267        0.720609        0.447202 
        1.93284        0.718006        0.443786 
        1.93897        0.712545        0.440411 
        1.94509        0.708197        0.437079 
        1.95123        0.703071        0.433774 
        1.95737        0.699461          0.4305 
        1.96349        0.693942        0.427268 
        1.96964        0.690881        0.424061 
        1.97578        0.686106        0.420885 
        1.98192        0.683615        0.417749 
        1.98805        0.677656        0.414644 
        1.99419        0.674748        0.411571 
        2.00033          0.6721        0.408527 
        2.00647        0.666121        0.405515 
         2.0126        0.662648        0.402539 
        2.01874        0.658942        0.399589 
        2.02488        0.655768        0.396665 
        2.03101        0.649773        0.393776 
        2.03714        0.645474        0.390919 
        2.04328         0.64407        0.388087 
        2.04941        0.639497        0.385286 
        2.05554        0.635352        0.382514 
        2.06167        0.631645        0.379766 
        2.06781        0.627256        0.377045 
        2.07396        0.623144        0.374346 
        2.08009        0.620449        0.371679 
        2.08622         0.61641         0.36904 
        2.09237        0.614942        0.366423 
        2.09851        0.611195         0.36383 
        2.10464        0.607849        0.361267 
        2.11077        0.603703        0.358732 
        2.11691        0.599748        0.356215 
        2.12305        0.596736        0.353723 
        2.12918        0.593528         0.35126 
        2.13531        0.589856        0.348821 
        2.14145         0.58692          0.3464 
         2.1476        0.582918        0.343999 
        2.15372        0.581243        0.341633 
        2.15985        0.576436        0.339286 
        2.16599        0.572921        0.336955 
        2.17213        0.570383        0.334649 
        2.17827        0.568599        0.332365 
         2.1844        0.565538        0.330104 
        2.19054        0.562524        0.327864 
        2.19666        0.558316        0.325648 
         2.2028         0.55547         0.32345 
        2.20893        0.552728        0.321272 
        2.21508        0.550414        0.319111 
        2.22122        0.545226        0.316969 
        2.22736        0.543016        0.314852 
        2.23349        0.542097        0.312755 
        2.23962        0.538357        0.310675 
        2.24577        0.534123        0.308613 
         2.2519        0.532076        0.306573 
        2.25802        0.529217        0.304554 
        2.26417        0.525829        0.302548 
        2.27031        0.523262        0.300558 
        2.27644        0.521143        0.298592 
        2.28257        0.518594        0.296644 
        2.28872        0.515444         0.29471 
        2.29486        0.512665        0.292793 
        2.30099        0.509854        0.290897 
        2.30712        0.507716        0.289017 
        2.31326        0.505015        0.287151 
         2.3194        0.503855        0.285303 
        2.32553        0.500876        0.283474 
        2.33166        0.498109        0.281661 
         2.3378        0.495368        0.279863 
        2.34394        0.491445        0.278079 
        2.35007        0.489812        0.276313 
        2.35619        0.487685        0.274566 
        2.36233        0.484024        0.272829 
        2.36848        0.482678        0.271103 
        2.37462        0.479478        0.269397 
        2.38075        0.478643        0.267706 
        2.38689        0.475407        0.266029 
        2.39303        0.473869        0.264366 
        2.39916        0.469872         0.26272 
        2.40529        0.468604        0.261087 
        2.41143        0.466649        0.259468 
        2.41757        0.464048        0.257861 
         2.4237        0.461878        0.256271 
        2.42983        0.459897        0.254695 
        2.43598         0.45757        0.253128 
        2.44211        0.455763        0.251576 
        2.44823        0.453489        0.250041 
        2.45437        0.450701        0.248515 
        2.46052        0.449858           0.247 
        2.46665        0.446701        0.245501 
        2.47279        0.444396        0.244015 
        2.47892         0.44182         0.24254 
        2.48507        0.440318        0.241075 
         2.4912        0.438434        0.239626 
