# k  (h/Mpc)    P(k)  (Mpc/h)^3    P_linear(k)  (Mpc/h)^3
     0.00783031         16301.4         16605.5 
       0.013688         21090.8         20939.9 
       0.019231         21595.3         21619.7 
      0.0249154           19906         20427.2 
      0.0312784         17847.5         18147.6 
      0.0375637         15732.7         15830.1 
      0.0433917         13661.2         14033.4 
      0.0492413         12469.7         12667.5 
      0.0555754         11107.9         11596.9 
      0.0619321         10671.8         10769.7 
       0.067871         9647.84         10059.7 
      0.0738098         8930.92         9312.31 
      0.0800417         8008.56         8463.28 
      0.0862327         7302.02         7597.72 
      0.0921407         6697.12         6820.53 
      0.0982031         6008.21         6134.09 
       0.104506         5651.53         5572.21 
       0.110769         5231.51         5160.64 
       0.116806         4924.82          4867.8 
       0.122832         4688.52         4630.83 
       0.129052         4351.91         4398.54 
       0.135211         4128.08         4150.33 
       0.141259         3955.89         3880.87 
       0.147318         3732.77         3596.21 
       0.153489         3425.59         3312.72 
       0.159709         3246.99         3055.79 
       0.165845         3138.29         2844.28 
       0.171974         2966.04         2677.07 
       0.178125          2824.9         2546.11 
       0.184229         2702.16         2439.48 
        0.19034         2569.22         2341.81 
       0.196428         2517.56         2242.49 
       0.202534         2418.58          2135.5 
       0.208729         2317.22         2020.18 
       0.214876         2231.01         1904.28 
       0.220989         2157.04          1794.4 
       0.227147         2071.04         1694.83 
        0.23329         1993.56         1609.48 
       0.239377         1968.82         1538.37 
       0.245482         1852.28         1477.62 
       0.251667         1844.05         1422.66 
       0.257832         1772.68         1370.41 
       0.263955          1715.2         1318.19 
       0.270079         1660.64         1264.55 
        0.27624         1641.39         1209.84 
       0.282372         1574.75         1156.24 
        0.28843         1573.87            1106 
       0.294538         1499.87         1059.46 
       0.300721         1490.18         1017.19 
        0.30691         1436.95         979.455 
       0.313033          1408.2         945.666 
       0.319153         1392.21         914.207 
       0.325316         1345.39         883.729 
        0.33145         1318.22         853.853 
       0.337538         1294.63         824.415 
       0.343633         1270.47         795.336 
       0.349808         1231.08         766.746 
       0.355968         1221.71         739.552 
       0.362074         1212.35         714.301 
       0.368217         1173.82         690.684 
       0.374374          1134.5          668.72 
       0.380519         1138.11         648.197 
       0.386598         1106.32         628.908 
       0.392688         1101.17         610.313 
        0.39888         1071.75         591.909 
       0.405048         1061.42         574.017 
       0.411186         1046.35         556.695 
       0.417313         1024.66         539.965 
       0.423458         1007.96         523.878 
       0.429607         996.271         508.561 
       0.435692         977.948         494.168 
       0.441815         970.533         480.418 
       0.447964         950.443         467.268 
       0.454126         944.895         454.632 
       0.460267         922.073         442.483 
       0.466387         909.581         430.766 
        0.47254         908.111         419.335 
       0.478662         896.562         408.303 
       0.484765         874.078         397.669 
       0.490885         869.261         387.395 
       0.497035         850.431         377.465 
       0.503198         846.592         367.908 
       0.509342         836.409         358.761 
       0.515458         833.264         350.004 
       0.521598         814.063         341.524 
       0.527764         798.984         333.286 
       0.533884         797.823         325.366 
           0.54         791.362         317.698 
       0.546137         781.985         310.237 
       0.552299         773.803         302.978 
       0.558452         767.051         295.963 
       0.564573         757.503         289.213 
       0.570708          750.13         282.676 
       0.576825         730.642         276.375 
       0.582926         734.947         270.292 
       0.589034         727.129         264.391 
       0.595184         720.362         258.628 
       0.601379         711.144         252.998 
       0.607522         701.108         247.581 
       0.613639         701.952         242.342 
       0.619772         687.784         237.242 
       0.625918         682.546         232.278 
       0.632068         674.953         227.456 
       0.638161         672.359         222.817 
         0.6443         660.879          218.28 
       0.650464          659.75         213.858 
       0.656582         654.212         209.592 
       0.662703         651.403         205.444 
       0.668861         640.568         201.386 
       0.675024         635.058         197.433 
       0.681124         631.762         193.627 
       0.687237         626.907         189.914 
       0.693381         619.446         186.282 
       0.699536         608.447         182.741 
       0.705665          609.18         179.309 
       0.711789         605.112          175.97 
       0.717957         599.693         172.695 
        0.72409         596.787         169.523 
       0.730186         587.859          166.45 
       0.736317         585.158         163.438 
       0.742472         581.667         160.491 
       0.748622         575.557         157.619 
        0.75476         566.746         154.825 
       0.760888         562.953         152.104 
       0.767043         561.567         149.438 
       0.773185          556.73         146.843 
       0.779291         551.838         144.324 
       0.785407         546.526         141.863 
       0.791564         541.422         139.444 
       0.797719         539.501         137.083 
       0.803834         533.769         134.793 
       0.809972         531.398         132.547 
       0.816124         530.102         130.349 
       0.822261         522.185         128.207 
       0.828378         519.451         126.119 
       0.834502          514.22         124.078 
       0.840667         510.342         122.068 
       0.846816         507.612          120.11 
       0.852925         503.806         118.207 
       0.859047         502.876         116.342 
       0.865192         496.074         114.511 
       0.871341         491.977         112.719 
       0.877463          491.85         110.974 
       0.883569         486.266         109.271 
       0.889708         484.078         107.595 
       0.895864         482.264         105.951 
       0.902008         478.178         104.344 
       0.908149         471.617         102.772 
       0.914301         470.047         101.231 
       0.920448         467.833         99.7227 
       0.926574         459.966         98.2509 
       0.932687         459.373         96.8122 
       0.938823         455.107         95.3975 
       0.944975         455.261         94.0081 
       0.951105         449.806         92.6517 
       0.957225         446.671         91.3247 
       0.963368         442.347         90.0195 
       0.969511         441.131         88.7401 
       0.975621         438.478         87.4926 
       0.981748         435.185         86.2663 
       0.987916         432.755          85.056 
        0.99406         426.051         83.8737 
        1.00019           424.6         82.7165 
        1.00632         422.734         81.5824 
        1.01246         419.492         80.4682 
        1.01859         418.905         79.3767 
        1.02471         413.568         78.3072 
        1.03085         411.934         77.2538 
        1.03698         410.007         76.2222 
        1.04314         406.396         75.2053 
        1.04929         401.831         74.2095 
        1.05541         403.049         73.2359 
        1.06154         396.864         72.2776 
        1.06769         394.731         71.3351 
        1.07382         392.079         70.4127 
        1.07993         390.034         69.5088 
        1.08607         388.923         68.6173 
        1.09222         384.599         67.7406 
        1.09836         382.279         66.8804 
        1.10449         379.474         66.0363 
        1.11063         374.641         65.2059 
        1.11677         376.042         64.3903 
         1.1229         373.159         63.5901 
        1.12903         370.379         62.8029 
        1.13518         366.254         62.0285 
        1.14131         365.131         61.2678 
        1.14745         362.215         60.5203 
        1.15359         360.512         59.7852 
        1.15973         358.207         59.0622 
        1.16584         355.526         58.3544 
        1.17197         354.471         57.6574 
        1.17811         350.978         56.9697 
        1.18424         347.887         56.2954 
        1.19038         346.436         55.6301 
        1.19652         344.648         54.9759 
        1.20267         342.745         54.3323 
        1.20881         340.764         53.6993 
        1.21495         337.975         53.0774 
        1.22108         336.136         52.4656 
         1.2272         333.732          51.865 
        1.23334         331.843         51.2725 
        1.23949         329.136         50.6879 
        1.24562         327.906         50.1141 
        1.25174          325.71         49.5502 
        1.25789         322.231         48.9933 
        1.26402         320.467          48.446 
        1.27014         318.588         47.9085 
        1.27628         316.364         47.3777 
        1.28244         316.593         46.8539 
        1.28858         313.008         46.3388 
        1.29471         311.611         45.8326 
        1.30084         309.253         45.3345 
        1.30697         307.836         44.8432 
        1.31312         304.437         44.3584 
        1.31925         303.368         43.8824 
        1.32537         302.385          43.414 
        1.33151           299.2         42.9507 
        1.33765         297.091         42.4945 
        1.34378         296.247         42.0459 
        1.34992         294.305         41.6035 
        1.35606         292.632         41.1666 
         1.3622         290.485         40.7368 
        1.36833         288.885         40.3142 
        1.37445         286.912         39.8978 
        1.38059         284.565         39.4861 
        1.38675         283.086         39.0792 
        1.39288         281.633         38.6798 
        1.39901         280.289         38.2861 
        1.40515         278.516         37.8971 
         1.4113         276.832         37.5137 
        1.41742         274.556          37.137 
        1.42355         273.169         36.7649 
         1.4297         271.314         36.3968 
        1.43585         270.006         36.0339 
        1.44198         268.573         35.6774 
        1.44809         265.927         35.3265 
        1.45423          264.52         34.9789 
        1.46036         263.358         34.6368 
        1.46649          261.47         34.2991 
        1.47263         260.137         33.9657 
        1.47877         258.077         33.6369 
        1.48491         255.889         33.3119 
        1.49104         255.175          32.992 
        1.49718         253.328         32.6761 
        1.50333         252.157         32.3638 
        1.50947         250.606         32.0563 
         1.5156          248.42         31.7533 
        1.52172         247.654         31.4542 
        1.52787         245.694         31.1584 
          1.534         244.841         30.8668 
        1.54013         242.382         30.5792 
        1.54627         241.477         30.2948 
        1.55241         240.159          30.014 
        1.55855         238.037         29.7372 
        1.56467         237.295         29.4647 
         1.5708         236.141         29.1949 
        1.57695          234.17          28.928 
        1.58308         233.003         28.6651 
        1.58922         230.308         28.4053 
        1.59535         229.495         28.1489 
         1.6015         228.544         27.8952 
        1.60764         227.016         27.6449 
        1.61376         225.969         27.3983 
        1.61989         224.464         27.1545 
        1.62604         222.773         26.9132 
        1.63218         221.849          26.675 
        1.63831         220.237         26.4402 
        1.64444         219.177         26.2082 
        1.65059         218.157         25.9784 
        1.65673         216.519         25.7517 
        1.66285         214.876         25.5283 
        1.66898         213.847         25.3075 
        1.67512          212.94         25.0889 
        1.68127         210.696         24.8727 
         1.6874         209.705         24.6596 
        1.69353         208.737         24.4491 
        1.69967         207.219         24.2405 
        1.70581         206.337         24.0345 
        1.71193         204.655         23.8317 
        1.71806         203.951         23.6308 
        1.72421         202.375         23.4319 
        1.73035         201.713         23.2355 
        1.73649          200.41         23.0414 
        1.74262         198.947         22.8496 
        1.74876         197.558           22.66 
        1.75489         196.745         22.4729 
        1.76101         195.216          22.288 
        1.76715         194.384         22.1049 
        1.77329          193.28         21.9237 
        1.77943         192.301         21.7444 
        1.78557         190.684         21.5675 
        1.79171         190.099         21.3924 
        1.79785          188.44         21.2193 
        1.80399         187.578         21.0482 
        1.81012         186.513         20.8792 
        1.81625         185.473         20.7121 
        1.82239         184.173         20.5466 
        1.82853         183.621          20.383 
        1.83466         182.315         20.2214 
        1.84078          181.33         20.0617 
        1.84692         179.971         19.9035 
        1.85306         179.165         19.7468 
         1.8592         178.062          19.592 
        1.86533           177.4          19.439 
        1.87147         176.097         19.2874 
        1.87761          175.04         19.1375 
        1.88375         173.844         18.9892 
        1.88988          172.26         18.8428 
        1.89601         172.205         18.6978 
        1.90215         171.047         18.5542 
        1.90829         169.726         18.4122 
        1.91442         168.998         18.2717 
        1.92056         168.051         18.1328 
         1.9267         166.591         17.9952 
        1.93284         165.845         17.8589 
        1.93897         165.247         17.7244 
        1.94509         164.175         17.5915 
        1.95123         163.229         17.4596 
        1.95737         162.146          17.329 
        1.96349         161.284         17.2001 
        1.96964         160.237         17.0722 
        1.97578         159.421         16.9454 
        1.98192         158.415         16.8203 
        1.98805         157.427         16.6964 
        1.99419         156.664         16.5737 
        2.00033         155.766         16.4522 
        2.00647         154.933          16.332 
         2.0126         153.794         16.2132 
        2.01874         153.384         16.0954 
        2.02488         152.566         15.9787 
        2.03101         151.215         15.8633 
        2.03714         150.582         15.7492 
        2.04328         149.497         15.6362 
        2.04941         149.116         15.5243 
        2.05554         147.633         15.4136 
        2.06167         147.159         15.3038 
        2.06781         146.179         15.1951 
        2.07396         145.403         15.0873 
        2.08009          144.67         14.9807 
        2.08622          143.56         14.8753 
        2.09237         142.877         14.7707 
        2.09851          142.11         14.6671 
        2.10464         141.636         14.5647 
        2.11077         140.709         14.4634 
        2.11691         139.867         14.3628 
        2.12305         139.109         14.2632 
        2.12918         138.204         14.1647 
        2.13531         137.702         14.0672 
        2.14145           136.5         13.9704 
         2.1476         135.644         13.8744 
        2.15372         135.463         13.7798 
        2.15985         134.757          13.686 
        2.16599         133.673         13.5927 
        2.17213         133.001         13.5005 
        2.17827           132.2         13.4091 
         2.1844         131.383         13.3187 
        2.19054         130.778         13.2291 
        2.19666         129.882         13.1404 
         2.2028         129.354         13.0525 
        2.20893         128.804         12.9653 
        2.21508         127.963         12.8788 
        2.22122         127.089         12.7931 
        2.22736         126.436         12.7084 
        2.23349         125.773         12.6245 
        2.23962         125.042         12.5412 
        2.24577         124.363         12.4587 
         2.2519         123.879          12.377 
        2.25802         122.995         12.2962 
        2.26417         122.575         12.2159 
        2.27031         121.685         12.1362 
        2.27644         121.024         12.0575 
        2.28257         120.288         11.9795 
        2.28872         119.832          11.902 
        2.29486         118.869         11.8252 
        2.30099         118.324         11.7493 
        2.30712         117.779          11.674 
        2.31326         117.109         11.5992 
         2.3194         116.411         11.5252 
        2.32553         115.763         11.4519 
        2.33166         115.251         11.3793 
         2.3378         114.829         11.3072 
        2.34394          114.07         11.2357 
        2.35007         113.344         11.1649 
        2.35619         112.773         11.0949 
        2.36233         112.183         11.0253 
        2.36848         111.604         10.9561 
        2.37462         111.059         10.8877 
        2.38075         110.284         10.8199 
        2.38689         109.872         10.7527 
        2.39303         109.295          10.686 
        2.39916         108.812           10.62 
        2.40529         108.352         10.5545 
        2.41143         107.701         10.4896 
        2.41757         106.895         10.4252 
         2.4237         106.292         10.3614 
        2.42983         105.756         10.2982 
        2.43598         105.282         10.2353 
        2.44211         104.791         10.1731 
        2.44823         104.127         10.1115 
        2.45437         103.746         10.0503 
        2.46052         102.879         9.98953 
        2.46665         102.536         9.92938 
        2.47279           102.2         9.86974 
        2.47892          101.44         9.81055 
        2.48507         100.917          9.7518 
         2.4912         100.414         9.69364 
