# k  (h/Mpc)    Pcb(k)  (Mpc/h)^3    Pcb_linear(k)  (Mpc/h)^3
     0.00783031         10786.3         10928.5 
       0.013688         13437.9         13349.2 
       0.019231         13283.6         13255.2 
      0.0249154         11716.7         11909.9 
      0.0312784         9863.01         9928.58 
      0.0375637         8185.77         8157.14 
      0.0433917          6865.6          6933.9 
      0.0492413         6112.13         6119.14 
      0.0555754         5464.18         5578.92 
      0.0619321         5247.74         5216.34 
       0.067871          4805.1         4895.79 
      0.0738098         4427.66         4510.76 
      0.0800417         3922.61         4025.05 
      0.0862327         3467.85         3508.26 
      0.0921407         3071.15          3049.3 
      0.0982031         2678.91         2665.46 
       0.104506         2466.84         2382.42 
       0.110769         2281.12         2207.57 
       0.116806         2159.82         2107.91 
       0.122832         2085.97         2036.78 
       0.129052         1960.19         1955.95 
       0.135211         1855.75         1845.71 
       0.141259         1751.14         1705.77 
       0.147318         1617.44          1548.2 
       0.153489          1457.2         1391.62 
       0.159709         1351.46         1257.38 
       0.165845         1279.47         1158.19 
       0.171974         1204.49         1091.83 
       0.178125         1154.21         1049.85 
       0.184229         1115.26         1020.28 
        0.19034         1053.11         990.389 
       0.196428         1033.17         951.646 
       0.202534         994.127         900.993 
       0.208729         935.987         840.642 
       0.214876         880.094         778.604 
       0.220989         841.731         721.888 
       0.227147         796.582         674.786 
        0.23329         762.186         639.495 
       0.239377         745.889          614.57 
       0.245482         698.492         596.027 
       0.251667         694.333         579.451 
       0.257832         669.834         561.301 
       0.263955         646.916         539.592 
       0.270079         620.961         514.245 
        0.27624         610.829         486.709 
       0.282372         584.363         459.745 
        0.28843         568.129          435.68 
       0.294538         539.349         415.305 
       0.300721         535.415         398.859 
        0.30691         511.426         385.738 
       0.313033         501.437         374.688 
       0.319153         485.809         364.052 
       0.325316         472.198         352.669 
        0.33145         457.843         340.154 
       0.337538         450.896         326.786 
       0.343633          436.01         313.089 
       0.349808         420.796         299.718 
       0.355968           416.1         287.597 
       0.362074         407.898         277.089 
       0.368217         396.576         268.055 
       0.374374         380.407         260.143 
       0.380519         377.413         252.915 
       0.386598         367.711          245.94 
       0.392688         364.648         238.763 
        0.39888         354.367         231.202 
       0.405048         346.404         223.472 
       0.411186         339.823          215.82 
       0.417313         333.217         208.518 
       0.423458          326.58         201.721 
       0.429607         320.239         195.527 
       0.435692         311.845         190.001 
       0.441815         309.259         184.887 
       0.447964         302.901         180.019 
       0.454126         293.376         175.271 
       0.460267         289.102         170.562 
       0.466387         285.619         165.834 
        0.47254         279.514         161.096 
       0.478662         278.599         156.492 
       0.484765         269.201          152.08 
       0.490885         266.066         147.885 
       0.497035         261.714         143.936 
       0.503198         256.534         140.249 
       0.509342         254.207         136.777 
       0.515458         250.797         133.452 
       0.521598         245.644         130.202 
       0.527764         242.069         127.003 
       0.533884         239.413         123.881 
           0.54         235.788         120.809 
       0.546137          234.54         117.796 
       0.552299         229.639         114.874 
       0.558452         227.612         112.089 
       0.564573         224.074         109.451 
       0.570708         219.601         106.924 
       0.576825         216.606           104.5 
       0.582926         213.827         102.162 
       0.589034         211.656         99.8896 
       0.595184         209.354         97.6628 
       0.601379         206.813         95.4756 
       0.607522         203.092         93.3559 
       0.613639         201.919         91.2968 
       0.619772         197.535         89.2901 
       0.625918         196.156         87.3442 
       0.632068         193.439          85.468 
       0.638161         192.335          83.678 
         0.6443         189.345         81.9375 
       0.650464          187.42         80.2445 
       0.656582         185.506           78.61 
       0.662703         184.106         77.0144 
       0.668861         180.873         75.4462 
       0.675024         178.693         73.9153 
       0.681124         177.898         72.4402 
       0.687237         175.208         71.0029 
       0.693381         172.567         69.6012 
       0.699536         171.413          68.239 
       0.705665         170.518         66.9227 
       0.711789         167.774         65.6445 
       0.717957          167.32         64.3919 
        0.72409         165.019         63.1788 
       0.730186         162.796         62.0031 
       0.736317         161.275         60.8493 
       0.742472         160.386         59.7194 
       0.748622         158.906         58.6186 
        0.75476         157.585         57.5478 
       0.760888         155.464         56.5055 
       0.767043         155.007         55.4857 
       0.773185         153.336         54.4942 
       0.779291          150.62         53.5335 
       0.785407          150.15         52.5954 
       0.791564         148.888         51.6744 
       0.797719         146.517         50.7763 
       0.803834         145.861         49.9056 
       0.809972         144.653         49.0521 
       0.816124         144.225         48.2167 
       0.822261         142.558         47.4028 
       0.828378         141.226         46.6101 
       0.834502         140.909         45.8348 
       0.840667         138.749         45.0721 
       0.846816         137.427          44.329 
       0.852925         136.849         43.6074 
       0.859047         135.245         42.9005 
       0.865192          134.23         42.2071 
       0.871341         133.063         41.5287 
       0.877463         131.905         40.8686 
       0.883569         131.364         40.2246 
       0.889708         130.173         39.5913 
       0.895864         128.759         38.9702 
       0.902008         128.008         38.3638 
       0.908149         127.465         37.7708 
       0.914301         126.076         37.1895 
       0.920448         125.103          36.621 
       0.926574         124.363         36.0665 
       0.932687          124.16         35.5247 
       0.938823         122.314         34.9921 
       0.944975          121.09         34.4693 
       0.951105          120.66         33.9592 
       0.957225         119.394         33.4603 
       0.963368         118.221         32.9697 
       0.969511         118.066         32.4891 
       0.975621         117.401         32.0207 
       0.981748         116.695         31.5603 
       0.987916         115.441         31.1062 
        0.99406         114.616         30.6628 
        1.00019         114.298         30.2289 
        1.00632         113.163         29.8038 
        1.01246         112.552         29.3864 
        1.01859         111.537         28.9776 
        1.02471         110.805         28.5772 
        1.03085         109.792         28.1831 
        1.03698         109.444         27.7972 
        1.04314         108.368          27.417 
        1.04929         107.731         27.0448 
        1.05541         107.009          26.681 
        1.06154         106.492         26.3231 
        1.06769         106.252         25.9712 
        1.07382         105.401          25.627 
        1.07993         104.565         25.2899 
        1.08607         103.821         24.9574 
        1.09222         103.527         24.6306 
        1.09836         102.616         24.3101 
        1.10449         101.896         23.9957 
        1.11063         101.217         23.6866 
        1.11677         100.839          23.383 
         1.1229         99.8148         23.0853 
        1.12903         99.1667         22.7926 
        1.13518         99.2551         22.5047 
        1.14131         98.3142          22.222 
        1.14745         97.6638         21.9443 
        1.15359         97.0883         21.6713 
        1.15973         96.6899         21.4029 
        1.16584         95.7769         21.1403 
        1.17197         95.3478         20.8817 
        1.17811          94.798         20.6267 
        1.18424         94.2507         20.3767 
        1.19038           93.86         20.1301 
        1.19652         93.2845         19.8877 
        1.20267          92.453         19.6493 
        1.20881         91.9599         19.4149 
        1.21495         91.4104         19.1847 
        1.22108         91.0321         18.9583 
         1.2272         90.1305         18.7361 
        1.23334         89.8571         18.5169 
        1.23949         89.1993         18.3007 
        1.24562         88.7908         18.0886 
        1.25174         88.2118         17.8802 
        1.25789         87.8757         17.6745 
        1.26402         87.3025         17.4724 
        1.27014         86.7926         17.2739 
        1.27628         86.4156         17.0779 
        1.28244         85.8243         16.8847 
        1.28858         85.6109         16.6946 
        1.29471         84.9008          16.508 
        1.30084         84.5383         16.3244 
        1.30697         83.9758         16.1433 
        1.31312         83.5631         15.9647 
        1.31925         83.0117         15.7894 
        1.32537         82.7376         15.6169 
        1.33151         81.9493         15.4463 
        1.33765         81.6264         15.2785 
        1.34378         81.1708         15.1134 
        1.34992         80.9093         14.9507 
        1.35606           80.42         14.7901 
         1.3622         79.7151         14.6321 
        1.36833         79.6231         14.4768 
        1.37445         79.0631         14.3239 
        1.38059          78.532         14.1727 
        1.38675         78.0659         14.0233 
        1.39288         77.7243         13.8767 
        1.39901         77.4952         13.7322 
        1.40515         76.9478         13.5895 
         1.4113         76.5194         13.4489 
        1.41742         76.4351         13.3108 
        1.42355         75.7505         13.1744 
         1.4297          75.523         13.0394 
        1.43585         74.8973         12.9065 
        1.44198           74.56         12.7759 
        1.44809         74.2304         12.6474 
        1.45423         73.8353         12.5201 
        1.46036         73.6385         12.3949 
        1.46649         73.1158         12.2713 
        1.47263         72.6569         12.1493 
        1.47877         72.5257         12.0291 
        1.48491         72.0075         11.9102 
        1.49104         71.6848         11.7933 
        1.49718         71.2223         11.6778 
        1.50333         70.9068         11.5637 
        1.50947         70.5907         11.4513 
         1.5156         70.1975         11.3407 
        1.52172         69.8706         11.2314 
        1.52787          69.707         11.1234 
          1.534         69.1505          11.017 
        1.54013         68.7149         10.9121 
        1.54627         68.5675         10.8083 
        1.55241          68.052         10.7059 
        1.55855         67.8467          10.605 
        1.56467         67.4187         10.5056 
         1.5708         67.2017         10.4072 
        1.57695         67.0021           10.31 
        1.58308          66.365         10.2142 
        1.58922         66.2452         10.1196 
        1.59535         66.0441         10.0262 
         1.6015         65.4074         9.93389 
        1.60764         65.2526         9.84276 
        1.61376         64.8921         9.75303 
        1.61989         64.5759         9.66435 
        1.62604         64.3805         9.57658 
        1.63218         64.0738         9.48995 
        1.63831          63.564          9.4046 
        1.64444         63.3554         9.32026 
        1.65059         63.0081         9.23676 
        1.65673         62.7419         9.15438 
        1.66285         62.3759         9.07324 
        1.66898         62.1231         8.99305 
        1.67512         61.7194         8.91368 
        1.68127           61.51          8.8352 
         1.6874         61.2574         8.75784 
        1.69353         60.9692         8.68145 
        1.69967         60.5711          8.6058 
        1.70581         60.4676         8.53108 
        1.71193         60.2627         8.45754 
        1.71806         59.6605         8.38471 
        1.72421         59.5319         8.31259 
        1.73035         59.2578          8.2414 
        1.73649         58.9084         8.17107 
        1.74262         58.7386         8.10161 
        1.74876         58.4067         8.03291 
        1.75489         58.0942         7.96516 
        1.76101         57.9155         7.89821 
        1.76715         57.5102         7.83193 
        1.77329         57.3155         7.76634 
        1.77943         56.9025         7.70147 
        1.78557         56.7906         7.63744 
        1.79171         56.4618         7.57413 
        1.79785         56.2148         7.51152 
        1.80399         56.0754         7.44964 
        1.81012         55.7784         7.38854 
        1.81625         55.3239         7.32815 
        1.82239         55.1652         7.26835 
        1.82853         54.8527         7.20925 
        1.83466         54.6495         7.15086 
        1.84078         54.3612         7.09318 
        1.84692          54.025         7.03604 
        1.85306         53.8454         6.97947 
         1.8592         53.4984          6.9236 
        1.86533         53.3713         6.86838 
        1.87147         53.0761          6.8137 
        1.87761         52.8771         6.75959 
        1.88375         52.6055         6.70613 
        1.88988          52.493         6.65331 
        1.89601         52.1421         6.60103 
        1.90215         51.9074         6.54927 
        1.90829         51.7471         6.49809 
        1.91442         51.4506         6.44746 
        1.92056         51.1138         6.39741 
         1.9267         50.9367         6.34784 
        1.93284         50.6899         6.29877 
        1.93897         50.4748         6.25031 
        1.94509         50.1712         6.20246 
        1.95123         50.0187           6.155 
        1.95737         49.8148           6.108 
        1.96349         49.4503         6.06161 
        1.96964          49.427         6.01557 
        1.97578         49.0979         5.96999 
        1.98192         48.8718         5.92497 
        1.98805         48.7811         5.88041 
        1.99419         48.4132         5.83631 
        2.00033         48.2072         5.79264 
        2.00647         47.9994         5.74943 
         2.0126         47.6592         5.70674 
        2.01874         47.6062         5.66441 
        2.02488         47.4004         5.62248 
        2.03101         47.1297         5.58105 
        2.03714         46.9182         5.54007 
        2.04328          46.711         5.49946 
        2.04941         46.4393         5.45929 
        2.05554         46.1831         5.41956 
        2.06167         46.0659         5.38016 
        2.06781         45.8535         5.34115 
        2.07396         45.6543         5.30248 
        2.08009         45.4817         5.26425 
        2.08622          45.193         5.22644 
        2.09237          45.002         5.18894 
        2.09851         44.8565         5.15179 
        2.10464          44.637         5.11507 
        2.11077         44.4485         5.07875 
        2.11691         44.1779         5.04271 
        2.12305         44.0066         5.00701 
        2.12918         43.7959         4.97175 
        2.13531         43.5544         4.93682 
        2.14145         43.3687         4.90215 
         2.1476          43.209         4.86777 
        2.15372         42.9601         4.83389 
        2.15985         42.7909          4.8003 
        2.16599         42.6659         4.76694 
        2.17213         42.5038         4.73392 
        2.17827          42.261         4.70123 
         2.1844         42.0628         4.66888 
        2.19054         41.8224         4.63682 
        2.19666         41.6526          4.6051 
         2.2028         41.4632         4.57366 
        2.20893         41.3624         4.54249 
        2.21508          41.213         4.51158 
        2.22122         40.9438         4.48095 
        2.22736         40.8227         4.45067 
        2.23349         40.6496         4.42067 
        2.23962         40.3064         4.39093 
        2.24577         40.1647         4.36145 
         2.2519         39.9735         4.33227 
        2.25802         39.9356         4.30341 
        2.26417          39.677         4.27473 
        2.27031         39.5278         4.24628 
        2.27644         39.3159         4.21818 
        2.28257         39.1636         4.19033 
        2.28872         38.9074         4.16269 
        2.29486         38.8454          4.1353 
        2.30099         38.6633         4.10821 
        2.30712         38.4916         4.08135 
        2.31326          38.274         4.05468 
         2.3194         38.0944         4.02827 
        2.32553         37.9535         4.00214 
        2.33166          37.829         3.97625 
         2.3378         37.5372         3.95056 
        2.34394         37.4194         3.92509 
        2.35007         37.2532         3.89987 
        2.35619         37.1097         3.87491 
        2.36233         37.0085         3.85011 
        2.36848         36.7798         3.82547 
        2.37462         36.6264          3.8011 
        2.38075         36.5033         3.77697 
        2.38689         36.3951         3.75303 
        2.39303         36.1744          3.7293 
        2.39916         35.9638         3.70579 
        2.40529         35.7924          3.6825 
        2.41143         35.7335         3.65938 
        2.41757         35.5756         3.63646 
         2.4237         35.4426         3.61377 
        2.42983         35.2303         3.59128 
        2.43598         35.0676         3.56893 
        2.44211         34.9115         3.54679 
        2.44823         34.7977          3.5249 
        2.45437         34.6516         3.50313 
        2.46052         34.3969         3.48153 
        2.46665         34.3365         3.46015 
        2.47279         34.1988         3.43895 
        2.47892         34.0025         3.41792 
        2.48507         33.8784         3.39705 
         2.4912         33.7549         3.37638 
