# k  (h/Mpc)    P(k)  (Mpc/h)^3    P_linear(k)  (Mpc/h)^3
     0.00783031         6984.34          7083.1 
       0.013688         9110.69         9076.46 
       0.019231         9554.72         9557.82 
      0.0249154         9059.81         9206.93 
      0.0312784         8250.19         8323.61 
      0.0375637         7324.35          7337.6 
      0.0433917         6429.46         6525.96 
      0.0492413         5841.44         5883.03 
      0.0555754         5245.43         5372.31 
      0.0619321         4993.19         4993.72 
       0.067871         4591.59         4694.08 
      0.0738098         4292.27         4394.57 
      0.0800417         3918.61          4052.1 
      0.0862327         3596.65         3685.17 
      0.0921407         3288.06         3332.61 
      0.0982031         2945.17          2997.7 
       0.104506         2723.07         2703.26 
       0.110769         2496.34         2475.77 
       0.116806         2319.85         2313.65 
       0.122832         2212.31         2193.33 
       0.129052         2074.34         2092.65 
       0.135211          1982.1         1997.24 
       0.141259         1903.23         1894.99 
       0.147318         1801.62         1779.92 
       0.153489         1662.02         1653.62 
       0.159709         1562.06         1526.33 
       0.165845         1482.81         1410.75 
       0.171974         1381.19         1312.44 
       0.178125         1307.89         1233.62 
       0.184229          1253.5         1173.31 
        0.19034          1176.8         1125.85 
       0.196428         1159.11         1085.07 
       0.202534         1125.83         1044.83 
       0.208729         1074.94         1000.62 
       0.214876         1021.28         952.165 
       0.220989         990.018           900.8 
       0.227147         934.195         848.865 
        0.23329         893.825         800.207 
       0.239377         871.573         757.612 
       0.245482          813.88         721.591 
       0.251667         805.433         691.576 
       0.257832         777.483         666.613 
       0.263955         753.138         644.588 
       0.270079         728.768         623.289 
        0.27624         720.636         601.151 
       0.282372         690.596         577.804 
        0.28843         673.762         553.768 
       0.294538         642.154         529.396 
       0.300721           637.6         505.719 
        0.30691         608.144         483.934 
       0.313033         595.563         464.812 
       0.319153         576.977         448.107 
       0.325316         560.595         433.315 
        0.33145         545.221         419.941 
       0.337538         538.893         407.317 
       0.343633         522.102         394.752 
       0.349808             506         381.842 
       0.355968         500.934         368.728 
       0.362074         490.411         355.762 
       0.368217         477.289         343.059 
       0.374374         459.609         331.008 
       0.380519         454.457         319.892 
       0.386598         443.955         309.828 
       0.392688         440.781         300.627 
        0.39888         428.427         291.949 
       0.405048         420.223         283.756 
       0.411186         411.895         275.849 
       0.417313         404.728         268.036 
       0.423458         397.683          260.25 
       0.429607         389.128         252.551 
       0.435692         379.759         245.094 
       0.441815         377.267         237.868 
       0.447964         370.138         230.986 
       0.454126         357.461         224.489 
       0.460267         353.432         218.412 
       0.466387         349.454         212.711 
        0.47254         342.297         207.249 
       0.478662          340.76         202.003 
       0.484765         331.236         196.913 
       0.490885          327.24         191.917 
       0.497035          322.22         186.984 
       0.503198         315.335         182.154 
       0.509342         312.702         177.486 
       0.515458         308.965         173.014 
       0.521598         304.059         168.708 
       0.527764         298.856         164.574 
       0.533884         295.688         160.658 
           0.54         291.752         156.907 
       0.546137         290.491         153.276 
       0.552299         284.864         149.736 
       0.558452          281.66         146.294 
       0.564573         277.117         142.958 
       0.570708         272.592           139.7 
       0.576825         269.125         136.537 
       0.582926         266.228         133.474 
       0.589034         262.927         130.506 
       0.595184         260.554         127.623 
       0.601379         258.163         124.826 
       0.607522         253.085         122.148 
       0.613639         252.161         119.565 
       0.619772         246.379         117.051 
       0.625918         244.857         114.601 
       0.632068          241.84         112.216 
       0.638161         240.715         109.916 
         0.6443         236.765          107.66 
       0.650464         234.661         105.456 
       0.656582         233.114         103.327 
       0.662703         230.277         101.258 
       0.668861         226.921         99.2356 
       0.675024         224.556         97.2722 
       0.681124         223.657         95.3866 
       0.687237         220.174         93.5505 
       0.693381         217.274         91.7555 
       0.699536         215.787          90.004 
       0.705665         215.434         88.3038 
       0.711789         211.443         86.6465 
       0.717957         210.525         85.0187 
        0.72409         208.025         83.4411 
       0.730186         205.128         81.9132 
       0.736317         203.871         80.4163 
       0.742472          202.78          78.953 
       0.748622         201.294         77.5291 
        0.75476         199.571         76.1445 
       0.760888         196.833         74.7966 
       0.767043         195.914         73.4763 
       0.773185          193.88         72.1906 
       0.779291         190.952         70.9425 
       0.785407          190.25         69.7217 
       0.791564         188.516         68.5218 
       0.797719         186.291         67.3505 
       0.803834         185.508         66.2142 
       0.809972         183.422         65.1001 
       0.816124         183.486         64.0096 
       0.822261         180.903         62.9475 
       0.828378         179.428         61.9131 
       0.834502         179.162         60.9014 
       0.840667         176.437         59.9061 
       0.846816         175.381         58.9361 
       0.852925         174.032         57.9939 
       0.859047         172.323         57.0704 
       0.865192         171.481         56.1641 
       0.871341         169.662         55.2768 
       0.877463         168.584         54.4129 
       0.883569         167.187         53.5696 
       0.889708         166.179         52.7399 
       0.895864          164.51         51.9257 
       0.902008          163.64         51.1305 
       0.908149         162.831         50.3526 
       0.914301         161.067         49.5896 
       0.920448         160.086         48.8433 
       0.926574         159.253          48.115 
       0.932687         158.361         47.4033 
       0.938823         156.452         46.7035 
       0.944975          155.32         46.0163 
       0.951105         154.547         45.3455 
       0.957225         152.703         44.6892 
       0.963368         151.775         44.0439 
       0.969511         151.231         43.4113 
       0.975621         150.543         42.7946 
       0.981748         149.677         42.1883 
       0.987916         147.931         41.5901 
        0.99406         147.349         41.0057 
        1.00019         146.407         40.4338 
        1.00632         145.384         39.8734 
        1.01246         144.398         39.3228 
        1.01859         142.882         38.7836 
        1.02471           142.9         38.2551 
        1.03085         141.449         37.7348 
        1.03698         140.325         37.2253 
        1.04314         139.376          36.723 
        1.04929         138.541         36.2312 
        1.05541         137.805         35.7505 
        1.06154         136.884         35.2773 
        1.06769         136.636          34.812 
        1.07382         135.849         34.3567 
        1.07993         134.815         33.9106 
        1.08607         133.736         33.4706 
        1.09222         133.089          33.038 
        1.09836         132.035         32.6135 
        1.10449         131.259         32.1971 
        1.11063          130.54         31.7875 
        1.11677         129.996         31.3852 
         1.1229         128.635         30.9906 
        1.12903          127.82         30.6025 
        1.13518         127.976         30.2207 
        1.14131         126.694         29.8456 
        1.14745         125.882         29.4772 
        1.15359         125.129         29.1149 
        1.15973         124.826         28.7586 
        1.16584          123.77         28.4099 
        1.17197         123.066         28.0665 
        1.17811         122.384         27.7278 
        1.18424         121.553         27.3956 
        1.19038         120.996         27.0679 
        1.19652         120.347         26.7458 
        1.20267         119.486         26.4289 
        1.20881         118.816         26.1172 
        1.21495         118.044          25.811 
        1.22108         117.433         25.5098 
         1.2272         116.687         25.2142 
        1.23334         116.131         24.9226 
        1.23949         114.987         24.6349 
        1.24562         114.918         24.3525 
        1.25174         113.954         24.0751 
        1.25789         113.448         23.8011 
        1.26402         113.035         23.5318 
        1.27014         112.047         23.2675 
        1.27628         111.752         23.0063 
        1.28244          110.88         22.7488 
        1.28858           110.4         22.4955 
        1.29471         109.651         22.2466 
        1.30084         109.067         22.0017 
        1.30697         108.456         21.7602 
        1.31312         108.112         21.5219 
        1.31925         107.435          21.288 
        1.32537         107.017         21.0578 
        1.33151         105.971         20.8301 
        1.33765         105.493          20.606 
        1.34378         104.826         20.3856 
        1.34992         104.695         20.1683 
        1.35606         104.047         19.9538 
         1.3622         103.164         19.7427 
        1.36833          102.95         19.5352 
        1.37445         102.175         19.3308 
        1.38059         101.652         19.1287 
        1.38675         101.043          18.929 
        1.39288         100.482         18.7329 
        1.39901         100.333         18.5398 
        1.40515         99.8091         18.3489 
         1.4113         98.7967         18.1608 
        1.41742         98.7215          17.976 
        1.42355         97.9128         17.7935 
         1.4297         97.4605          17.613 
        1.43585         96.8287         17.4351 
        1.44198         96.5979         17.2603 
        1.44809         95.8802         17.0882 
        1.45423         95.3859         16.9178 
        1.46036         95.0652         16.7501 
        1.46649          94.515         16.5846 
        1.47263         94.0975         16.4212 
        1.47877         93.7336         16.2601 
        1.48491         93.0974         16.1009 
        1.49104         92.5751         15.9442 
        1.49718         92.1181         15.7894 
        1.50333         91.6099         15.6364 
        1.50947         90.9851         15.4858 
         1.5156         90.8499         15.3374 
        1.52172         90.1728         15.1909 
        1.52787           90.01         15.0461 
          1.534         89.5294         14.9033 
        1.54013          88.815         14.7625 
        1.54627         88.4137         14.6233 
        1.55241         87.9431         14.4859 
        1.55855         87.5963         14.3504 
        1.56467         86.9986         14.2171 
         1.5708          86.667         14.0851 
        1.57695         86.4117         13.9545 
        1.58308         85.6583         13.8259 
        1.58922         85.5381         13.6988 
        1.59535         85.1868         13.5734 
         1.6015         84.5484         13.4494 
        1.60764         84.2722          13.327 
        1.61376         83.7181         13.2064 
        1.61989         83.3367         13.0873 
        1.62604         82.9346         12.9693 
        1.63218         82.7275         12.8529 
        1.63831         82.1706         12.7382 
        1.64444           81.82         12.6248 
        1.65059         81.1205         12.5126 
        1.65673         80.9187         12.4018 
        1.66285         80.5573         12.2927 
        1.66898         80.1413         12.1849 
        1.67512         79.5943         12.0781 
        1.68127         79.2354         11.9726 
         1.6874         78.9222         11.8685 
        1.69353         78.5611         11.7657 
        1.69967         78.0959         11.6639 
        1.70581         77.8952         11.5634 
        1.71193         77.5793         11.4644 
        1.71806         76.9065         11.3664 
        1.72421         76.7965         11.2693 
        1.73035          76.278         11.1735 
        1.73649         75.8736         11.0788 
        1.74262         75.6155         10.9852 
        1.74876         75.2476         10.8927 
        1.75489         74.7666         10.8015 
        1.76101         74.5286         10.7113 
        1.76715         74.0732          10.622 
        1.77329         73.7835         10.5337 
        1.77943         73.4425         10.4463 
        1.78557          73.136           10.36 
        1.79171         72.7183         10.2747 
        1.79785         72.5109         10.1903 
        1.80399         72.0308         10.1069 
        1.81012         71.8384         10.0246 
        1.81625         71.2502         9.94315 
        1.82239         70.9416         9.86253 
        1.82853         70.5788         9.78285 
        1.83466         70.3187         9.70412 
        1.84078         69.8101         9.62634 
        1.84692         69.5672         9.54928 
        1.85306         69.3237         9.47298 
         1.8592         68.8106         9.39763 
        1.86533         68.5611         9.32314 
        1.87147         68.2049         9.24937 
        1.87761         67.9245         9.17637 
        1.88375         67.7644         9.10425 
        1.88988         67.5053         9.03297 
        1.89601         66.9595         8.96242 
        1.90215         66.7099         8.89257 
        1.90829         66.4895          8.8235 
        1.91442          66.059         8.75515 
        1.92056         65.7393          8.6876 
         1.9267         65.3785         8.62068 
        1.93284         65.0392         8.55443 
        1.93897         64.7814           8.489 
        1.94509         64.3359          8.4244 
        1.95123          64.221          8.3603 
        1.95737         63.9862         8.29683 
        1.96349         63.6301         8.23418 
        1.96964         63.3762         8.17199 
        1.97578         62.9994         8.11042 
        1.98192         62.7903         8.04961 
        1.98805         62.5603         7.98941 
        1.99419         62.1248         7.92982 
        2.00033         61.8552         7.87082 
        2.00647         61.6467         7.81242 
         2.0126         61.2228         7.75472 
        2.01874         60.9243         7.69752 
        2.02488         60.8008         7.64084 
        2.03101         60.4119         7.58484 
        2.03714          60.103         7.52945 
        2.04328         59.8234         7.47455 
        2.04941         59.5183         7.42024 
        2.05554         59.1639         7.36651 
        2.06167         59.1267         7.31324 
        2.06781         58.7688         7.26049 
        2.07396         58.4002         7.20818 
        2.08009         58.2482         7.15648 
        2.08622          57.835         7.10535 
        2.09237         57.6461         7.05462 
        2.09851          57.361         7.00437 
        2.10464         57.0833         6.95469 
        2.11077         56.8948         6.90556 
        2.11691         56.5251         6.85679 
        2.12305         56.1977         6.80849 
        2.12918         55.9621         6.76077 
        2.13531          55.749         6.71351 
        2.14145         55.5054         6.66658 
         2.1476         55.3143         6.62005 
        2.15372         54.9653          6.5742 
        2.15985         54.7632         6.52874 
        2.16599          54.546         6.48357 
        2.17213         54.3871         6.43888 
        2.17827         54.0131         6.39463 
         2.1844         53.6282         6.35082 
        2.19054         53.4508         6.30742 
        2.19666         53.2855         6.26448 
         2.2028         53.0806          6.2219 
        2.20893         52.8348          6.1797 
        2.21508         52.6236         6.13784 
        2.22122         52.3229         6.09635 
        2.22736         52.0309         6.05534 
        2.23349          51.881         6.01471 
        2.23962         51.5295         5.97443 
        2.24577         51.3032         5.93449 
         2.2519         51.1056         5.89496 
        2.25802         50.9926         5.85586 
        2.26417          50.627         5.81701 
        2.27031         50.4405         5.77847 
        2.27644         50.0726         5.74039 
        2.28257         49.9775         5.70266 
        2.28872         49.6085         5.66519 
        2.29486         49.4421         5.62807 
        2.30099         49.2708         5.59136 
        2.30712         49.0337         5.55495 
        2.31326         48.8141         5.51881 
         2.3194         48.5552         5.48302 
        2.32553         48.3744         5.44759 
        2.33166         48.1053          5.4125 
         2.3378         47.8453         5.37767 
        2.34394         47.5283         5.34313 
        2.35007         47.3852         5.30895 
        2.35619         47.3316          5.2751 
        2.36233         47.1126         5.24147 
        2.36848         46.7144         5.20807 
        2.37462         46.6726         5.17502 
        2.38075         46.3592         5.14229 
        2.38689         46.2467         5.10982 
        2.39303         46.0397         5.07764 
        2.39916         45.8265         5.04576 
        2.40529         45.5141         5.01416 
        2.41143         45.3405         4.98281 
        2.41757          45.175         4.95172 
         2.4237         44.9947         4.92094 
        2.42983         44.7611         4.89043 
        2.43598         44.5225          4.8601 
        2.44211         44.3836         4.83007 
        2.44823         44.1257         4.80037 
        2.45437         43.9703         4.77083 
        2.46052         43.6935         4.74152 
        2.46665         43.5648          4.7125 
        2.47279         43.3876         4.68374 
        2.47892         43.1162         4.65519 
        2.48507         42.9573         4.62686 
         2.4912         42.7823         4.59882 
