# k  (h/Mpc)    Pcb(k)  (Mpc/h)^3    Pcb_linear(k)  (Mpc/h)^3
     0.00783031         140.232         141.478 
       0.013688         168.394          169.71 
       0.019231         165.182         165.613 
      0.0249154         146.611         146.648 
      0.0312784         121.378          121.22 
      0.0375637         100.014         99.8869 
      0.0433917         86.1554         85.9107 
      0.0492413         77.0144         76.9275 
      0.0555754         70.9673         70.8268 
      0.0619321         65.8719         66.0424 
       0.067871         61.0969         61.1299 
      0.0738098         55.1934         55.2051 
      0.0800417         48.3632         48.2927 
      0.0862327         41.7211         41.6649 
      0.0921407         36.4248         36.3728 
      0.0982031         32.4928         32.3872 
       0.104506         29.7267         29.7216 
       0.110769           28.12         28.1253 
       0.116806         27.0491         27.0167 
       0.122832         25.8038         25.8342 
       0.129052         24.2412          24.233 
       0.135211         22.2902         22.2527 
       0.141259         20.1546         20.1382 
       0.147318          18.136         18.1389 
       0.153489         16.4881         16.4569 
       0.159709         15.2605         15.2213 
       0.165845          14.393         14.4096 
       0.171974         13.8985         13.8632 
       0.178125         13.4235         13.4054 
       0.184229         12.8883         12.8939 
        0.19034         12.2784         12.2493 
       0.196428         11.5053         11.4847 
       0.202534         10.6545         10.6666 
       0.208729         9.90412         9.87907 
       0.214876         9.25913         9.21375 
       0.220989          8.7082         8.69763 
       0.227147         8.35408         8.31181 
        0.23329         8.05774         8.01693 
       0.239377         7.79781          7.7584 
       0.245482         7.52368         7.48623 
       0.251667         7.19061          7.1723 
       0.257832          6.8615         6.82181 
       0.263955         6.48598          6.4582 
       0.270079         6.13605           6.108 
        0.27624         5.81098         5.79341 
       0.282372         5.54975         5.53016 
        0.28843         5.35324          5.3163 
       0.294538         5.16734         5.13501 
       0.300721         4.98612         4.96881 
        0.30691          4.8367         4.80394 
       0.313033         4.66185         4.63267 
       0.319153         4.50095         4.45232 
       0.325316          4.2882         4.26683 
        0.33145         4.10926          4.0872 
       0.337538         3.94879         3.92144 
       0.343633         3.80767         3.77304 
       0.349808         3.66867         3.64038 
       0.355968         3.54822         3.52285 
       0.362074         3.44732          3.4152 
       0.368217         3.34076         3.31069 
       0.374374         3.24589         3.20621 
       0.380519          3.1299         3.10067 
       0.386598         3.02135         2.99652 
       0.392688         2.91626         2.89447 
        0.39888         2.82269         2.79561 
       0.405048           2.733         2.70413 
       0.411186         2.64688         2.62014 
       0.417313         2.57045         2.54267 
       0.423458          2.4911         2.46995 
       0.429607         2.42933         2.40021 
       0.435692         2.36317         2.33278 
       0.441815         2.29288         2.26612 
       0.447964         2.22042         2.20021 
       0.454126         2.16294         2.13568 
       0.460267         2.10536         2.07376 
       0.466387         2.04436         2.01509 
        0.47254         1.99049         1.95921 
       0.478662          1.9351         1.90657 
       0.484765         1.88717         1.85677 
       0.490885         1.83505         1.80894 
       0.497035         1.78407         1.76238 
       0.503198         1.74359         1.71689 
       0.509342         1.69495         1.67271 
       0.515458         1.65574         1.62998 
       0.521598         1.61474         1.58843 
       0.527764         1.57851         1.54816 
       0.533884          1.5325         1.50976 
           0.54         1.49793         1.47303 
       0.546137         1.45966         1.43768 
       0.552299         1.42718          1.4035 
       0.558452         1.39421         1.37048 
       0.564573         1.36254         1.33856 
       0.570708         1.33139         1.30747 
       0.576825         1.30176         1.27739 
       0.582926         1.26974          1.2483 
       0.589034         1.24542         1.22008 
       0.595184         1.21917         1.19257 
       0.601379         1.18968         1.16576 
       0.607522         1.16254         1.14005 
       0.613639         1.13539         1.11529 
       0.619772         1.11458         1.09126 
       0.625918         1.09091         1.06792 
       0.632068         1.06807         1.04524 
       0.638161         1.04558          1.0234 
         0.6443         1.02359         1.00199 
       0.650464         1.00349        0.981092 
       0.656582        0.984565        0.960933 
       0.662703        0.963928        0.941344 
       0.668861        0.941604        0.922216 
       0.675024        0.924333        0.903635 
       0.681124        0.911349        0.885779 
       0.687237        0.890636        0.868387 
       0.693381        0.870708         0.85139 
       0.699536        0.857888         0.83482 
       0.705665        0.841459        0.818758 
       0.711789        0.822684        0.803126 
       0.717957        0.808514        0.787793 
        0.72409        0.793146        0.772944 
       0.730186        0.781042         0.75857 
       0.736317        0.764256        0.744488 
       0.742472        0.752221        0.730717 
       0.748622         0.73902        0.717316 
        0.75476        0.724162        0.704286 
       0.760888         0.71333        0.691605 
       0.767043          0.6956        0.679191 
       0.773185        0.686144        0.667112 
       0.779291         0.67672        0.655398 
       0.785407        0.663892        0.643951 
       0.791564         0.65185        0.632707 
       0.797719        0.640809        0.621739 
       0.803834        0.629698        0.611103 
       0.809972        0.619708        0.600679 
       0.816124        0.608919        0.590478 
       0.822261        0.599609        0.580544 
       0.828378        0.589023         0.57087 
       0.834502        0.579519        0.561411 
       0.840667         0.57102        0.552108 
       0.846816        0.561551        0.543043 
       0.852925        0.551485        0.534242 
       0.859047        0.543028        0.525619 
       0.865192        0.534856        0.517161 
       0.871341        0.527238        0.508884 
       0.877463        0.517439        0.500829 
       0.883569        0.509871         0.49297 
       0.889708        0.502704        0.485241 
       0.895864        0.495108        0.477659 
       0.902008         0.48673        0.470258 
       0.908149        0.480207        0.463018 
       0.914301        0.473927        0.455921 
       0.920448        0.466717        0.448981 
       0.926574        0.460599        0.442211 
       0.932687        0.453559        0.435596 
       0.938823        0.445566        0.429094 
       0.944975        0.439748         0.42271 
       0.951105         0.43236        0.416481 
       0.957225        0.426158        0.410388 
       0.963368        0.421099        0.404398 
       0.969511        0.415715        0.398528 
       0.975621        0.408684        0.392807 
       0.981748        0.401973        0.387185 
       0.987916        0.396948        0.381638 
        0.99406        0.392313        0.376221 
        1.00019        0.386392        0.370921 
        1.00632        0.382285        0.365729 
        1.01246        0.376832        0.360629 
        1.01859        0.371605        0.355636 
        1.02471        0.365794        0.350743 
        1.03085         0.36045        0.345927 
        1.03698        0.356595        0.341212 
        1.04314        0.351726        0.336565 
        1.04929        0.347999        0.332017 
        1.05541        0.342006        0.327571 
        1.06154        0.338245        0.323197 
        1.06769        0.334129        0.318897 
        1.07382        0.329781         0.31469 
        1.07993         0.32577        0.310568 
        1.08607        0.321211        0.306505 
        1.09222        0.317082         0.30251 
        1.09836        0.313303        0.298592 
        1.10449        0.308932        0.294748 
        1.11063        0.305073        0.290969 
        1.11677        0.302025        0.287257 
         1.1229        0.297357        0.283618 
        1.12903        0.294306        0.280038 
        1.13518        0.290456        0.276518 
        1.14131        0.287176        0.273061 
        1.14745        0.284725        0.269666 
        1.15359        0.280385        0.266328 
        1.15973         0.27753        0.263045 
        1.16584        0.273754        0.259833 
        1.17197         0.27012         0.25667 
        1.17811        0.266932         0.25355 
        1.18424        0.263912        0.250492 
        1.19038        0.260389        0.247476 
        1.19652        0.258389         0.24451 
        1.20267        0.255323        0.241594 
        1.20881        0.251335        0.238726 
        1.21495        0.248923        0.235909 
        1.22108        0.246368        0.233139 
         1.2272        0.243088         0.23042 
        1.23334        0.240472        0.227738 
        1.23949        0.238319        0.225093 
        1.24562        0.235403        0.222497 
        1.25174        0.232979        0.219947 
        1.25789        0.229497        0.217429 
        1.26402        0.227816        0.214955 
        1.27014        0.224581        0.212526 
        1.27628        0.222679        0.210127 
        1.28244        0.220278        0.207761 
        1.28858        0.217442        0.205435 
        1.29471        0.215342         0.20315 
        1.30084        0.212906        0.200901 
        1.30697        0.211153        0.198684 
        1.31312        0.208844        0.196497 
        1.31925        0.206497        0.194351 
        1.32537        0.204314        0.192238 
        1.33151        0.202156         0.19015 
        1.33765        0.199828        0.188094 
        1.34378        0.197574        0.186073 
        1.34992        0.196232         0.18408 
        1.35606        0.193791        0.182113 
         1.3622        0.191931        0.180177 
        1.36833        0.190313        0.178275 
        1.37445        0.188401        0.176401 
        1.38059         0.18634        0.174549 
        1.38675        0.184089        0.172719 
        1.39288        0.181978        0.170923 
        1.39901        0.180856        0.169153 
        1.40515        0.178809        0.167404 
         1.4113        0.177335        0.165681 
        1.41742        0.175632        0.163989 
        1.42355        0.173118        0.162318 
         1.4297        0.172192        0.160665 
        1.43585        0.170169        0.159035 
        1.44198        0.168702        0.157435 
        1.44809         0.16693        0.155859 
        1.45423         0.16531          0.1543 
        1.46036        0.163737        0.152765 
        1.46649         0.16214         0.15125 
        1.47263        0.160153        0.149754 
        1.47877        0.159558         0.14828 
        1.48491        0.157272        0.146823 
        1.49104        0.156621        0.145389 
        1.49718        0.154738        0.143973 
        1.50333        0.153414        0.142574 
        1.50947        0.152077        0.141196 
         1.5156        0.150556        0.139839 
        1.52172         0.14927          0.1385 
        1.52787        0.147491        0.137175 
          1.534        0.146501         0.13587 
        1.54013        0.144989        0.134583 
        1.54627        0.143933         0.13331 
        1.55241        0.142538        0.132054 
        1.55855        0.141283        0.130816 
        1.56467        0.140094        0.129597 
         1.5708        0.138784         0.12839 
        1.57695        0.137555        0.127197 
        1.58308        0.135921        0.126022 
        1.58922        0.135122        0.124861 
        1.59535        0.133749        0.123716 
         1.6015        0.132824        0.122583 
        1.60764        0.131407        0.121465 
        1.61376         0.13038        0.120364 
        1.61989        0.129166        0.119275 
        1.62604        0.128151        0.118198 
        1.63218        0.127114        0.117135 
        1.63831        0.125922        0.116088 
        1.64444        0.124901        0.115053 
        1.65059        0.123577        0.114028 
        1.65673         0.12272        0.113017 
        1.66285        0.121893        0.112021 
        1.66898        0.120582        0.111036 
        1.67512        0.119601        0.110062 
        1.68127        0.118587        0.109098 
         1.6874         0.11774        0.108149 
        1.69353        0.116732        0.107211 
        1.69967        0.115469        0.106282 
        1.70581        0.114973        0.105364 
        1.71193        0.114046        0.104461 
        1.71806        0.112917        0.103567 
        1.72421        0.111916        0.102681 
        1.73035        0.111104        0.101807 
        1.73649        0.110227        0.100943 
        1.74262        0.109306         0.10009 
        1.74876        0.108651       0.0992459 
        1.75489        0.107593       0.0984137 
        1.76101        0.106799       0.0975912 
        1.76715        0.106008       0.0967771 
        1.77329         0.10499       0.0959713 
        1.77943        0.104146       0.0951743 
        1.78557         0.10361       0.0943877 
        1.79171        0.102736       0.0936098 
        1.79785        0.101762       0.0928405 
        1.80399        0.100876       0.0920801 
        1.81012        0.100318       0.0913293 
        1.81625       0.0995649       0.0905872 
        1.82239        0.098931       0.0898523 
        1.82853       0.0979582       0.0891259 
        1.83466       0.0972412       0.0884083 
        1.84078       0.0964991       0.0876993 
        1.84692       0.0957943       0.0869971 
        1.85306       0.0950924       0.0863017 
         1.8592       0.0944433        0.085615 
        1.86533        0.093757       0.0849362 
        1.87147       0.0929599        0.084264 
        1.87761       0.0921916       0.0835989 
        1.88375       0.0914057       0.0829417 
        1.88988       0.0908951       0.0822923 
        1.89601       0.0900749       0.0816496 
        1.90215       0.0894346       0.0810132 
        1.90829       0.0886888       0.0803839 
        1.91442       0.0882568       0.0797613 
        1.92056       0.0876213       0.0791459 
         1.9267       0.0869267       0.0785364 
        1.93284       0.0861524       0.0779329 
        1.93897        0.085561       0.0773369 
        1.94509       0.0850041       0.0767485 
        1.95123       0.0844117       0.0761647 
        1.95737       0.0838942       0.0755866 
        1.96349       0.0833144        0.075016 
        1.96964        0.082584       0.0744497 
        1.97578       0.0820986       0.0738889 
        1.98192       0.0815221       0.0733351 
        1.98805        0.080986        0.072787 
        1.99419       0.0804555       0.0722444 
        2.00033       0.0797467       0.0717071 
        2.00647       0.0792451       0.0711755 
         2.0126       0.0788298       0.0706501 
        2.01874       0.0781572       0.0701293 
        2.02488       0.0776102       0.0696133 
        2.03101       0.0770674       0.0691034 
        2.03714       0.0768366       0.0685992 
        2.04328       0.0759159       0.0680994 
        2.04941       0.0756078       0.0676051 
        2.05554       0.0751268        0.067116 
        2.06167       0.0745139       0.0666311 
        2.06781       0.0739476       0.0661509 
        2.07396       0.0734543       0.0656749 
        2.08009       0.0730286       0.0652043 
        2.08622       0.0726197       0.0647389 
        2.09237        0.072052       0.0642771 
        2.09851        0.071579       0.0638198 
        2.10464       0.0711268       0.0633677 
        2.11077       0.0706012       0.0629205 
        2.11691       0.0702755       0.0624767 
        2.12305       0.0695656       0.0620371 
        2.12918       0.0691799       0.0616028 
        2.13531       0.0687768       0.0611727 
        2.14145       0.0683265       0.0607457 
         2.1476       0.0679569       0.0603223 
        2.15372       0.0674847       0.0599051 
        2.15985       0.0670325       0.0594914 
        2.16599       0.0664745       0.0590805 
        2.17213       0.0662254       0.0586739 
        2.17827       0.0657727       0.0582712 
         2.1844       0.0653011       0.0578727 
        2.19054       0.0649536       0.0574778 
        2.19666       0.0645462       0.0570871 
         2.2028       0.0639498       0.0566997 
        2.20893       0.0637446       0.0563158 
        2.21508         0.06324        0.055935 
        2.22122       0.0628174       0.0555576 
        2.22736       0.0624795       0.0551844 
        2.23349       0.0621002       0.0548148 
        2.23962       0.0617695       0.0544484 
        2.24577       0.0613745       0.0540851 
         2.2519       0.0609326       0.0537255 
        2.25802       0.0606275       0.0533698 
        2.26417       0.0602655       0.0530164 
        2.27031       0.0598299       0.0526658 
        2.27644       0.0596319       0.0523195 
        2.28257       0.0591347       0.0519762 
        2.28872       0.0587741       0.0516355 
        2.29486       0.0584955       0.0512978 
        2.30099       0.0580638       0.0509639 
        2.30712       0.0578283       0.0506328 
        2.31326       0.0573203       0.0503041 
         2.3194       0.0570542       0.0499785 
        2.32553       0.0567542       0.0496564 
        2.33166       0.0563194       0.0493372 
         2.3378       0.0560054       0.0490204 
        2.34394       0.0557205       0.0487064 
        2.35007       0.0553989       0.0483955 
        2.35619       0.0552279       0.0480877 
        2.36233       0.0547283       0.0477819 
        2.36848       0.0544152       0.0474781 
        2.37462       0.0541801       0.0471776 
        2.38075       0.0538544         0.04688 
        2.38689       0.0535695       0.0465847 
        2.39303       0.0533006        0.046292 
        2.39916       0.0528532       0.0460021 
        2.40529       0.0525733       0.0457148 
        2.41143       0.0522181       0.0454297 
        2.41757       0.0519939       0.0451469 
         2.4237        0.051688       0.0448671 
        2.42983       0.0514076       0.0445896 
        2.43598       0.0510896       0.0443138 
        2.44211       0.0507558       0.0440408 
        2.44823       0.0505545       0.0437706 
        2.45437       0.0502547       0.0435021 
        2.46052       0.0499843       0.0432355 
        2.46665       0.0496812       0.0429717 
        2.47279       0.0494592       0.0427101 
        2.47892       0.0492519       0.0424506 
        2.48507       0.0488722        0.042193 
         2.4912       0.0486597        0.041938 
