# k  (h/Mpc)    Pcb(k)  (Mpc/h)^3    Pcb_linear(k)  (Mpc/h)^3
     0.00783031         7058.98         7145.01 
       0.013688         9070.45         9023.75 
       0.019231         9376.82         9367.05 
      0.0249154         8786.68         8916.93 
      0.0312784         7927.43         7986.87 
      0.0375637         6998.96         7002.28 
      0.0433917         6129.23         6210.69 
      0.0492413         5556.96         5588.62 
      0.0555754         4980.15         5090.64 
      0.0619321         4719.82            4712 
       0.067871         4319.28         4404.61 
      0.0738098         4013.19         4096.91 
      0.0800417         3643.23         3753.03 
      0.0862327         3328.36         3396.57 
      0.0921407         3036.23         3064.68 
      0.0982031         2719.63         2757.55 
       0.104506         2518.81         2492.62 
       0.110769         2313.64         2289.27 
       0.116806         2152.32         2142.27 
       0.122832         2050.38         2028.59 
       0.129052         1916.75         1927.91 
       0.135211         1822.92         1829.47 
       0.141259         1742.21         1725.46 
       0.147318         1642.88         1612.96 
       0.153489         1512.85          1494.9 
       0.159709         1421.32         1380.55 
       0.165845         1350.23         1279.72 
       0.171974         1260.23         1195.19 
       0.178125         1195.35         1127.01 
       0.184229         1145.69         1073.04 
        0.19034         1074.15         1027.94 
       0.196428         1055.04         986.837 
       0.202534         1022.13         945.456 
       0.208729         972.909          901.17 
       0.214876          922.49         854.948 
       0.220989         893.083         808.348 
       0.227147         843.212          763.12 
        0.23329         807.349         721.828 
       0.239377         787.209         685.916 
       0.245482         735.385          655.04 
       0.251667         727.234         628.232 
       0.257832         701.653         604.622 
       0.263955         678.606         582.764 
       0.270079         655.478         561.316 
        0.27624         647.003         539.513 
       0.282372         620.055         517.516 
        0.28843         603.633         495.896 
       0.294538         575.513         474.797 
       0.300721         571.124         454.765 
        0.30691         544.751         436.407 
       0.313033         533.261         420.019 
       0.319153         515.797         405.201 
       0.325316          501.44         391.504 
        0.33145         487.007         378.663 
       0.337538         480.878         366.363 
       0.343633         465.522         354.261 
       0.349808         450.977         342.174 
       0.355968         445.904         330.339 
       0.362074         436.128         318.986 
       0.368217         424.456          308.09 
       0.374374         408.911         297.804 
       0.380519          403.95         288.215 
       0.386598         394.373         279.342 
       0.392688         391.023         270.989 
        0.39888         380.224         262.918 
       0.405048         372.488         255.192 
       0.411186         364.915         247.745 
       0.417313         358.426         240.504 
       0.423458         351.907         233.441 
       0.429607         344.225         226.602 
       0.435692         335.511         220.088 
       0.441815         333.209         213.814 
       0.447964         326.998         207.814 
       0.454126         315.194         202.088 
       0.460267         311.653         196.643 
       0.466387         308.084         191.448 
        0.47254         301.623         186.421 
       0.478662         300.089         181.585 
       0.484765          291.54         176.913 
       0.490885         287.854         172.373 
       0.497035         283.569         167.953 
       0.503198         277.138         163.672 
       0.509342         274.543         159.557 
       0.515458          271.11         155.615 
       0.521598         266.864         151.806 
       0.527764           262.5         148.122 
       0.533884         259.331         144.598 
           0.54         255.749         141.198 
       0.546137         254.475         137.896 
       0.552299         249.602         134.682 
       0.558452           246.5          131.57 
       0.564573         242.496         128.569 
       0.570708          238.48         125.653 
       0.576825          235.51         122.837 
       0.582926         232.599         120.117 
       0.589034         229.637         117.479 
       0.595184         227.465         114.909 
       0.601379         225.323         112.402 
       0.607522         220.679         109.993 
       0.613639         219.868         107.665 
       0.619772          214.95         105.398 
       0.625918          213.34         103.192 
       0.632068          210.81         101.047 
       0.638161         209.633          98.983 
         0.6443          206.34         96.9618 
       0.650464          204.38         94.9905 
       0.656582         202.698         93.0889 
       0.662703         200.093         91.2399 
       0.668861         197.276         89.4317 
       0.675024         195.138         87.6723 
       0.681124         194.225          85.979 
       0.687237         191.029         84.3279 
       0.693381         188.561         82.7128 
       0.699536         187.242         81.1374 
       0.705665         187.152           79.61 
       0.711789         183.257         78.1235 
       0.717957         182.587          76.665 
        0.72409         180.264         75.2523 
       0.730186         177.603         73.8842 
       0.736317         176.667         72.5434 
       0.742472         175.592         71.2315 
       0.748622         174.227         69.9538 
        0.75476         172.698         68.7107 
       0.760888         170.324            67.5 
       0.767043         169.387         66.3141 
       0.773185         167.673         65.1594 
       0.779291         165.292         64.0391 
       0.785407         164.522         62.9437 
       0.791564         162.985         61.8674 
       0.797719         160.931         60.8171 
       0.803834         160.255         59.7982 
       0.809972         158.326         58.7993 
       0.816124         158.226         57.8213 
       0.822261         156.217         56.8685 
       0.828378         154.838         55.9403 
       0.834502         154.458         55.0324 
       0.840667         152.262         54.1389 
       0.846816         151.119          53.268 
       0.852925         149.967          52.422 
       0.859047         148.366         51.5928 
       0.865192         147.694         50.7789 
       0.871341          146.18         49.9822 
       0.877463         145.064         49.2064 
       0.883569         143.945         48.4492 
       0.889708         143.062         47.7041 
       0.895864         141.707          46.973 
       0.902008         140.813         46.2589 
       0.908149         140.093         45.5602 
       0.914301          138.57         44.8749 
       0.920448         137.745         44.2044 
       0.926574          136.95         43.5501 
       0.932687         136.261         42.9106 
       0.938823         134.452         42.2817 
       0.944975         133.494         41.6642 
       0.951105         132.773         41.0612 
       0.957225         131.186         40.4714 
       0.963368         130.495         39.8913 
       0.969511         130.033         39.3226 
       0.975621         129.477         38.7681 
       0.981748         128.517         38.2231 
       0.987916         127.145         37.6852 
        0.99406         126.578         37.1597 
        1.00019          125.61         36.6455 
        1.00632         124.874         36.1415 
        1.01246         123.926         35.6464 
        1.01859         122.491         35.1614 
        1.02471         122.703         34.6861 
        1.03085         121.441         34.2181 
        1.03698         120.503         33.7598 
        1.04314         119.534          33.308 
        1.04929         118.904         32.8657 
        1.05541         118.164         32.4332 
        1.06154         117.471         32.0076 
        1.06769         117.098          31.589 
        1.07382         116.512         31.1793 
        1.07993         115.649         30.7779 
        1.08607         114.707          30.382 
        1.09222         114.152         29.9927 
        1.09836         113.272         29.6107 
        1.10449         112.623         29.2359 
        1.11063         111.988         28.8672 
        1.11677         111.439          28.505 
         1.1229         110.334         28.1497 
        1.12903          109.47         27.8002 
        1.13518         109.707         27.4565 
        1.14131         108.714         27.1187 
        1.14745         107.785         26.7869 
        1.15359         107.274         26.4606 
        1.15973         106.923         26.1396 
        1.16584         106.069         25.8254 
        1.17197         105.456          25.516 
        1.17811         104.838         25.2108 
        1.18424          104.09         24.9114 
        1.19038         103.569         24.6161 
        1.19652         103.081         24.3257 
        1.20267         102.305           24.04 
        1.20881         101.758          23.759 
        1.21495         101.054          23.483 
        1.22108         100.516         23.2114 
         1.2272         99.8549         22.9448 
        1.23334         99.4382         22.6818 
        1.23949         98.6362         22.4224 
        1.24562         98.4554         22.1677 
        1.25174         97.7362         21.9174 
        1.25789         97.2493         21.6703 
        1.26402         96.8342         21.4274 
        1.27014         95.9306         21.1889 
        1.27628         95.7572         20.9533 
        1.28244         94.9092         20.7209 
        1.28858         94.5361         20.4924 
        1.29471         94.0341         20.2678 
        1.30084         93.4474         20.0469 
        1.30697         92.9088         19.8289 
        1.31312         92.5167         19.6139 
        1.31925          92.114         19.4027 
        1.32537         91.6731          19.195 
        1.33151         90.8169         18.9895 
        1.33765         90.3811         18.7872 
        1.34378         89.8335         18.5882 
        1.34992         89.6072          18.392 
        1.35606         89.1131         18.1983 
         1.3622         88.3192         18.0077 
        1.36833         88.1958         17.8202 
        1.37445         87.5701         17.6356 
        1.38059         86.9953          17.453 
        1.38675         86.5481         17.2726 
        1.39288         86.0262         17.0955 
        1.39901         85.9473          16.921 
        1.40515         85.4768         16.7485 
         1.4113          84.755         16.5785 
        1.41742         84.5926         16.4115 
        1.42355          83.907         16.2465 
         1.4297          83.546         16.0833 
        1.43585         82.9755         15.9225 
        1.44198         82.7658         15.7644 
        1.44809         82.2167         15.6088 
        1.45423         81.8491         15.4548 
        1.46036         81.5274         15.3031 
        1.46649         81.0233         15.1534 
        1.47263         80.6242         15.0056 
        1.47877         80.3724         14.8599 
        1.48491         79.8882         14.7158 
        1.49104         79.3828          14.574 
        1.49718          78.958          14.434 
        1.50333         78.5825         14.2956 
        1.50947         78.0764         14.1593 
         1.5156         77.8853          14.025 
        1.52172         77.4203         13.8924 
        1.52787         77.2115         13.7613 
          1.534         76.8054         13.6321 
        1.54013         76.2574         13.5047 
        1.54627         75.9568         13.3786 
        1.55241         75.4921         13.2542 
        1.55855         75.1008         13.1316 
        1.56467         74.6037         13.0108 
         1.5708         74.4633         12.8912 
        1.57695         74.1766          12.773 
        1.58308         73.6342         12.6565 
        1.58922          73.491         12.5414 
        1.59535         73.1943         12.4278 
         1.6015         72.5668         12.3155 
        1.60764         72.4179         12.2046 
        1.61376         71.9231         12.0953 
        1.61989         71.5329         11.9874 
        1.62604         71.3214         11.8805 
        1.63218         71.0971          11.775 
        1.63831         70.6318          11.671 
        1.64444         70.3288         11.5683 
        1.65059         69.7431         11.4665 
        1.65673         69.6005         11.3661 
        1.66285         69.2576         11.2672 
        1.66898         68.9092         11.1694 
        1.67512         68.4692         11.0726 
        1.68127         68.1316         10.9769 
         1.6874          67.915         10.8825 
        1.69353         67.5592         10.7893 
        1.69967         67.2238          10.697 
        1.70581         67.0804         10.6057 
        1.71193         66.7536         10.5159 
        1.71806         66.1685          10.427 
        1.72421         66.0923         10.3389 
        1.73035         65.6435         10.2519 
        1.73649         65.2519          10.166 
        1.74262         65.0926         10.0811 
        1.74876         64.8129         9.99715 
        1.75489         64.4019         9.91431 
        1.76101         64.2091         9.83245 
        1.76715         63.7773          9.7514 
        1.77329         63.5446         9.67117 
        1.77943         63.2719         9.59182 
        1.78557         63.0479         9.51347 
        1.79171         62.6623           9.436 
        1.79785         62.4432         9.35937 
        1.80399          62.072         9.28362 
        1.81012         61.9447         9.20881 
        1.81625         61.3563         9.13486 
        1.82239         61.1753         9.06162 
        1.82853         60.7645         8.98922 
        1.83466         60.6448         8.91768 
        1.84078         60.1518         8.84701 
        1.84692         59.9634         8.77698 
        1.85306         59.7461         8.70764 
         1.8592         59.3755         8.63916 
        1.86533          59.146         8.57145 
        1.87147         58.8733          8.5044 
        1.87761         58.6615         8.43804 
        1.88375         58.4506         8.37247 
        1.88988         58.3162         8.30767 
        1.89601         57.7984         8.24352 
        1.90215         57.5852            8.18 
        1.90829         57.4133         8.11719 
        1.91442         57.1008         8.05503 
        1.92056         56.8023         7.99359 
         1.9267         56.4503         7.93272 
        1.93284         56.2184         7.87245 
        1.93897         56.0061         7.81293 
        1.94509         55.6521         7.75415 
        1.95123         55.5391         7.69582 
        1.95737          55.281         7.63806 
        1.96349         54.9871         7.58105 
        1.96964         54.8075         7.52445 
        1.97578         54.4787          7.4684 
        1.98192         54.2786         7.41304 
        1.98805         54.0813         7.35824 
        1.99419         53.6976           7.304 
        2.00033         53.4799         7.25027 
        2.00647         53.3111         7.19711 
         2.0126         52.9948         7.14456 
        2.01874          52.748         7.09247 
        2.02488         52.6164         7.04085 
        2.03101         52.2659         6.98984 
        2.03714         52.0424         6.93939 
        2.04328         51.7632         6.88938 
        2.04941          51.504         6.83991 
        2.05554         51.2214         6.79096 
        2.06167         51.1849         6.74242 
        2.06781          50.888         6.69436 
        2.07396         50.5856         6.64669 
        2.08009         50.4371         6.59958 
        2.08622         50.0987         6.55298 
        2.09237         49.9171         6.50673 
        2.09851         49.6492         6.46093 
        2.10464         49.4608         6.41565 
        2.11077         49.3032         6.37085 
        2.11691         49.0054         6.32639 
        2.12305         48.6989         6.28235 
        2.12918          48.546         6.23884 
        2.13531         48.3302         6.19574 
        2.14145         48.1541         6.15294 
         2.1476         47.9325         6.11051 
        2.15372         47.6369         6.06868 
        2.15985         47.5138         6.02721 
        2.16599         47.3625         5.98601 
        2.17213          47.253         5.94525 
        2.17827         46.8538         5.90487 
         2.1844         46.5891          5.8649 
        2.19054         46.3925          5.8253 
        2.19666         46.2362         5.78611 
         2.2028         46.0534         5.74726 
        2.20893         45.8821         5.70874 
        2.21508         45.6766         5.67053 
        2.22122         45.4118         5.63267 
        2.22736         45.1775         5.59522 
        2.23349          45.059         5.55813 
        2.23962         44.7571         5.52136 
        2.24577         44.5616         5.48489 
         2.2519         44.3635          5.4488 
        2.25802         44.3146         5.41309 
        2.26417         44.0087          5.3776 
        2.27031         43.8704          5.3424 
        2.27644         43.5207         5.30762 
        2.28257         43.4338         5.27315 
        2.28872         43.1476         5.23893 
        2.29486         43.0335         5.20501 
        2.30099         42.8688         5.17147 
        2.30712         42.6549         5.13821 
        2.31326         42.5059         5.10518 
         2.3194         42.2766         5.07247 
        2.32553         42.0983          5.0401 
        2.33166         41.8856         5.00803 
         2.3378         41.7137         4.97619 
        2.34394         41.4181         4.94462 
        2.35007         41.2913         4.91337 
        2.35619          41.252         4.88243 
        2.36233         41.0456         4.85168 
        2.36848         40.7295         4.82114 
        2.37462          40.707         4.79092 
        2.38075         40.4205           4.761 
        2.38689          40.337          4.7313 
        2.39303         40.1343         4.70186 
        2.39916         39.9257         4.67271 
        2.40529         39.6483         4.64381 
        2.41143         39.5692         4.61513 
        2.41757         39.4273         4.58668 
         2.4237         39.2374         4.55852 
        2.42983         39.0841          4.5306 
        2.43598         38.8483         4.50285 
        2.44211         38.7359         4.47537 
        2.44823         38.5432         4.44818 
        2.45437         38.4278         4.42115 
        2.46052         38.1928         4.39432 
        2.46665         38.0696         4.36776 
        2.47279          37.915         4.34143 
        2.47892          37.664          4.3153 
        2.48507         37.5365         4.28936 
         2.4912         37.3673         4.26368 
