# k  (h/Mpc)    P(k)  (Mpc/h)^3    P_linear(k)  (Mpc/h)^3
     0.00783031           10299         10471.8 
       0.013688         13263.1         13198.6 
       0.019231         13680.9         13689.1 
      0.0249154         12770.8         13024.9 
      0.0312784           11529         11662.4 
      0.0375637         10191.1         10222.5 
      0.0433917         8895.45         9065.59 
      0.0492413         8077.66         8156.73 
      0.0555754          7207.5         7429.28 
      0.0619321         6862.54         6876.25 
       0.067871         6249.76         6427.36 
      0.0738098         5807.85         5978.13 
      0.0800417         5260.43         5476.17 
      0.0862327         4815.57         4955.92 
      0.0921407         4409.03         4471.56 
      0.0982031         3950.55         4023.36 
       0.104506         3677.92         3636.76 
       0.110769         3380.44         3340.02 
       0.116806         3151.49         3125.52 
       0.122832         2998.71         2959.63 
       0.129052         2794.47         2812.71 
       0.135211         2660.57         2669.07 
       0.141259         2550.14         2517.31 
       0.147318         2409.24         2353.17 
       0.153489         2217.43         2180.91 
       0.159709         2093.03         2014.08 
       0.165845         2000.03         1866.97 
       0.171974         1874.82         1743.64 
       0.178125         1778.74         1644.18 
       0.184229         1703.99         1565.43 
        0.19034         1601.91         1499.62 
       0.196428         1575.32         1439.66 
       0.202534         1523.05         1379.29 
       0.208729         1454.03         1314.68 
       0.214876         1387.07         1247.24 
       0.220989         1343.62         1179.26 
       0.227147         1277.28         1113.27 
        0.23329         1225.59         1053.04 
       0.239377         1201.85         1000.64 
       0.245482          1124.1         955.599 
       0.251667         1115.92         916.489 
       0.257832         1074.27         882.045 
       0.263955         1040.23         850.156 
       0.270079         1005.33         818.867 
        0.27624         995.196          787.06 
       0.282372          952.97         754.969 
        0.28843          939.19         723.428 
       0.294538         893.086         692.646 
       0.300721         889.412         663.422 
        0.30691         850.552         636.641 
       0.313033         834.493         612.734 
       0.319153         814.931         591.117 
       0.325316         789.515         571.134 
        0.33145         769.991         552.402 
       0.337538          759.86         534.459 
       0.343633         738.385         516.803 
       0.349808         714.321          499.17 
       0.355968         709.941         481.904 
       0.362074         699.252         465.342 
       0.368217         679.541         449.447 
       0.374374         652.312          434.44 
       0.380519         649.985         420.452 
       0.386598         634.265         407.508 
       0.392688         631.957         395.323 
        0.39888         613.406         383.549 
       0.405048          603.12         372.278 
       0.411186         593.369         361.414 
       0.417313          582.18          350.85 
       0.423458         572.726         340.546 
       0.429607         562.538         330.569 
       0.435692         550.156         321.067 
       0.441815         546.554         311.914 
       0.447964         535.298         303.161 
       0.454126          523.52         294.807 
       0.460267         515.196         286.864 
       0.466387         509.653         279.286 
        0.47254         500.489         271.953 
       0.478662         499.193         264.897 
       0.484765          484.17         258.082 
       0.490885         480.062          251.46 
       0.497035         471.199         245.011 
       0.503198         464.993         238.766 
       0.509342         461.308         232.762 
       0.515458         457.195         227.012 
       0.521598         447.483         221.455 
       0.527764         438.965         216.081 
       0.533884         437.241          210.94 
           0.54         431.449          205.98 
       0.546137         429.895         201.163 
       0.552299         421.542         196.474 
       0.558452         419.207         191.935 
       0.564573          412.77         187.557 
       0.570708         406.713         183.304 
       0.576825         398.484         179.195 
       0.582926         397.153         175.227 
       0.589034         393.533         171.379 
       0.595184         389.936         167.629 
       0.601379         385.486         163.972 
       0.607522         379.503         160.457 
       0.613639         378.334         157.062 
       0.619772         369.071         153.755 
       0.625918         368.202         150.537 
       0.632068         362.934         147.408 
       0.638161         361.615         144.396 
         0.6443         355.166         141.448 
       0.650464         352.654         138.572 
       0.656582         351.326         135.798 
       0.662703         348.869         133.101 
       0.668861         342.725         130.463 
       0.675024         339.637         127.896 
       0.681124         337.939         125.426 
       0.687237         334.366         123.018 
       0.693381         329.755         120.661 
       0.699536         326.738         118.363 
       0.705665         324.719         116.135 
       0.711789         321.801         113.966 
       0.717957         319.529         111.839 
        0.72409         316.498         109.778 
       0.730186         313.363         107.782 
       0.736317         310.275         105.826 
       0.742472         309.074         103.912 
       0.748622         306.191         102.049 
        0.75476         303.471         100.235 
       0.760888         299.784          98.469 
       0.767043         300.022          96.739 
       0.773185         296.021         95.0545 
       0.779291         291.449         93.4201 
       0.785407         290.731         91.8223 
       0.791564          287.66         90.2521 
       0.797719         285.244         88.7199 
       0.803834          283.43         87.2335 
       0.809972         281.712         85.7763 
       0.816124         281.911         84.3496 
       0.822261         277.292         82.9597 
       0.828378          275.61         81.6057 
       0.834502         274.721         80.2811 
       0.840667         270.815         78.9778 
       0.846816         269.603         77.7073 
       0.852925         267.927         76.4731 
       0.859047         266.084         75.2634 
       0.865192         263.671         74.0761 
       0.871341         261.458         72.9139 
       0.877463         259.818         71.7822 
       0.883569         258.517         70.6775 
       0.889708         256.204         69.5907 
       0.895864         253.135         68.5241 
       0.902008         252.603         67.4824 
       0.908149         251.437         66.4631 
       0.914301         248.338         65.4633 
       0.920448         246.553         64.4853 
       0.926574         245.117         63.5308 
       0.932687         245.037         62.5979 
       0.938823         242.079         61.6805 
       0.944975         240.613         60.7796 
       0.951105         239.411            59.9 
       0.957225         237.211         59.0396 
       0.963368         234.513         58.1933 
       0.969511          233.54         57.3637 
       0.975621         231.637         56.5548 
       0.981748         231.892         55.7597 
       0.987916         229.302          54.975 
        0.99406         227.035         54.2085 
        1.00019         227.133         53.4583 
        1.00632         225.094         52.7231 
        1.01246         223.452         52.0008 
        1.01859         222.967         51.2933 
        1.02471         220.664            50.6 
        1.03085         218.388         49.9173 
        1.03698         217.567         49.2487 
        1.04314         215.991         48.5897 
        1.04929         214.416         47.9444 
        1.05541         214.234         47.3135 
        1.06154          212.09         46.6925 
        1.06769         211.801         46.0819 
        1.07382         210.187         45.4842 
        1.07993         208.394         44.8987 
        1.08607         207.651         44.3211 
        1.09222         206.449         43.7532 
        1.09836         204.627          43.196 
        1.10449         202.802         42.6492 
        1.11063         201.246         42.1113 
        1.11677         201.068          41.583 
         1.1229         199.356         41.0647 
        1.12903         198.339         40.5549 
        1.13518         197.467         40.0534 
        1.14131         195.718         39.5607 
        1.14745         195.387         39.0766 
        1.15359         193.753         38.6006 
        1.15973         193.175         38.1324 
        1.16584          191.09         37.6741 
        1.17197         190.626         37.2227 
        1.17811         189.344         36.7774 
        1.18424         188.281         36.3407 
        1.19038         187.773         35.9098 
        1.19652         186.366         35.4862 
        1.20267         185.638         35.0695 
        1.20881         183.911         34.6596 
        1.21495         183.198         34.2569 
        1.22108          182.38         33.8607 
         1.2272         180.763         33.4718 
        1.23334         180.029         33.0881 
        1.23949         178.625         32.7096 
        1.24562         177.931         32.3382 
        1.25174         175.877         31.9731 
        1.25789         175.212         31.6125 
        1.26402         174.445         31.2582 
        1.27014         173.292         30.9103 
        1.27628         172.529         30.5666 
        1.28244         172.065         30.2276 
        1.28858          170.79         29.8942 
        1.29471         169.053         29.5666 
        1.30084         168.529         29.2443 
        1.30697          167.53         28.9263 
        1.31312         166.842         28.6126 
        1.31925          165.79         28.3046 
        1.32537         164.953         28.0015 
        1.33151         163.425         27.7018 
        1.33765         163.043         27.4066 
        1.34378         161.993         27.1164 
        1.34992         161.393         26.8302 
        1.35606         160.691         26.5476 
         1.3622         159.498         26.2695 
        1.36833         158.376         25.9961 
        1.37445         157.385         25.7267 
        1.38059         156.906         25.4604 
        1.38675         155.836         25.1972 
        1.39288         155.272         24.9389 
        1.39901         154.932         24.6842 
        1.40515         153.607         24.4326 
         1.4113         152.186         24.1846 
        1.41742         151.834          23.941 
        1.42355         150.742         23.7004 
         1.4297         150.011         23.4623 
        1.43585         148.712         23.2276 
        1.44198         148.584         22.9971 
        1.44809         147.568         22.7701 
        1.45423           146.5         22.5454 
        1.46036             146         22.3241 
        1.46649           145.1         22.1057 
        1.47263         144.502         21.8901 
        1.47877         143.758         21.6775 
        1.48491         142.392         21.4674 
        1.49104          142.11         21.2605 
        1.49718         140.694         21.0562 
        1.50333         140.309         20.8543 
        1.50947          139.76         20.6555 
         1.5156         138.822         20.4596 
        1.52172         137.987         20.2662 
        1.52787         137.332         20.0749 
          1.534         136.626         19.8864 
        1.54013         135.588         19.7005 
        1.54627          135.18         19.5167 
        1.55241         134.191         19.3352 
        1.55855          133.61         19.1563 
        1.56467         133.082         18.9801 
         1.5708         132.122         18.8057 
        1.57695         131.601         18.6332 
        1.58308         130.811         18.4633 
        1.58922         130.404         18.2954 
        1.59535         129.411         18.1296 
         1.6015         128.914         17.9657 
        1.60764         128.152          17.804 
        1.61376         127.759         17.6446 
        1.61989          126.77         17.4871 
        1.62604         126.273         17.3312 
        1.63218         125.582         17.1773 
        1.63831         124.699         17.0256 
        1.64444         124.333         16.8757 
        1.65059         123.681         16.7273 
        1.65673         122.524         16.5808 
        1.66285         122.479         16.4365 
        1.66898         121.653         16.2939 
        1.67512         121.111         16.1527 
        1.68127         120.266          16.013 
         1.6874         119.362         15.8753 
        1.69353         118.949         15.7394 
        1.69967         118.515         15.6047 
        1.70581         117.782         15.4716 
        1.71193         117.381         15.3406 
        1.71806          116.54         15.2108 
        1.72421         115.978         15.0823 
        1.73035         115.435         14.9555 
        1.73649         114.676         14.8301 
        1.74262         114.166         14.7063 
        1.74876          113.74         14.5838 
        1.75489          112.69         14.4629 
        1.76101         112.395         14.3435 
        1.76715         111.513         14.2253 
        1.77329           111.3         14.1083 
        1.77943         110.443         13.9925 
        1.78557         110.033         13.8782 
        1.79171         109.327         13.7652 
        1.79785         108.834         13.6534 
        1.80399         108.281         13.5429 
        1.81012         107.799         13.4338 
        1.81625         107.123         13.3259 
        1.82239         106.847          13.219 
        1.82853         106.366         13.1134 
        1.83466           105.5         13.0091 
        1.84078         105.381          12.906 
        1.84692         104.433         12.8038 
        1.85306         103.837         12.7027 
         1.8592         103.358         12.6028 
        1.86533         102.894          12.504 
        1.87147          102.06         12.4062 
        1.87761         101.841         12.3094 
        1.88375         101.184         12.2137 
        1.88988         100.639         12.1192 
        1.89601          100.16         12.0256 
        1.90215         99.7859         11.9329 
        1.90829         99.1443         11.8413 
        1.91442          98.822         11.7506 
        1.92056         98.0627          11.661 
         1.9267         97.7542         11.5722 
        1.93284          97.137         11.4843 
        1.93897         96.6166         11.3975 
        1.94509         96.3249         11.3117 
        1.95123         95.7282         11.2266 
        1.95737          95.385         11.1424 
        1.96349         94.6678         11.0592 
        1.96964         94.0418         10.9766 
        1.97578         93.9004         10.8949 
        1.98192         93.3197         10.8141 
        1.98805         92.5988         10.7342 
        1.99419         92.2432          10.655 
        2.00033         91.8726         10.5767 
        2.00647         91.3905         10.4991 
         2.0126         90.8725         10.4224 
        2.01874         90.3292         10.3465 
        2.02488         89.8855         10.2711 
        2.03101         89.5459         10.1967 
        2.03714         88.9019         10.1231 
        2.04328         88.5664         10.0502 
        2.04941         88.0429         9.97802 
        2.05554         87.7764         9.90661 
        2.06167         87.2081         9.83581 
        2.06781         86.7153         9.76569 
        2.07396         86.2882         9.69616 
        2.08009         85.8759         9.62743 
        2.08622         85.5751         9.55944 
        2.09237         84.9858         9.49198 
        2.09851         84.7482         9.42517 
        2.10464         84.1903         9.35911 
        2.11077         83.7605         9.29376 
        2.11691         83.4535          9.2289 
        2.12305         82.9017         9.16465 
        2.12918         82.5165         9.10118 
        2.13531         82.1722          9.0383 
        2.14145         81.5023         8.97588 
         2.1476         81.2589         8.91397 
        2.15372         80.8413         8.85296 
        2.15985         80.4292         8.79246 
        2.16599         80.1166         8.73236 
        2.17213         79.6506         8.67289 
        2.17827         79.2523         8.61399 
         2.1844         78.8064         8.55569 
        2.19054          78.574         8.49791 
        2.19666         78.0645         8.44075 
         2.2028         77.9141         8.38406 
        2.20893         77.3022         8.32787 
        2.21508         76.8368         8.27214 
        2.22122         76.6829          8.2169 
        2.22736         76.1842         8.16228 
        2.23349         75.8522         8.10817 
        2.23962         75.3359         8.05452 
        2.24577         74.9448         8.00132 
         2.2519         74.7656         7.94867 
        2.25802         74.3156         7.89658 
        2.26417         73.8518         7.84481 
        2.27031         73.5701         7.79346 
        2.27644         73.2469         7.74273 
        2.28257         72.7622         7.69244 
        2.28872         72.4913         7.64251 
        2.29486         72.1253         7.59304 
        2.30099         71.6852         7.54411 
        2.30712         71.5026         7.49559 
        2.31326         71.0276         7.44741 
         2.3194          70.798         7.39969 
        2.32553         70.2825         7.35247 
        2.33166         69.9098         7.30568 
         2.3378         69.6317         7.25923 
        2.34394         69.2527         7.21318 
        2.35007         68.8232         7.16759 
        2.35619         68.5038         7.12246 
        2.36233         68.2669          7.0776 
        2.36848         67.9601         7.03305 
        2.37462          67.593         6.98897 
        2.38075         67.3343         6.94531 
        2.38689         66.9281         6.90199 
        2.39303         66.6734         6.85905 
        2.39916         66.3914         6.81652 
        2.40529         65.9938         6.77435 
        2.41143         65.6661         6.73252 
        2.41757         65.3701         6.69101 
         2.4237         65.1005         6.64994 
        2.42983         64.6334         6.60921 
        2.43598         64.3658         6.56872 
        2.44211         64.0617         6.52864 
        2.44823           63.78         6.48898 
        2.45437         63.3989         6.44954 
        2.46052         63.0487          6.4104 
        2.46665         62.7933         6.37166 
        2.47279         62.4836         6.33325 
        2.47892         62.2267         6.29513 
        2.48507         61.8814         6.25729 
         2.4912         61.7212         6.21983 
