# k  (h/Mpc)    Pcb(k)  (Mpc/h)^3    Pcb_linear(k)  (Mpc/h)^3
     0.00783031         14470.5         14569.5 
       0.013688         15697.2         16069.8 
       0.019231         14439.3         14617.3 
      0.0249154         12120.9         12029.7 
      0.0312784         9134.79         9137.68 
      0.0375637         6929.58         6963.99 
      0.0433917         5705.05         5668.08 
      0.0492413         4929.42         4925.02 
      0.0555754         4548.85         4507.04 
      0.0619321         4156.35         4238.14 
       0.067871         3931.08          3950.4 
      0.0738098         3563.06         3554.69 
      0.0800417         3082.62         3047.42 
      0.0862327         2569.96         2536.27 
      0.0921407         2183.78          2122.1 
      0.0982031         1907.26         1815.34 
       0.104506         1680.54         1624.44 
       0.110769         1591.33         1532.68 
       0.116806         1558.96         1492.26 
       0.122832         1495.93         1454.96 
       0.129052         1420.89         1386.26 
       0.135211         1341.26         1277.21 
       0.141259         1197.13         1142.35 
       0.147318         1061.79         1003.44 
       0.153489          955.01         881.189 
       0.159709         887.502         791.072 
       0.165845         810.362         736.063 
       0.171974         797.691         707.061 
       0.178125         774.148         691.443 
       0.184229         730.833         676.246 
        0.19034         714.752         651.747 
       0.196428         684.185         614.771 
       0.202534         624.328         568.076 
       0.208729         600.238           517.9 
       0.214876         560.934         472.637 
       0.220989         519.024         436.875 
       0.227147         502.744          411.54 
        0.23329         482.172         395.244 
       0.239377         477.213         384.356 
       0.245482         453.539          374.64 
       0.251667           436.5         362.694 
       0.257832         428.615         347.048 
       0.263955         402.235          328.25 
       0.270079         382.649         308.005 
        0.27624         364.636         288.431 
       0.282372           353.7         271.577 
        0.28843         348.284          258.27 
       0.294538         329.919         248.083 
       0.300721         319.775         240.094 
        0.30691         313.701         233.147 
       0.313033         298.744         226.118 
       0.319153         293.681         218.242 
       0.325316         286.529         209.306 
        0.33145         277.708         199.828 
       0.337538         266.142         190.466 
       0.343633         257.858          181.79 
       0.349808         249.884         174.082 
       0.355968         244.719         167.613 
       0.362074         235.871         162.167 
       0.368217          233.01         157.317 
       0.374374         227.522         152.688 
       0.380519         217.873         147.973 
       0.386598         214.488         143.119 
       0.392688         207.759         138.074 
        0.39888         203.247         132.929 
       0.405048         197.865         128.008 
       0.411186         196.273         123.457 
       0.417313         192.237         119.344 
       0.423458         187.044          115.65 
       0.429607          181.25         112.271 
       0.435692         178.489         109.127 
       0.441815         174.478         106.062 
       0.447964         169.704         102.994 
       0.454126         167.155         99.9052 
       0.460267         164.723         96.8549 
       0.466387         160.125         93.8916 
        0.47254         158.397         91.0324 
       0.478662          153.89         88.3515 
       0.484765         151.241         85.8635 
       0.490885         148.717         83.5314 
       0.497035         146.412         81.3092 
       0.503198         144.838         79.1712 
       0.509342         141.271         77.1037 
       0.515458         138.598         75.0892 
       0.521598         135.236         73.0979 
       0.527764         134.102         71.1394 
       0.533884         132.711         69.2582 
           0.54         129.792         67.4569 
       0.546137         126.701          65.733 
       0.552299         124.871         64.0793 
       0.558452         122.862         62.4987 
       0.564573         122.389         60.9885 
       0.570708         118.878         59.5288 
       0.576825         117.367         58.1181 
       0.582926         116.177          56.747 
       0.589034         114.046         55.4064 
       0.595184         112.726         54.0915 
       0.601379         110.845          52.808 
       0.607522         107.992         51.5801 
       0.613639         107.417         50.4035 
       0.619772         105.903         49.2677 
       0.625918         104.985         48.1684 
       0.632068         102.358         47.1029 
       0.638161          101.89         46.0778 
         0.6443         100.653         45.0732 
       0.650464         98.6892          44.093 
       0.656582         97.8611          43.148 
       0.662703         97.0736         42.2302 
       0.668861         94.8842         41.3343 
       0.675024         94.6855         40.4646 
       0.681124         93.0802         39.6292 
       0.687237         92.1863         38.8162 
       0.693381         90.4001         38.0225 
       0.699536         89.9072         37.2496 
       0.705665         88.8526         36.5016 
       0.711789         87.4374         35.7747 
       0.717957         86.4791         35.0627 
        0.72409         85.3534         34.3741 
       0.730186         85.1722         33.7082 
       0.736317         84.1108         33.0565 
       0.742472         82.5647         32.4199 
       0.748622         81.4026         31.8008 
        0.75476         81.4895         31.1993 
       0.760888         80.4533         30.6143 
       0.767043         78.9386         30.0421 
       0.773185         77.8942         29.4857 
       0.779291         77.3316         28.9465 
       0.785407         76.7856         28.4199 
       0.791564         75.9632         27.9031 
       0.797719         74.6976         27.3994 
       0.803834         74.6464         26.9113 
       0.809972          73.854         26.4334 
       0.816124         72.4999         25.9661 
       0.822261          71.948         25.5114 
       0.828378         71.6098          25.069 
       0.834502         71.0136         24.6368 
       0.840667         70.3804         24.2121 
       0.846816         69.4071         23.7986 
       0.852925          68.828         23.3975 
       0.859047           68.19         23.0048 
       0.865192         67.5925         22.6198 
       0.871341         67.0537         22.2435 
       0.877463         66.2907         21.8774 
       0.883569         66.2843         21.5205 
       0.889708         65.5372         21.1698 
       0.895864         64.9149          20.826 
       0.902008         64.0987         20.4905 
       0.908149         63.4126         20.1627 
       0.914301         63.1476         19.8415 
       0.920448         63.0892         19.5277 
       0.926574         61.7485         19.2217 
       0.932687         61.6023          18.923 
       0.938823          61.236         18.6295 
       0.944975         60.5926         18.3416 
       0.951105         60.0091         18.0608 
       0.957225         59.6894         17.7865 
       0.963368         59.1026         17.5168 
       0.969511         58.7648         17.2528 
       0.975621         57.9104         16.9957 
       0.981748         57.7312         16.7431 
       0.987916         57.1118         16.4941 
        0.99406         56.9424         16.2511 
        1.00019         56.3265         16.0135 
        1.00632         55.7963         15.7809 
        1.01246         55.5383         15.5525 
        1.01859         55.1744          15.329 
        1.02471         54.8492         15.1102 
        1.03085         54.2541         14.8949 
        1.03698          53.896         14.6843 
        1.04314         53.5288         14.4769 
        1.04929         53.2531         14.2739 
        1.05541         52.6753         14.0757 
        1.06154         52.2815         13.8807 
        1.06769         51.9253         13.6892 
        1.07382         51.5566         13.5019 
        1.07993         51.3618         13.3185 
        1.08607         50.9337         13.1378 
        1.09222         50.6305         12.9602 
        1.09836           50.24         12.7861 
        1.10449         49.9007         12.6155 
        1.11063           49.56         12.4477 
        1.11677         49.4539         12.2831 
         1.1229         48.8161         12.1218 
        1.12903         48.6023         11.9632 
        1.13518         48.1896         11.8073 
        1.14131         47.9646         11.6543 
        1.14745         47.7821         11.5041 
        1.15359         47.1956         11.3565 
        1.15973           47.12         11.2114 
        1.16584         46.8166         11.0695 
        1.17197         46.4554         10.9299 
        1.17811         46.1595         10.7923 
        1.18424         45.6696         10.6574 
        1.19038         45.5124         10.5244 
        1.19652         45.3685         10.3938 
        1.20267         44.9139         10.2654 
        1.20881         44.6013         10.1392 
        1.21495          44.393         10.0153 
        1.22108         44.2866         9.89348 
         1.2272         43.9371         9.77399 
        1.23334         43.7607         9.65619 
        1.23949         43.3205         9.54006 
        1.24562         43.0622         9.42615 
        1.25174         42.9906         9.31427 
        1.25789         42.6996         9.20387 
        1.26402         42.3386         9.09545 
        1.27014         42.1364         8.98904 
        1.27628         41.9109         8.88401 
        1.28244         41.8775         8.78046 
        1.28858         41.5049          8.6787 
        1.29471         41.1295         8.57877 
        1.30084         40.8845         8.48051 
        1.30697         40.7374         8.38364 
        1.31312         40.6002         8.28815 
        1.31925         40.2152         8.19444 
        1.32537         40.0059         8.10227 
        1.33151         39.8793         8.01119 
        1.33765         39.6272         7.92156 
        1.34378         39.3916         7.83348 
        1.34992         39.1665         7.74667 
        1.35606          38.917         7.66099 
         1.3622         38.7658         7.57676 
        1.36833         38.5808           7.494 
        1.37445         38.2922         7.41251 
        1.38059         38.0684         7.33199 
        1.38675         37.9129         7.25247 
        1.39288           37.75         7.17445 
        1.39901         37.4754          7.0976 
        1.40515         37.2387         7.02171 
         1.4113         37.1839         6.94696 
        1.41742         36.9265         6.87358 
        1.42355         36.7508         6.80112 
         1.4297         36.6026         6.72949 
        1.43585         36.5071         6.65892 
        1.44198         36.1442         6.58962 
        1.44809         35.9159         6.52145 
        1.45423          35.892         6.45398 
        1.46036         35.7002         6.38759 
        1.46649         35.4165         6.32211 
        1.47263          35.225         6.25749 
        1.47877         35.0387          6.1938 
        1.48491         34.7955          6.1309 
        1.49104         34.7892         6.06901 
        1.49718         34.5405         6.00792 
        1.50333         34.4297         5.94758 
        1.50947         34.1842         5.88818 
         1.5156         34.0956         5.82968 
        1.52172         33.8523         5.77198 
        1.52787         33.7899         5.71494 
          1.534         33.5086         5.65874 
        1.54013          33.488         5.60335 
        1.54627         33.1909          5.5486 
        1.55241         33.1269         5.49457 
        1.55855         32.9327         5.44133 
        1.56467         32.6225         5.38895 
         1.5708         32.6945          5.3371 
        1.57695         32.4411         5.28586 
        1.58308           32.31         5.23541 
        1.58922         32.1011         5.18558 
        1.59535         32.0894         5.13641 
         1.6015         31.9569         5.08782 
        1.60764         31.7473         5.03987 
        1.61376         31.5657         4.99267 
        1.61989         31.3564         4.94604 
        1.62604         31.2215          4.8999 
        1.63218         31.0251         4.85438 
        1.63831         30.9475         4.80954 
        1.64444         30.8166         4.76525 
        1.65059          30.664          4.7214 
        1.65673         30.5491         4.67816 
        1.66285         30.4067         4.63558 
        1.66898         30.2682         4.59351 
        1.67512         30.0283         4.55189 
        1.68127         30.0197         4.51074 
         1.6874         29.9121         4.47019 
        1.69353         29.7001         4.43016 
        1.69967         29.5888         4.39053 
        1.70581         29.4829         4.35139 
        1.71193         29.2579         4.31289 
        1.71806         29.2117         4.27476 
        1.72421         28.9952         4.23702 
        1.73035         28.9864         4.19978 
        1.73649         28.8014         4.16299 
        1.74262         28.6425         4.12667 
        1.74876         28.6395         4.09076 
        1.75489         28.4275         4.05535 
        1.76101         28.3957         4.02037 
        1.76715         28.1738         3.98575 
        1.77329         28.0379          3.9515 
        1.77943          27.959         3.91763 
        1.78557         27.8642         3.88421 
        1.79171         27.7055         3.85117 
        1.79785         27.5921         3.81851 
        1.80399         27.4536         3.78623 
        1.81012         27.3243         3.75437 
        1.81625         27.2324         3.72289 
        1.82239         27.0739         3.69172 
        1.82853         27.0035         3.66092 
        1.83466         26.8207          3.6305 
        1.84078         26.7463         3.60046 
        1.84692          26.622         3.57071 
        1.85306         26.5254         3.54126 
         1.8592         26.3284         3.51218 
        1.86533         26.2944         3.48345 
        1.87147         26.1468         3.45501 
        1.87761         26.1171         3.42687 
        1.88375         25.9484         3.39907 
        1.88988         25.7676         3.37162 
        1.89601         25.7542         3.34445 
        1.90215         25.6483         3.31755 
        1.90829         25.5104         3.29097 
        1.91442         25.4102         3.26467 
        1.92056          25.284         3.23869 
         1.9267         25.1968         3.21296 
        1.93284         25.1574         3.18749 
        1.93897         25.0168         3.16235 
        1.94509         24.9398         3.13753 
        1.95123         24.7879         3.11291 
        1.95737         24.7271         3.08854 
        1.96349         24.6364         3.06449 
        1.96964         24.5455         3.04063 
        1.97578         24.3982         3.01701 
        1.98192          24.311         2.99369 
        1.98805         24.1734         2.97062 
        1.99419         24.0737         2.94778 
        2.00033         23.9756         2.92517 
        2.00647         23.8862         2.90281 
         2.0126         23.8197         2.88072 
        2.01874         23.7241         2.85882 
        2.02488         23.5806         2.83713 
        2.03101         23.5263         2.81571 
        2.03714         23.4484         2.79452 
        2.04328         23.3542         2.77353 
        2.04941         23.1732         2.75277 
        2.05554         23.1295         2.73224 
        2.06167         23.0202         2.71189 
        2.06781         22.9334         2.69174 
        2.07396         22.8467         2.67177 
        2.08009         22.7276         2.65203 
        2.08622         22.6697         2.63252 
        2.09237         22.5833         2.61316 
        2.09851         22.4935         2.59399 
        2.10464         22.4328         2.57505 
        2.11077         22.3428         2.55632 
        2.11691         22.2035         2.53773 
        2.12305         22.1134         2.51933 
        2.12918         22.0918         2.50115 
        2.13531         21.8798         2.48315 
        2.14145         21.8799         2.46529 
         2.1476         21.7719         2.44757 
        2.15372         21.7265         2.43013 
        2.15985         21.6032         2.41283 
        2.16599         21.4872         2.39565 
        2.17213         21.5199         2.37866 
        2.17827         21.3749         2.36184 
         2.1844          21.275         2.34519 
        2.19054         21.2107          2.3287 
        2.19666         21.0976         2.31239 
         2.2028         21.0296         2.29622 
        2.20893         20.9722         2.28019 
        2.21508         20.8937          2.2643 
        2.22122         20.8037         2.24856 
        2.22736         20.7137           2.233 
        2.23349         20.6795         2.21759 
        2.23962         20.5861         2.20231 
        2.24577         20.5118         2.18717 
         2.2519         20.4099         2.17219 
        2.25802         20.3015         2.15737 
        2.26417         20.1955         2.14265 
        2.27031         20.1322         2.12805 
        2.27644         20.0888         2.11363 
        2.28257         20.0336         2.09935 
        2.28872         19.9158         2.08517 
        2.29486         19.8695         2.07112 
        2.30099         19.7997         2.05723 
        2.30712         19.7271         2.04346 
        2.31326         19.6274         2.02979 
         2.3194         19.5479         2.01626 
        2.32553         19.5148         2.00287 
        2.33166         19.4108         1.98961 
         2.3378         19.3358         1.97645 
        2.34394         19.2916         1.96341 
        2.35007         19.1803          1.9505 
        2.35619         19.1157         1.93772 
        2.36233         19.0542         1.92503 
        2.36848         19.0086         1.91242 
        2.37462         18.9619         1.89995 
        2.38075         18.8482         1.88761 
        2.38689         18.7974         1.87536 
        2.39303         18.6842         1.86323 
        2.39916         18.6394         1.85121 
        2.40529         18.5661          1.8393 
        2.41143         18.5302         1.82749 
        2.41757          18.413         1.81577 
         2.4237         18.3493         1.80418 
        2.42983         18.2464         1.79269 
        2.43598         18.2122         1.78127 
        2.44211         18.1312         1.76997 
        2.44823         18.0688         1.75879 
        2.45437         18.0204         1.74767 
        2.46052         17.9371         1.73665 
        2.46665          17.895         1.72573 
        2.47279         17.7791         1.71492 
        2.47892         17.8073         1.70419 
        2.48507         17.6641         1.69354 
         2.4912         17.6139           1.683 
