# k  (h/Mpc)    Pcb(k)  (Mpc/h)^3    Pcb_linear(k)  (Mpc/h)^3
     0.00783031         11269.6         11424.8 
       0.013688         13800.5         13701.3 
       0.019231         13519.2         13486.7 
      0.0249154         11922.4         12119.6 
      0.0312784         10143.2           10212 
      0.0375637         8573.63         8548.63 
      0.0433917         7323.38          7406.6 
      0.0492413         6607.14         6628.25 
      0.0555754         5930.46         6066.04 
      0.0619321         5650.39         5624.59 
       0.067871         5104.22         5202.97 
      0.0738098         4637.93         4723.25 
      0.0800417         4072.95         4174.95 
      0.0862327         3606.54         3644.34 
      0.0921407         3231.73         3207.71 
      0.0982031         2870.41         2862.42 
       0.104506         2692.39         2614.03 
       0.110769         2512.64         2451.78 
       0.116806         2376.24         2336.98 
       0.122832         2270.82         2227.18 
       0.129052         2099.18         2094.32 
       0.135211         1958.11         1937.49 
       0.141259         1834.13         1769.86 
       0.147318         1695.64         1606.85 
       0.153489         1541.31         1462.97 
       0.159709          1449.8          1349.9 
       0.165845         1390.74         1269.24 
       0.171974         1318.48         1211.38 
       0.178125         1262.52         1164.61 
       0.184229         1212.57         1118.57 
        0.19034         1133.55         1066.01 
       0.196428          1102.4          1005.8 
       0.202534         1054.57         940.841 
       0.208729         992.762         876.069 
       0.214876         938.193           818.4 
       0.220989         903.578         770.712 
       0.227147         860.678         732.688 
        0.23329         827.393         702.612 
       0.239377         810.636         677.194 
       0.245482         757.533         652.735 
       0.251667          749.98         626.615 
       0.257832         720.068         598.484 
       0.263955         693.502          569.23 
       0.270079         665.493         540.215 
        0.27624         655.208         513.013 
       0.282372         627.978         489.035 
        0.28843         613.071         468.692 
       0.294538         582.598         451.099 
       0.300721         579.174         435.288 
        0.30691         552.852         420.403 
       0.313033         541.382         405.747 
       0.319153         524.844         390.812 
       0.325316         509.168          375.52 
        0.33145         493.676         360.478 
       0.337538         485.954         346.193 
       0.343633         470.357         332.932 
       0.349808         453.988         320.749 
       0.355968         449.654         309.763 
       0.362074         441.249         299.802 
       0.368217         428.768         290.365 
       0.374374         410.785         281.223 
       0.380519         407.903         272.228 
       0.386598         397.218          263.41 
       0.392688         393.975         254.745 
        0.39888         382.713         246.219 
       0.405048         374.138         238.144 
       0.411186         367.274         230.612 
       0.417313         360.187         223.579 
       0.423458          352.99         216.968 
       0.429607         346.358         210.709 
       0.435692         337.368          204.76 
       0.441815         334.404         198.947 
       0.447964         327.453          193.26 
       0.454126         317.558         187.705 
       0.460267         312.785         182.331 
       0.466387         309.145         177.181 
        0.47254         302.376         172.235 
       0.478662          301.51         167.543 
       0.484765         291.284         163.084 
       0.490885          287.99         158.814 
       0.497035         283.132         154.693 
       0.503198         277.653         150.703 
       0.509342         275.262         146.842 
       0.515458         271.693         143.114 
       0.521598         265.846         139.487 
       0.527764          261.79         135.963 
       0.533884         259.079         132.586 
           0.54         255.228         129.335 
       0.546137          253.83         126.198 
       0.552299         248.423         123.168 
       0.558452         246.515          120.25 
       0.564573           242.7         117.441 
       0.570708         237.802         114.712 
       0.576825         234.264         112.072 
       0.582926         231.576          109.52 
       0.589034         229.197         107.042 
       0.595184         226.768         104.625 
       0.601379         223.984         102.266 
       0.607522          220.02         100.001 
       0.613639         218.609         97.8167 
       0.619772         213.806         95.6962 
       0.625918         212.454         93.6374 
       0.632068         209.344         91.6398 
       0.638161         208.235         89.7185 
         0.6443         204.851         87.8375 
       0.650464         202.801         86.0022 
       0.656582          200.87         84.2315 
       0.662703         199.448           82.51 
       0.668861         195.895         80.8274 
       0.675024         193.457         79.1917 
       0.681124         192.557         77.6192 
       0.687237         189.788         76.0876 
       0.693381         186.893          74.591 
       0.699536         185.574         73.1327 
       0.705665         184.374         71.7199 
       0.711789         181.709         70.3457 
       0.717957         181.034         68.9979 
        0.72409         178.633          67.693 
       0.730186         176.306         66.4297 
       0.736317         174.563         65.1921 
       0.742472          173.56         63.9817 
       0.748622         171.946         62.8036 
        0.75476         170.455         61.6581 
       0.760888         168.225         60.5432 
       0.767043         167.818         59.4519 
       0.773185         165.974           58.39 
       0.779291         162.885         57.3603 
       0.785407         162.366         56.3542 
       0.791564         160.889         55.3661 
       0.797719         158.494         54.4022 
       0.803834         157.722         53.4676 
       0.809972         156.468         52.5517 
       0.816124         156.032         51.6554 
       0.822261         154.093         50.7826 
       0.828378         152.626         49.9328 
       0.834502         152.365         49.1018 
       0.840667         149.957         48.2845 
       0.846816         148.553         47.4883 
       0.852925         147.975         46.7152 
       0.859047         146.277         45.9578 
       0.865192         145.004         45.2149 
       0.871341         143.726          44.488 
       0.877463         142.527         43.7805 
       0.883569          141.96         43.0903 
       0.889708         140.593         42.4116 
       0.895864             139         41.7459 
       0.902008         138.245          41.096 
       0.908149         137.656         40.4604 
       0.914301         136.046         39.8373 
       0.920448             135         39.2281 
       0.926574         134.201         38.6337 
       0.932687         133.967         38.0531 
       0.938823         132.009         37.4824 
       0.944975         130.736         36.9222 
       0.951105         130.211         36.3755 
       0.957225         128.823         35.8408 
       0.963368         127.453         35.3152 
       0.969511         127.246         34.8002 
       0.975621         126.444         34.2982 
       0.981748         125.837          33.805 
       0.987916         124.415         33.3184 
        0.99406          123.47         32.8433 
        1.00019         123.174         32.3784 
        1.00632         121.942          31.923 
        1.01246         121.252         31.4757 
        1.01859         120.227         31.0378 
        1.02471         119.298         30.6087 
        1.03085         118.156         30.1864 
        1.03698         117.735         29.7729 
        1.04314         116.554         29.3655 
        1.04929           115.9         28.9667 
        1.05541         115.217         28.5769 
        1.06154         114.522         28.1934 
        1.06769         114.302         27.8164 
        1.07382         113.275         27.4476 
        1.07993         112.343         27.0863 
        1.08607         111.566         26.7301 
        1.09222         111.237           26.38 
        1.09836         110.221         26.0366 
        1.10449         109.343         25.6997 
        1.11063         108.573         25.3685 
        1.11677         108.231         25.0432 
         1.1229         107.127         24.7243 
        1.12903         106.467         24.4106 
        1.13518         106.424         24.1022 
        1.14131         105.382         23.7993 
        1.14745         104.747         23.5018 
        1.15359         104.061         23.2093 
        1.15973         103.675         22.9218 
        1.16584         102.597         22.6404 
        1.17197         102.145         22.3634 
        1.17811         101.554         22.0902 
        1.18424         101.005         21.8223 
        1.19038         100.553         21.5582 
        1.19652         99.8264         21.2985 
        1.20267         99.0906         21.0432 
        1.20881         98.4259         20.7921 
        1.21495         97.8587         20.5455 
        1.22108         97.4212          20.303 
         1.2272         96.4637         20.0649 
        1.23334          96.122         19.8302 
        1.23949         95.3494         19.5987 
        1.24562         94.9259         19.3715 
        1.25174         94.2159         19.1483 
        1.25789         93.8475         18.9279 
        1.26402         93.1781         18.7114 
        1.27014         92.6578         18.4988 
        1.27628         92.2365         18.2889 
        1.28244         91.6243         18.0819 
        1.28858         91.4188         17.8783 
        1.29471          90.528         17.6784 
        1.30084         90.1342         17.4817 
        1.30697         89.5259         17.2877 
        1.31312         89.1293         17.0964 
        1.31925         88.4237         16.9086 
        1.32537         88.1058         16.7238 
        1.33151         87.2838         16.5411 
        1.33765         86.9267         16.3613 
        1.34378         86.4383         16.1845 
        1.34992         86.1747         16.0103 
        1.35606         85.6005         15.8382 
         1.3622          84.812         15.6689 
        1.36833         84.6556         15.5026 
        1.37445         84.0728         15.3388 
        1.38059         83.5429         15.1768 
        1.38675         83.0017         15.0168 
        1.39288         82.6571         14.8598 
        1.39901         82.3211         14.7051 
        1.40515         81.7172         14.5522 
         1.4113         81.2265         14.4016 
        1.41742         81.0935         14.2537 
        1.42355         80.3934         14.1076 
         1.4297         80.0841         13.9631 
        1.43585         79.4186         13.8207 
        1.44198         79.0711         13.6809 
        1.44809         78.6638         13.5432 
        1.45423          78.237          13.407 
        1.46036         78.0252         13.2728 
        1.46649         77.4342         13.1405 
        1.47263          76.955         13.0098 
        1.47877          76.828          12.881 
        1.48491         76.1334         12.7538 
        1.49104         75.8891         12.6285 
        1.49718         75.3837         12.5048 
        1.50333         74.9889         12.3826 
        1.50947         74.6267         12.2623 
         1.5156         74.1897         12.1437 
        1.52172         73.7707         12.0268 
        1.52787         73.5926         11.9111 
          1.534         73.0107         11.7971 
        1.54013         72.5504         11.6847 
        1.54627         72.3622         11.5736 
        1.55241         71.8272         11.4639 
        1.55855         71.5795         11.3558 
        1.56467         71.1495         11.2494 
         1.5708         70.8235         11.1441 
        1.57695         70.6589         11.0399 
        1.58308         69.9276         10.9374 
        1.58922         69.7979          10.836 
        1.59535         69.5495          10.736 
         1.6015         68.9242         10.6371 
        1.60764         68.7025         10.5395 
        1.61376         68.3651         10.4435 
        1.61989         67.9358         10.3485 
        1.62604         67.7464         10.2545 
        1.63218         67.3886         10.1617 
        1.63831         66.7774         10.0703 
        1.64444         66.5826         9.98002 
        1.65059         66.2133         9.89061 
        1.65673           65.87         9.80239 
        1.66285         65.5317          9.7155 
        1.66898          65.214         9.62964 
        1.67512         64.7683         9.54464 
        1.68127         64.5379          9.4606 
         1.6874         64.2296         9.37776 
        1.69353         63.9098         9.29596 
        1.69967         63.4813         9.21494 
        1.70581         63.3531         9.13493 
        1.71193         63.1471         9.05617 
        1.71806         62.5445         8.97817 
        1.72421         62.3247         8.90094 
        1.73035          62.031         8.82471 
        1.73649         61.6926         8.74939 
        1.74262         61.4573         8.67501 
        1.74876         61.1257         8.60145 
        1.75489         60.7339         8.52889 
        1.76101         60.5764         8.45719 
        1.76715         60.1204         8.38623 
        1.77329         59.9183         8.31599 
        1.77943         59.4651         8.24653 
        1.78557         59.3482         8.17796 
        1.79171         58.9716         8.11016 
        1.79785          58.672         8.04313 
        1.80399         58.5121         7.97686 
        1.81012         58.2372         7.91143 
        1.81625         57.7273         7.84676 
        1.82239         57.5461         7.78273 
        1.82853         57.2306         7.71944 
        1.83466         57.0025         7.65691 
        1.84078         56.6986         7.59515 
        1.84692            56.3         7.53397 
        1.85306         56.0918         7.47338 
         1.8592         55.7358         7.41357 
        1.86533         55.5591         7.35444 
        1.87147         55.2164         7.29589 
        1.87761         55.0046         7.23795 
        1.88375          54.717         7.18071 
        1.88988         54.5616         7.12415 
        1.89601         54.2145         7.06817 
        1.90215         53.9155         7.01276 
        1.90829         53.7692         6.95796 
        1.91442         53.4565         6.90374 
        1.92056         53.0615         6.85015 
         1.9267         52.9099         6.79708 
        1.93284         52.5923         6.74454 
        1.93897         52.3524         6.69265 
        1.94509         52.0759         6.64142 
        1.95123         51.8675          6.5906 
        1.95737          51.666         6.54027 
        1.96349         51.2689          6.4906 
        1.96964         51.2101          6.4413 
        1.97578         50.9001         6.39249 
        1.98192          50.633         6.34429 
        1.98805         50.5155         6.29658 
        1.99419         50.1169         6.24935 
        2.00033         49.8945         6.20259 
        2.00647         49.7111         6.15633 
         2.0126         49.3047         6.11061 
        2.01874         49.1979         6.06529 
        2.02488         49.0195         6.02039 
        2.03101         48.7283         5.97603 
        2.03714         48.4876         5.93215 
        2.04328         48.2787         5.88867 
        2.04941          47.979         5.84566 
        2.05554         47.7247         5.80311 
        2.06167         47.5541         5.76093 
        2.06781         47.3467         5.71916 
        2.07396         47.0822         5.67775 
        2.08009         46.9412         5.63682 
        2.08622         46.6283         5.59634 
        2.09237         46.3934         5.55618 
        2.09851         46.2694          5.5164 
        2.10464         45.9937         5.47708 
        2.11077         45.7578          5.4382 
        2.11691         45.5195          5.3996 
        2.12305         45.3569         5.36138 
        2.12918         45.1176         5.32362 
        2.13531         44.8563         5.28622 
        2.14145         44.6254         5.24909 
         2.1476         44.4844         5.21228 
        2.15372         44.2026         5.17601 
        2.15985         44.0109         5.14005 
        2.16599         43.8328         5.10432 
        2.17213         43.6633         5.06898 
        2.17827         43.4344         5.03397 
         2.1844         43.1968         4.99933 
        2.19054          42.945         4.96501 
        2.19666         42.7559         4.93105 
         2.2028         42.6143         4.89739 
        2.20893         42.4633         4.86402 
        2.21508         42.2668         4.83093 
        2.22122         42.0151         4.79813 
        2.22736         41.8754          4.7657 
        2.23349         41.6893         4.73359 
        2.23962         41.3297         4.70175 
        2.24577         41.1694         4.67018 
         2.2519         40.9532         4.63894 
        2.25802         40.9096         4.60804 
        2.26417         40.6346         4.57733 
        2.27031         40.4721         4.54687 
        2.27644         40.2676         4.51678 
        2.28257         40.0602         4.48697 
        2.28872         39.7852         4.45737 
        2.29486         39.7277         4.42804 
        2.30099         39.5664         4.39903 
        2.30712         39.3647         4.37028 
        2.31326         39.1128         4.34173 
         2.3194         38.9058         4.31345 
        2.32553          38.751         4.28547 
        2.33166         38.6212         4.25776 
         2.3378         38.3379         4.23025 
        2.34394         38.1987         4.20297 
        2.35007         37.9911         4.17598 
        2.35619         37.8489         4.14925 
        2.36233         37.7459          4.1227 
        2.36848         37.4968         4.09632 
        2.37462         37.3208         4.07023 
        2.38075         37.1898         4.04439 
        2.38689         37.0666         4.01876 
        2.39303          36.844         3.99335 
        2.39916         36.6309         3.96819 
        2.40529         36.4742         3.94325 
        2.41143         36.3628          3.9185 
        2.41757         36.1774         3.89395 
         2.4237         36.0661         3.86966 
        2.42983         35.8411         3.84558 
        2.43598         35.6504         3.82165 
        2.44211          35.512         3.79795 
        2.44823         35.3581         3.77451 
        2.45437         35.2101          3.7512 
        2.46052         34.9503         3.72807 
        2.46665         34.8489         3.70518 
        2.47279         34.7294         3.68248 
        2.47892          34.536         3.65997 
        2.48507         34.3792         3.63761 
         2.4912         34.2592         3.61549 
