# k  (h/Mpc)    P(k)  (Mpc/h)^3    P_linear(k)  (Mpc/h)^3
     0.00783031         20570.9         20986.5 
       0.013688         25392.5         25171.9 
       0.019231           24789         24769.4 
      0.0249154         21695.6         22252.6 
      0.0312784         18489.3         18746.1 
      0.0375637         15687.1         15690.3 
      0.0433917         13320.6         13592.8 
      0.0492413         12057.3         12163.5 
      0.0555754         10728.6         11131.1 
      0.0619321         10309.9         10320.5 
       0.067871         9232.12         9546.53 
      0.0738098         8402.79         8666.07 
      0.0800417          7365.6         7659.87 
      0.0862327         6562.32         6686.22 
      0.0921407         5940.18         5885.04 
      0.0982031         5288.22         5251.48 
       0.104506         4998.04         4795.69 
       0.110769         4659.25            4498 
       0.116806         4422.46         4287.33 
       0.122832         4206.27         4085.87 
       0.129052         3872.25         3842.11 
       0.135211         3624.58         3554.38 
       0.141259         3433.44         3246.84 
       0.147318         3204.76         2947.77 
       0.153489         2921.98         2683.82 
       0.159709         2764.67         2476.37 
       0.165845         2675.58          2328.4 
       0.171974         2546.36         2222.25 
       0.178125         2428.35         2136.44 
       0.184229         2316.26         2051.98 
        0.19034         2197.02         1955.56 
       0.196428         2136.68          1845.1 
       0.202534         2040.91         1725.93 
       0.208729         1942.53          1607.1 
       0.214876         1867.65          1501.3 
       0.220989         1799.67         1413.82 
       0.227147         1731.65         1344.07 
        0.23329         1665.25          1288.9 
       0.239377         1640.75         1242.27 
       0.245482         1541.52          1197.4 
       0.251667         1531.73         1149.48 
       0.257832         1467.85         1097.87 
       0.263955         1416.57         1044.21 
       0.270079         1367.23         990.982 
        0.27624         1348.63         941.083 
       0.282372         1294.07         897.097 
        0.28843         1288.84         859.776 
       0.294538         1225.07         827.503 
       0.300721         1215.69           798.5 
        0.30691         1171.64         771.195 
       0.313033          1146.7         744.307 
       0.319153         1129.27          716.91 
       0.325316         1092.26         688.858 
        0.33145         1068.06         661.263 
       0.337538         1045.59         635.059 
       0.343633         1025.87         610.733 
       0.349808         990.829         588.386 
       0.355968         982.859         568.231 
       0.362074          974.41         549.959 
       0.368217         941.905         532.648 
       0.374374          908.73         515.877 
       0.380519         910.733         499.378 
       0.386598         882.419         483.199 
       0.392688         878.399         467.305 
        0.39888         853.256         451.664 
       0.405048         844.098         436.851 
       0.411186         831.973         423.036 
       0.417313          814.43         410.133 
       0.423458          798.27         398.007 
       0.429607          790.43         386.525 
       0.435692         773.106         375.612 
       0.441815         765.092         364.947 
       0.447964         750.477         354.517 
       0.454126          744.97         344.324 
       0.460267         725.239         334.468 
       0.466387         715.758          325.02 
        0.47254         714.467         315.947 
       0.478662         704.111          307.34 
       0.484765         683.647          299.16 
       0.490885         679.092         291.327 
       0.497035         665.083         283.768 
       0.503198         660.764         276.449 
       0.509342         654.006         269.367 
       0.515458         650.119         262.527 
       0.521598         633.202         255.874 
       0.527764         623.611          249.41 
       0.533884         619.706         243.215 
           0.54         614.029         237.251 
       0.546137         607.143         231.497 
       0.552299         600.008         225.938 
       0.558452         594.265         220.586 
       0.564573         587.689         215.434 
       0.570708         580.273         210.427 
       0.576825         566.221         205.585 
       0.582926         567.849         200.903 
       0.589034         561.161         196.358 
       0.595184         556.323         191.923 
       0.601379         547.878         187.596 
       0.607522         540.081         183.441 
       0.613639         538.844         179.434 
       0.619772         529.704         175.544 
       0.625918          525.67         171.768 
       0.632068         518.413         168.103 
       0.638161         515.605         164.579 
         0.6443          508.04         161.128 
       0.650464         505.751         157.762 
       0.656582          499.63         154.514 
       0.662703         498.585         151.356 
       0.668861         490.789         148.269 
       0.675024         486.366         145.268 
       0.681124         482.488         142.384 
       0.687237         479.024         139.574 
       0.693381         471.928         136.829 
       0.699536         464.459         134.154 
       0.705665         463.722         131.562 
       0.711789         461.401         129.041 
       0.717957         457.043         126.569 
        0.72409         454.796         124.175 
       0.730186         447.921         121.858 
       0.736317          445.23         119.588 
       0.742472         441.665         117.367 
       0.748622         437.225         115.206 
        0.75476         430.701         113.105 
       0.760888         427.046          111.06 
       0.767043         426.668         109.058 
       0.773185         422.809          107.11 
       0.779291         417.861         105.221 
       0.785407         414.985         103.376 
       0.791564         410.688         101.563 
       0.797719         409.002         99.7948 
       0.803834         403.096         98.0803 
       0.809972         402.642         96.4002 
       0.816124         400.928         94.7561 
       0.822261         395.695          93.155 
       0.828378         393.184         91.5961 
       0.834502         388.486         90.0717 
       0.840667         385.783         88.5725 
       0.846816         384.093         87.1119 
       0.852925         381.467         85.6937 
       0.859047         379.023         84.3044 
       0.865192         374.102         82.9415 
       0.871341         370.993         81.6082 
       0.877463          370.99         80.3104 
       0.883569         366.846         79.0444 
       0.889708         364.491         77.7993 
       0.895864         363.977         76.5782 
       0.902008         360.168          75.386 
       0.908149         354.893           74.22 
       0.914301         353.405         73.0771 
       0.920448         351.625         71.9594 
       0.926574         346.511         70.8692 
       0.932687         345.588         69.8041 
       0.938823         342.285         68.7572 
       0.944975         342.211         67.7295 
       0.951105         338.541         66.7266 
       0.957225         336.244         65.7459 
       0.963368         331.912         64.7817 
       0.969511         331.101          63.837 
       0.975621         329.389         62.9162 
       0.981748         326.632         62.0114 
       0.987916         324.982         61.1188 
        0.99406         320.711         60.2472 
        1.00019           318.6         59.3945 
        1.00632         317.487         58.5591 
        1.01246         314.708         57.7386 
        1.01859         314.301         56.9352 
        1.02471         309.955         56.1482 
        1.03085         308.786         55.3735 
        1.03698         306.795          54.615 
        1.04314         304.699         53.8676 
        1.04929         301.764         53.1361 
        1.05541          302.06         52.4211 
        1.06154         297.082         51.7176 
        1.06769         296.357         51.0261 
        1.07382         293.662         50.3495 
        1.07993         292.437         49.6868 
        1.08607         291.483         49.0334 
        1.09222         287.788         48.3911 
        1.09836         285.782         47.7611 
        1.10449         284.006         47.1432 
        1.11063         280.734         46.5355 
        1.11677          281.11         45.9389 
         1.1229         278.243         45.3538 
        1.12903         276.897         44.7785 
        1.13518         274.172         44.2127 
        1.14131         272.774          43.657 
        1.14745         271.484         43.1113 
        1.15359         269.518         42.5749 
        1.15973          267.77         42.0474 
        1.16584         265.487         41.5312 
        1.17197         265.299         41.0231 
        1.17811         262.119         40.5219 
        1.18424         260.197         40.0305 
        1.19038         259.354          39.546 
        1.19652         257.102         39.0697 
        1.20267         256.706         38.6013 
        1.20881         254.085         38.1407 
        1.21495         252.494         37.6883 
        1.22108         250.744         37.2434 
         1.2272         249.297         36.8068 
        1.23334         248.523         36.3762 
        1.23949         245.291         35.9515 
        1.24562         244.472         35.5347 
        1.25174         243.455         35.1253 
        1.25789         241.299          34.721 
        1.26402         239.433         34.3239 
        1.27014         238.022         33.9339 
        1.27628         235.992         33.5489 
        1.28244         236.105         33.1691 
        1.28858         233.815         32.7957 
        1.29471         232.951         32.4289 
        1.30084         230.397         32.0681 
        1.30697         229.749         31.7122 
        1.31312         227.334         31.3613 
        1.31925         225.864         31.0168 
        1.32537         225.494         30.6779 
        1.33151         223.298         30.3428 
        1.33765         221.383         30.0129 
        1.34378         220.918         29.6886 
        1.34992         219.698         29.3689 
        1.35606         218.656         29.0533 
         1.3622         216.135         28.7429 
        1.36833         215.302         28.4377 
        1.37445         213.723         28.1372 
        1.38059         212.276         27.8401 
        1.38675         211.312         27.5466 
        1.39288         210.149         27.2585 
        1.39901         208.466         26.9747 
        1.40515         207.624         26.6943 
         1.4113         206.168          26.418 
        1.41742         204.571         26.1467 
        1.42355         203.496         25.8787 
         1.4297         201.996         25.6137 
        1.43585         200.778         25.3525 
        1.44198         200.518          25.096 
        1.44809         198.529         24.8434 
        1.45423          197.47         24.5935 
        1.46036         196.131         24.3474 
        1.46649         195.127         24.1047 
        1.47263         194.073          23.865 
        1.47877         192.529         23.6287 
        1.48491         190.625         23.3953 
        1.49104           190.2         23.1655 
        1.49718         188.465         22.9386 
        1.50333         187.985         22.7144 
        1.50947         186.435         22.4937 
         1.5156         185.155         22.2763 
        1.52172         184.447         22.0617 
        1.52787         182.699         21.8495 
          1.534          182.36         21.6404 
        1.54013         180.677         21.4343 
        1.54627         179.798         21.2304 
        1.55241         178.677         21.0292 
        1.55855         176.991         20.8309 
        1.56467         176.568         20.6358 
         1.5708         175.353         20.4425 
        1.57695         174.604         20.2515 
        1.58308         173.174         20.0633 
        1.58922         172.072         19.8774 
        1.59535         170.831          19.694 
         1.6015         169.745         19.5126 
        1.60764          169.17         19.3336 
        1.61376         168.148         19.1573 
        1.61989         167.164         18.9831 
        1.62604         165.909         18.8107 
        1.63218         165.219         18.6405 
        1.63831         163.645         18.4728 
        1.64444         162.968         18.3072 
        1.65059         162.151         18.1432 
        1.65673         161.225         17.9813 
        1.66285         159.811         17.8219 
        1.66898         159.257         17.6644 
        1.67512         158.168         17.5085 
        1.68127         156.913         17.3544 
         1.6874         156.458         17.2024 
        1.69353         155.209         17.0523 
        1.69967         154.121         16.9037 
        1.70581         153.313          16.757 
        1.71193         152.068         16.6125 
        1.71806         151.627         16.4694 
        1.72421         150.605         16.3277 
        1.73035         149.991         16.1879 
        1.73649         148.889         16.0497 
        1.74262         148.069         15.9133 
        1.74876         146.734         15.7783 
        1.75489         146.281         15.6452 
        1.76101         144.944         15.5137 
        1.76715          144.62         15.3835 
        1.77329         143.456         15.2547 
        1.77943         142.903         15.1273 
        1.78557         141.954         15.0015 
        1.79171         141.152         14.8771 
        1.79785         140.132         14.7542 
        1.80399         139.472         14.6326 
        1.81012         138.728         14.5126 
        1.81625         138.006          14.394 
        1.82239         136.921         14.2765 
        1.82853         136.186         14.1604 
        1.83466         135.582         14.0457 
        1.84078          134.64         13.9324 
        1.84692         133.584         13.8202 
        1.85306         133.366          13.709 
         1.8592          132.32         13.5993 
        1.86533         131.943         13.4908 
        1.87147         130.769         13.3834 
        1.87761         129.901         13.2772 
        1.88375         129.248         13.1722 
        1.88988         127.984         13.0684 
        1.89601         127.822         12.9657 
        1.90215         127.141         12.8641 
        1.90829         126.003         12.7636 
        1.91442         125.643         12.6641 
        1.92056         124.698         12.5658 
         1.9267         123.916         12.4684 
        1.93284         123.107         12.3721 
        1.93897         122.622         12.2769 
        1.94509         122.085         12.1829 
        1.95123         121.374         12.0897 
        1.95737         120.501         11.9973 
        1.96349         119.999         11.9062 
        1.96964         119.044         11.8158 
        1.97578         118.234         11.7263 
        1.98192         117.638         11.6378 
        1.98805         117.194         11.5503 
        1.99419         116.284         11.4637 
        2.00033         115.766         11.3779 
        2.00647          115.11         11.2931 
         2.0126         114.319         11.2092 
        2.01874         113.812         11.1261 
        2.02488         113.488         11.0437 
        2.03101         112.306         10.9623 
        2.03714         111.915         10.8818 
        2.04328         111.101         10.8021 
        2.04941         110.669         10.7232 
        2.05554         109.793         10.6451 
        2.06167          109.33         10.5677 
        2.06781         108.474         10.4911 
        2.07396         108.264         10.4152 
        2.08009         107.339         10.3401 
        2.08622         106.549         10.2658 
        2.09237         106.206         10.1921 
        2.09851         105.529         10.1192 
        2.10464         105.109         10.0471 
        2.11077         104.469         9.97572 
        2.11691         103.845         9.90493 
        2.12305         103.484         9.83481 
        2.12918          102.81         9.76555 
        2.13531         102.017         9.69694 
        2.14145          101.55         9.62884 
         2.1476         100.841         9.56131 
        2.15372         100.511         9.49477 
        2.15985         99.7606          9.4288 
        2.16599          99.254         9.36327 
        2.17213         98.8223         9.29843 
        2.17827         98.0746         9.23423 
         2.1844         97.4944         9.17068 
        2.19054         97.1948         9.10772 
        2.19666         96.5349         9.04543 
         2.2028         95.9274         8.98368 
        2.20893         95.5002         8.92247 
        2.21508         94.8617         8.86176 
        2.22122         94.4235          8.8016 
        2.22736          93.896         8.74212 
        2.23349          93.501          8.6832 
        2.23962         92.9714          8.6248 
        2.24577         92.2867         8.56688 
         2.2519         91.8697         8.50958 
        2.25802         91.1886         8.45289 
        2.26417         90.9442         8.39657 
        2.27031         90.2643          8.3407 
        2.27644         89.8345          8.2855 
        2.28257         89.4562         8.23081 
        2.28872         88.8038         8.17651 
        2.29486         88.3308         8.12271 
        2.30099         87.8387          8.0695 
        2.30712          87.365         8.01675 
        2.31326         86.8779         7.96438 
         2.3194         86.3389         7.91251 
        2.32553         85.8761         7.86119 
        2.33166          85.341         7.81035 
         2.3378         85.0588         7.75988 
        2.34394         84.5458         7.70985 
        2.35007         84.1244         7.66033 
        2.35619         83.6369         7.61131 
        2.36233         83.2184          7.5626 
        2.36848          82.671         7.51421 
        2.37462         82.3409         7.46635 
        2.38075         81.8007         7.41896 
        2.38689         81.3572         7.37193 
        2.39303         80.8646         7.32533 
        2.39916         80.4533         7.27917 
        2.40529         80.2502         7.23341 
        2.41143         79.7011         7.18802 
        2.41757         79.2283         7.14299 
         2.4237         78.8446         7.09844 
        2.42983         78.4018         7.05427 
        2.43598         77.8808         7.01035 
        2.44211         77.5513         6.96689 
        2.44823         77.0594         6.92389 
        2.45437         76.7241         6.88113 
        2.46052          76.253          6.8387 
        2.46665         75.9461          6.7967 
        2.47279         75.4635         6.75508 
        2.47892          75.078         6.71377 
        2.48507         74.7391         6.67277 
         2.4912          74.366         6.63219 
