# k  (h/Mpc)    Pcb(k)  (Mpc/h)^3    Pcb_linear(k)  (Mpc/h)^3
     0.00783031         176.167         177.838 
       0.013688          212.54         213.413 
       0.019231         209.954         210.133 
      0.0249154         188.356         188.866 
      0.0312784          159.27         159.156 
      0.0375637         133.575         133.242 
      0.0433917         115.577         115.447 
      0.0492413          103.48         103.317 
      0.0555754         94.4699         94.5561 
      0.0619321         87.8284         87.6764 
       0.067871         80.9945         81.1052 
      0.0738098         73.5112          73.628 
      0.0800417         64.9491         65.0815 
      0.0862327         56.8084         56.8106 
      0.0921407         50.0548         50.0044 
      0.0982031         44.6276          44.622 
       0.104506         40.8688         40.7499 
       0.110769         38.2876         38.2208 
       0.116806         36.3868         36.4311 
       0.122832         34.7272         34.7196 
       0.129052         32.5856         32.6485 
       0.135211          30.141         30.2038 
       0.141259         27.5984         27.5906 
       0.147318         25.1138         25.0495 
       0.153489         22.8456         22.8066 
       0.159709         21.0822         21.0439 
       0.165845         19.8839         19.7865 
       0.171974         18.8958         18.8846 
       0.178125         18.1749         18.1553 
       0.184229         17.4726         17.4377 
        0.19034         16.5924         16.6183 
       0.196428         15.6939         15.6797 
       0.202534         14.7404          14.667 
       0.208729         13.6988         13.6573 
       0.214876         12.7746         12.7583 
       0.220989         12.0848         12.0149 
       0.227147         11.4397         11.4221 
        0.23329          10.969         10.9533 
       0.239377         10.5773          10.557 
       0.245482         10.1758         10.1757 
       0.251667         9.80253         9.76852 
       0.257832         9.34925         9.32998 
       0.263955         8.90402         8.87393 
       0.270079         8.45783          8.4216 
        0.27624           8.058         7.99754 
       0.282372         7.68378         7.62375 
        0.28843         7.34556         7.30662 
       0.294538         7.07064         7.03235 
       0.300721         6.84323         6.78587 
        0.30691         6.58787         6.55382 
       0.313033         6.36133         6.32535 
       0.319153         6.09743         6.09252 
       0.325316          5.9056         5.85413 
        0.33145         5.66498         5.61963 
       0.337538         5.44091         5.39694 
       0.343633         5.22458         5.19021 
       0.349808         5.04424         5.00029 
       0.355968         4.87516         4.82903 
       0.362074         4.71313         4.67374 
       0.368217         4.56654         4.52662 
       0.374374         4.41122          4.3841 
       0.380519         4.28288         4.24388 
       0.386598         4.15022          4.1064 
       0.392688         4.02285         3.97133 
        0.39888         3.88335          3.8384 
       0.405048         3.75947         3.71252 
       0.411186         3.64427         3.59511 
       0.417313         3.52741         3.48547 
       0.423458         3.43034          3.3824 
       0.429607         3.32431         3.28484 
       0.435692         3.23138         3.19209 
       0.441815         3.14148         3.10146 
       0.447964         3.06272         3.01282 
       0.454126         2.96489         2.92621 
       0.460267         2.88132         2.84244 
       0.466387         2.79655         2.76215 
        0.47254          2.7228         2.68504 
       0.478662          2.6531          2.6119 
       0.484765         2.57783         2.54238 
       0.490885         2.51364         2.47581 
       0.497035         2.45983         2.41157 
       0.503198         2.39089         2.34937 
       0.509342         2.33413         2.28919 
       0.515458         2.27094         2.23106 
       0.521598         2.21534         2.17452 
       0.527764         2.15486         2.11959 
       0.533884          2.1108         2.06694 
           0.54         2.05749         2.01626 
       0.546137         2.01026         1.96736 
       0.552299         1.96194         1.92012 
       0.558452         1.91151         1.87463 
       0.564573          1.8716         1.83085 
       0.570708         1.82848         1.78829 
       0.576825         1.78421         1.74715 
       0.582926         1.74885         1.70736 
       0.589034         1.70104         1.66873 
       0.595184         1.66563         1.63104 
       0.601379         1.62861         1.59427 
       0.607522          1.5973         1.55896 
       0.613639         1.56709         1.52491 
       0.619772         1.52682         1.49185 
       0.625918         1.49734         1.45975 
       0.632068         1.46889         1.42861 
       0.638161         1.43532         1.39866 
         0.6443         1.40544         1.36934 
       0.650464         1.37346         1.34073 
       0.656582         1.34909         1.31312 
       0.662703         1.32243         1.28629 
       0.668861         1.29963         1.26006 
       0.675024         1.27066         1.23455 
       0.681124           1.243         1.21004 
       0.687237         1.22267         1.18616 
       0.693381         1.19962         1.16283 
       0.699536         1.17061          1.1401 
       0.705665          1.1499         1.11807 
       0.711789         1.13087         1.09665 
       0.717957         1.10718         1.07564 
        0.72409         1.08736          1.0553 
       0.730186         1.06664          1.0356 
       0.736317         1.05201         1.01631 
       0.742472         1.03151         0.99744 
       0.748622         1.01148        0.979074 
        0.75476        0.991342        0.961216 
       0.760888         0.97346        0.943836 
       0.767043        0.961726        0.926823 
       0.773185        0.941303        0.910269 
       0.779291        0.925369        0.894217 
       0.785407        0.909775        0.878532 
       0.791564        0.895009        0.863127 
       0.797719        0.880815        0.848101 
       0.803834        0.866389        0.833531 
       0.809972        0.850988        0.819253 
       0.816124        0.835851        0.805281 
       0.822261        0.820722        0.791674 
       0.828378        0.809129        0.778425 
       0.834502        0.797578        0.765471 
       0.840667        0.781626         0.75273 
       0.846816        0.769476        0.740317 
       0.852925        0.759911        0.728265 
       0.859047        0.747591        0.716457 
       0.865192        0.734193        0.704875 
       0.871341        0.722811        0.693544 
       0.877463        0.713783        0.682515 
       0.883569        0.700989        0.671756 
       0.889708        0.690468        0.661175 
       0.895864        0.679643        0.650797 
       0.902008        0.668726        0.640665 
       0.908149        0.658774        0.630756 
       0.914301        0.646373        0.621043 
       0.920448        0.638072        0.611545 
       0.926574        0.628298         0.60228 
       0.932687        0.618824        0.593228 
       0.938823        0.612292        0.584331 
       0.944975        0.602773        0.575597 
       0.951105        0.594435        0.567074 
       0.957225        0.587268         0.55874 
       0.963368        0.578058        0.550545 
       0.969511        0.568762        0.542516 
       0.975621        0.560139        0.534692 
       0.981748        0.554623        0.527002 
       0.987916        0.545933        0.519416 
        0.99406        0.537847        0.512009 
        1.00019        0.531935        0.504762 
        1.00632        0.522572        0.497663 
        1.01246         0.51554         0.49069 
        1.01859        0.509564        0.483863 
        1.02471        0.502293        0.477174 
        1.03085        0.497145         0.47059 
        1.03698        0.489215        0.464144 
        1.04314        0.483149        0.457793 
        1.04929        0.476035        0.451576 
        1.05541        0.470802          0.4455 
        1.06154        0.463876        0.439521 
        1.06769        0.457415        0.433644 
        1.07382        0.451989        0.427894 
        1.07993        0.445487        0.422262 
        1.08607        0.441646        0.416709 
        1.09222        0.434807        0.411251 
        1.09836        0.431014        0.405897 
        1.10449        0.425272        0.400645 
        1.11063        0.418681        0.395481 
        1.11677        0.412837        0.390411 
         1.1229        0.408679        0.385438 
        1.12903        0.403096        0.380549 
        1.13518        0.399033        0.375741 
        1.14131        0.393625        0.371018 
        1.14745        0.387237        0.366381 
        1.15359        0.383983        0.361822 
        1.15973        0.378179        0.357339 
        1.16584        0.375511        0.352952 
        1.17197        0.370549        0.348634 
        1.17811        0.366735        0.344374 
        1.18424        0.363068        0.340199 
        1.19038        0.357748        0.336081 
        1.19652        0.352784        0.332033 
        1.20267        0.350094        0.328052 
        1.20881        0.345418        0.324138 
        1.21495        0.342345        0.320294 
        1.22108        0.338067        0.316513 
         1.2272        0.334659        0.312802 
        1.23334        0.330247        0.309142 
        1.23949        0.326771        0.305533 
        1.24562        0.323128        0.301992 
        1.25174        0.319862        0.298512 
        1.25789        0.316611        0.295076 
        1.26402        0.311957        0.291701 
        1.27014        0.308959        0.288387 
        1.27628        0.306331        0.285115 
        1.28244        0.301638        0.281887 
        1.28858        0.299043        0.278714 
        1.29471        0.296646        0.275597 
        1.30084        0.292704         0.27253 
        1.30697        0.289605        0.269506 
        1.31312         0.28558        0.266524 
        1.31925        0.283063        0.263596 
        1.32537         0.28059        0.260716 
        1.33151        0.278057        0.257868 
        1.33765        0.275064        0.255065 
        1.34378        0.271431        0.252309 
        1.34992        0.268985        0.249592 
        1.35606        0.266193        0.246909 
         1.3622        0.263553        0.244271 
        1.36833        0.260639        0.241678 
        1.37445        0.257342        0.239124 
        1.38059        0.255057        0.236599 
        1.38675        0.253657        0.234105 
        1.39288        0.250548        0.231656 
        1.39901        0.248097        0.229244 
        1.40515        0.245892        0.226862 
         1.4113        0.242792        0.224514 
        1.41742         0.24053        0.222208 
        1.42355        0.238813         0.21993 
         1.4297        0.235777        0.217678 
        1.43585        0.233796        0.215458 
        1.44198        0.232068        0.213278 
        1.44809        0.229257        0.211132 
        1.45423        0.227193        0.209008 
        1.46036        0.224941        0.206917 
        1.46649        0.223289        0.204853 
        1.47263        0.220842        0.202817 
        1.47877        0.218297        0.200809 
        1.48491        0.216655        0.198825 
        1.49104        0.214109        0.196872 
        1.49718        0.212274        0.194944 
        1.50333        0.210787        0.193039 
        1.50947        0.208569        0.191163 
         1.5156        0.206486        0.189315 
        1.52172        0.204748        0.187491 
        1.52787        0.202824        0.185688 
          1.534        0.200807        0.183911 
        1.54013        0.198904        0.182159 
        1.54627        0.197559        0.180427 
        1.55241        0.195402        0.178717 
        1.55855        0.193445        0.177032 
        1.56467        0.192558        0.175373 
         1.5708        0.190352        0.173731 
        1.57695        0.188721        0.172107 
        1.58308        0.186924        0.170508 
        1.58922        0.185457        0.168929 
        1.59535        0.183731        0.167369 
         1.6015        0.181993        0.165828 
        1.60764        0.180583        0.164307 
        1.61376        0.178596        0.162809 
        1.61989        0.177286        0.161328 
        1.62604        0.175974        0.159863 
        1.63218        0.174498        0.158417 
        1.63831        0.173069        0.156992 
        1.64444        0.171536        0.155584 
        1.65059            0.17         0.15419 
        1.65673        0.168709        0.152815 
        1.66285        0.167473         0.15146 
        1.66898        0.166027        0.150121 
        1.67512        0.164291        0.148797 
        1.68127        0.162843        0.147486 
         1.6874        0.161925        0.146195 
        1.69353        0.160078         0.14492 
        1.69967         0.15935        0.143657 
        1.70581        0.157541        0.142409 
        1.71193        0.156412        0.141181 
        1.71806        0.154935        0.139966 
        1.72421        0.154119        0.138762 
        1.73035        0.152569        0.137573 
        1.73649        0.151614        0.136399 
        1.74262        0.150291        0.135239 
        1.74876        0.148993        0.134093 
        1.75489         0.14798        0.132961 
        1.76101        0.146539        0.131844 
        1.76715        0.145438        0.130737 
        1.77329        0.144122        0.129642 
        1.77943        0.143062         0.12856 
        1.78557        0.142208        0.127491 
        1.79171          0.1411        0.126434 
        1.79785        0.139916        0.125389 
        1.80399        0.138812        0.124356 
        1.81012        0.137783        0.123336 
        1.81625        0.136679        0.122327 
        1.82239         0.13569        0.121329 
        1.82853        0.134435        0.120343 
        1.83466        0.133557        0.119368 
        1.84078        0.132537        0.118405 
        1.84692        0.131434        0.117451 
        1.85306         0.13072        0.116507 
         1.8592        0.129435        0.115574 
        1.86533        0.128729        0.114652 
        1.87147        0.127692         0.11374 
        1.87761        0.126876        0.112836 
        1.88375         0.12572        0.111944 
        1.88988        0.124856        0.111062 
        1.89601        0.123832         0.11019 
        1.90215         0.12305        0.109326 
        1.90829        0.121945        0.108471 
        1.91442        0.121428        0.107626 
        1.92056        0.120318        0.106791 
         1.9267        0.119348        0.105963 
        1.93284        0.118507        0.105144 
        1.93897        0.117625        0.104335 
        1.94509        0.117017        0.103537 
        1.95123        0.116071        0.102744 
        1.95737        0.115355         0.10196 
        1.96349        0.114382        0.101186 
        1.96964        0.113473        0.100417 
        1.97578        0.112725       0.0996561 
        1.98192        0.112049       0.0989046 
        1.98805        0.111387       0.0981609 
        1.99419        0.110309       0.0974247 
        2.00033        0.109554       0.0966957 
        2.00647        0.109083       0.0959745 
         2.0126        0.108059       0.0952618 
        2.01874        0.107515       0.0945552 
        2.02488        0.106731       0.0938552 
        2.03101        0.106005       0.0931636 
        2.03714        0.105155       0.0924797 
        2.04328        0.104634       0.0918018 
        2.04941        0.103704       0.0911313 
        2.05554        0.103158        0.090468 
        2.06167        0.102621       0.0898104 
        2.06781        0.101671       0.0891593 
        2.07396        0.101029       0.0885137 
        2.08009        0.100384       0.0878756 
        2.08622       0.0997935       0.0872445 
        2.09237       0.0991195       0.0866184 
        2.09851        0.098494       0.0859984 
        2.10464       0.0978704       0.0853854 
        2.11077       0.0971108       0.0847792 
        2.11691       0.0965369       0.0841775 
        2.12305       0.0958669       0.0835816 
        2.12918        0.095373        0.082993 
        2.13531       0.0945489       0.0824099 
        2.14145       0.0938618       0.0818312 
         2.1476       0.0933965       0.0812573 
        2.15372       0.0929729       0.0806918 
        2.15985       0.0922171       0.0801312 
        2.16599       0.0915817       0.0795742 
        2.17213       0.0910695       0.0790232 
        2.17827       0.0903649       0.0784776 
         2.1844       0.0899671       0.0779375 
        2.19054       0.0893258       0.0774024 
        2.19666       0.0886333       0.0768731 
         2.2028        0.088187       0.0763482 
        2.20893       0.0877931       0.0758281 
        2.21508        0.087019       0.0753121 
        2.22122       0.0864104       0.0748008 
        2.22736        0.086124       0.0742954 
        2.23349        0.085471       0.0737947 
        2.23962       0.0850748       0.0732984 
        2.24577       0.0844021       0.0728062 
         2.2519       0.0839745       0.0723192 
        2.25802        0.083388       0.0718374 
        2.26417       0.0829308       0.0713587 
        2.27031       0.0823624       0.0708839 
        2.27644       0.0818673       0.0704148 
        2.28257       0.0813696         0.06995 
        2.28872       0.0809164       0.0694885 
        2.29486       0.0805991       0.0690313 
        2.30099       0.0798839       0.0685792 
        2.30712       0.0794716       0.0681308 
        2.31326       0.0788683       0.0676858 
         2.3194       0.0787122        0.067245 
        2.32553       0.0781323       0.0668088 
        2.33166       0.0777978       0.0663767 
         2.3378       0.0772665       0.0659479 
        2.34394       0.0767375       0.0655227 
        2.35007       0.0762902       0.0651018 
        2.35619       0.0757338       0.0646852 
        2.36233       0.0753806       0.0642712 
        2.36848        0.075102         0.06386 
        2.37462       0.0744673       0.0634533 
        2.38075       0.0741869       0.0630505 
        2.38689       0.0737661       0.0626509 
        2.39303       0.0734174       0.0622548 
        2.39916       0.0728379       0.0618625 
        2.40529       0.0724845       0.0614737 
        2.41143       0.0720031       0.0610879 
        2.41757        0.071629       0.0607052 
         2.4237       0.0713299       0.0603266 
        2.42983       0.0708752       0.0599512 
        2.43598       0.0706065        0.059578 
        2.44211        0.070069       0.0592086 
        2.44823       0.0697953       0.0588432 
        2.45437       0.0692628       0.0584798 
        2.46052       0.0689824       0.0581192 
        2.46665          0.0685       0.0577623 
        2.47279       0.0681261       0.0574085 
        2.47892       0.0676447       0.0570575 
        2.48507       0.0673134        0.056709 
         2.4912       0.0670297       0.0563642 
