# k  (h/Mpc)    Pcb(k)  (Mpc/h)^3    Pcb_linear(k)  (Mpc/h)^3
     0.00783031         11294.3         11345.6 
       0.013688         14037.3         14375.6 
       0.019231         14719.2         14927.8 
      0.0249154         14189.4         14188.6 
      0.0312784         12547.8         12692.6 
      0.0375637         10938.2           11151 
      0.0433917         9860.94         9949.31 
      0.0492413         8871.94          9030.4 
      0.0555754         8203.47         8300.08 
      0.0619321         7408.93         7720.16 
       0.067871         7012.43         7208.79 
      0.0738098         6533.03         6665.21 
      0.0800417            5950         6051.37 
      0.0862327         5328.13          5434.2 
      0.0921407          4821.7         4888.67 
      0.0982031         4415.65         4413.97 
       0.104506         3981.75         4029.85 
       0.110769         3720.53         3748.89 
       0.116806         3576.42         3545.02 
       0.122832          3363.3         3372.97 
       0.129052         3188.34         3197.29 
       0.135211         3065.57         3007.22 
       0.141259         2832.01         2803.47 
       0.147318          2607.6         2593.37 
       0.153489         2450.32          2389.9 
       0.159709         2342.05         2210.44 
       0.165845         2145.71         2065.96 
       0.171974         2097.24         1952.89 
       0.178125         2029.13          1863.2 
       0.184229         1882.21          1787.1 
        0.19034         1849.75         1713.69 
       0.196428         1791.67         1636.64 
       0.202534         1677.23          1553.5 
       0.208729         1639.81         1465.56 
       0.214876         1566.51         1379.72 
       0.220989         1478.63         1300.82 
       0.227147         1441.91         1231.34 
        0.23329         1387.83         1172.91 
       0.239377          1375.1         1124.31 
       0.245482         1310.24         1081.96 
       0.251667          1262.1         1042.16 
       0.257832         1245.34         1002.83 
       0.263955          1185.3         962.696 
       0.270079         1151.07         921.471 
        0.27624         1102.76         880.067 
       0.282372         1085.89         840.471 
        0.28843         1071.79          804.27 
       0.294538         1020.24         771.464 
       0.300721         997.209         741.995 
        0.30691         977.567          715.63 
       0.313033         938.496           691.6 
       0.319153         926.629         668.668 
       0.325316         913.932         645.918 
        0.33145         894.868         623.354 
       0.337538         864.097         601.099 
       0.343633         842.218         579.353 
       0.349808         824.555         558.297 
       0.355968         809.441          538.61 
       0.362074         783.852         520.567 
       0.368217         780.977         503.788 
       0.374374         768.883         488.142 
       0.380519         740.558         473.359 
       0.386598         734.777         459.274 
       0.392688         718.752         445.527 
        0.39888         700.785         431.817 
       0.405048         688.887         418.496 
       0.411186         686.729         405.664 
       0.417313         681.888         393.378 
       0.423458         660.731         381.683 
       0.429607         642.958         370.618 
       0.435692         636.002         360.251 
       0.441815         625.036         350.335 
       0.447964             615         340.798 
       0.454126         607.724         331.565 
       0.460267         598.463          322.64 
       0.466387         589.311         314.001 
        0.47254         579.724         305.566 
       0.478662          570.01         297.448 
       0.484765         564.328         289.659 
       0.490885         558.468         282.166 
       0.497035         547.775         274.946 
       0.503198         547.383         268.008 
       0.509342         535.898         261.364 
       0.515458         526.237         254.989 
       0.521598         520.983         248.794 
       0.527764         511.418         242.759 
       0.533884         508.465          236.95 
           0.54         502.657         231.323 
       0.546137         493.753         225.855 
       0.552299         492.442         220.544 
       0.558452         485.417          215.42 
       0.564573         480.526         210.498 
       0.570708         475.861         205.735 
       0.576825         466.649         201.143 
       0.582926         464.532         196.707 
       0.589034         457.772         192.396 
       0.595184         454.291         188.183 
       0.601379         447.143         184.064 
       0.607522         439.677           180.1 
       0.613639         438.347         176.269 
       0.619772         436.558         172.542 
       0.625918         428.758         168.917 
       0.632068         425.379         165.397 
       0.638161         421.416         162.013 
         0.6443         417.131         158.702 
       0.650464         412.387         155.475 
       0.656582          408.88         152.362 
       0.662703         405.586         149.334 
       0.668861         399.896          146.37 
       0.675024         397.407         143.484 
       0.681124         392.335         140.704 
       0.687237         390.246         137.993 
       0.693381         385.253         135.341 
       0.699536         383.035         132.757 
       0.705665         378.875         130.252 
       0.711789         377.392         127.816 
       0.717957         372.168         125.427 
        0.72409         368.403         123.112 
       0.730186         370.313         120.871 
       0.736317         363.617         118.674 
       0.742472         360.046         116.523 
       0.748622         356.826         114.428 
        0.75476         355.483          112.39 
       0.760888         351.989         110.404 
       0.767043         349.001         108.459 
       0.773185         347.188         106.565 
       0.779291         342.112         104.728 
       0.785407         340.858         102.932 
       0.791564         337.816         101.168 
       0.797719         332.704         99.4462 
       0.803834         335.302         97.7759 
       0.809972         330.136         96.1384 
       0.816124          326.57         94.5352 
       0.822261         323.937         92.9732 
       0.828378         323.114         91.4514 
       0.834502         318.404         89.9627 
       0.840667         318.537         88.4979 
       0.846816         313.011           87.07 
       0.852925         313.311          85.683 
       0.859047         310.298         84.3235 
       0.865192         309.471         82.9894 
       0.871341         305.108         81.6835 
       0.877463         302.898         80.4118 
       0.883569         301.452         79.1707 
       0.889708         298.801         77.9497 
       0.895864         296.406         76.7516 
       0.902008         294.547         75.5814 
       0.908149         292.159         74.4365 
       0.914301          290.65         73.3137 
       0.920448         289.048         72.2153 
       0.926574         286.846         71.1434 
       0.932687         285.259         70.0958 
       0.938823         282.426         69.0657 
       0.944975         281.559         68.0541 
       0.951105         278.819         67.0666 
       0.957225         276.135         66.1005 
       0.963368          276.26         65.1503 
       0.969511         271.222         64.2189 
       0.975621         270.579         63.3109 
       0.981748         269.265         62.4183 
       0.987916         268.004         61.5374 
        0.99406         265.568         60.6769 
        1.00019         263.592         59.8347 
        1.00632         263.096         59.0093 
        1.01246         260.933         58.1984 
        1.01859         257.995         57.4042 
        1.02471         256.263         56.6259 
        1.03085         255.416         55.8595 
        1.03698         253.846         55.1089 
        1.04314         253.349         54.3691 
        1.04929          251.46         53.6446 
        1.05541         249.111         52.9364 
        1.06154         247.423         52.2393 
        1.06769         245.379         51.5537 
        1.07382         245.126         50.8828 
        1.07993         242.295         50.2255 
        1.08607         240.832         49.5771 
        1.09222         239.519         48.9396 
        1.09836         238.736         48.3141 
        1.10449         236.676         47.7004 
        1.11063          234.98         47.0967 
        1.11677         233.583         46.5038 
         1.1229         232.372         45.9222 
        1.12903         231.066         45.3501 
        1.13518         229.371         44.7873 
        1.14131         228.606         44.2345 
        1.14745         226.055         43.6914 
        1.15359         224.367         43.1573 
        1.15973         223.911         42.6321 
        1.16584         222.892         42.1179 
        1.17197         221.259         41.6116 
        1.17811         219.444         41.1121 
        1.18424         218.262         40.6224 
        1.19038         217.066         40.1392 
        1.19652         214.876         39.6641 
        1.20267          214.25         39.1968 
        1.20881         212.636         38.7371 
        1.21495         212.364         38.2856 
        1.22108         210.699         37.8414 
         1.2272         208.672         37.4053 
        1.23334         207.979         36.9751 
        1.23949         207.231         36.5507 
        1.24562         205.634         36.1341 
        1.25174         204.361         35.7248 
        1.25789         202.642         35.3205 
        1.26402         202.532         34.9233 
        1.27014         201.531         34.5332 
        1.27628           199.2         34.1479 
        1.28244          198.47         33.7677 
        1.28858         197.182          33.394 
        1.29471         196.295         33.0267 
        1.30084         195.009         32.6653 
        1.30697         193.488         32.3088 
        1.31312         192.478         31.9571 
        1.31925         191.323         31.6118 
        1.32537         190.748          31.272 
        1.33151         189.492         30.9359 
        1.33765          187.89         30.6051 
        1.34378         187.333         30.2797 
        1.34992         186.139         29.9589 
        1.35606         185.053          29.642 
         1.3622         184.257         29.3304 
        1.36833         182.388          29.024 
        1.37445         182.433         28.7221 
        1.38059         180.692         28.4236 
        1.38675         179.647         28.1287 
        1.39288         178.558         27.8392 
        1.39901         177.628         27.5539 
        1.40515         176.908         27.2719 
         1.4113         175.544         26.9941 
        1.41742         174.155         26.7212 
        1.42355         174.482         26.4515 
         1.4297         172.701         26.1849 
        1.43585         171.891          25.922 
        1.44198         170.172         25.6637 
        1.44809          169.56         25.4095 
        1.45423          168.92         25.1577 
        1.46036         167.768         24.9099 
        1.46649         166.725         24.6653 
        1.47263         166.203         24.4239 
        1.47877         164.868         24.1857 
        1.48491         163.739         23.9504 
        1.49104         162.194         23.7188 
        1.49718         162.028           23.49 
        1.50333         161.145         23.2639 
        1.50947         160.141         23.0413 
         1.5156         159.068         22.8219 
        1.52172         158.442         22.6053 
        1.52787         157.554         22.3912 
          1.534         156.586         22.1801 
        1.54013         155.812         21.9719 
        1.54627         154.792         21.7661 
        1.55241          154.23         21.5628 
        1.55855         153.479         21.3625 
        1.56467         152.265         21.1653 
         1.5708         151.103           20.97 
        1.57695         150.688         20.7769 
        1.58308         149.622         20.5866 
        1.58922         149.216         20.3987 
        1.59535         148.141         20.2131 
         1.6015         147.077         20.0297 
        1.60764         146.254         19.8486 
        1.61376         145.446         19.6702 
        1.61989         144.781         19.4939 
        1.62604         143.717         19.3194 
        1.63218         143.167         19.1471 
        1.63831          142.25         18.9773 
        1.64444         141.335         18.8096 
        1.65059         140.634         18.6435 
        1.65673         140.049         18.4795 
        1.66285          139.56          18.318 
        1.66898         138.342         18.1584 
        1.67512         137.719         18.0004 
        1.68127         136.971         17.8442 
         1.6874         135.953         17.6901 
        1.69353         135.566          17.538 
        1.69967         134.527         17.3873 
        1.70581         134.172         17.2384 
        1.71193         133.093         17.0919 
        1.71806         132.137         16.9468 
        1.72421         131.758          16.803 
        1.73035          131.01         16.6611 
        1.73649         129.949         16.5209 
        1.74262         129.716         16.3824 
        1.74876         128.724         16.2454 
        1.75489         128.186         16.1102 
        1.76101         127.407         15.9766 
        1.76715         126.404         15.8444 
        1.77329         126.004         15.7135 
        1.77943         124.988          15.584 
        1.78557         124.674         15.4562 
        1.79171         124.029         15.3298 
        1.79785         122.882         15.2048 
        1.80399         122.554         15.0812 
        1.81012         121.491         14.9592 
        1.81625         121.265         14.8386 
        1.82239         120.532         14.7191 
        1.82853         119.981          14.601 
        1.83466         119.021         14.4843 
        1.84078         118.601          14.369 
        1.84692         118.286         14.2548 
        1.85306         117.293         14.1417 
         1.8592         116.808           14.03 
        1.86533         115.879         13.9196 
        1.87147          115.64         13.8102 
        1.87761          114.61          13.702 
        1.88375         113.934         13.5951 
        1.88988         113.194         13.4894 
        1.89601         113.077         13.3848 
        1.90215         112.514         13.2812 
        1.90829         111.495         13.1788 
        1.91442         110.792         13.0774 
        1.92056         110.374         12.9772 
         1.9267         109.709          12.878 
        1.93284         109.122         12.7797 
        1.93897         108.665         12.6827 
        1.94509         107.957         12.5869 
        1.95123         107.424         12.4918 
        1.95737         107.088         12.3976 
        1.96349         106.432         12.3047 
        1.96964          105.74         12.2124 
        1.97578         105.134         12.1211 
        1.98192         104.736         12.0309 
        1.98805          104.04         11.9416 
        1.99419         103.443         11.8531 
        2.00033         102.843         11.7656 
        2.00647         102.427         11.6789 
         2.0126         101.844         11.5933 
        2.01874         101.705         11.5084 
        2.02488         100.636         11.4243 
        2.03101         100.326         11.3412 
        2.03714         99.7144          11.259 
        2.04328         99.3293         11.1775 
        2.04941         98.8792         11.0969 
        2.05554         98.2345         11.0171 
        2.06167         97.4046          10.938 
        2.06781           96.92         10.8597 
        2.07396         96.6058          10.782 
        2.08009         95.8093         10.7053 
        2.08622         95.6222         10.6293 
        2.09237         95.1401          10.554 
        2.09851         94.3956         10.4794 
        2.10464          94.187         10.4056 
        2.11077          93.586         10.3327 
        2.11691         93.2754         10.2602 
        2.12305         92.6054         10.1885 
        2.12918         92.1534         10.1176 
        2.13531         91.6368         10.0474 
        2.14145           91.03          9.9777 
         2.1476         90.7556         9.90858 
        2.15372          90.129         9.84047 
        2.15985         89.6633         9.77292 
        2.16599         89.1478         9.70582 
        2.17213          88.814         9.63942 
        2.17827         88.1285         9.57366 
         2.1844         87.8161         9.50858 
        2.19054         87.3917         9.44407 
        2.19666         86.9514         9.38026 
         2.2028         86.5015         9.31699 
        2.20893         85.9959         9.25426 
        2.21508         85.5068         9.19205 
        2.22122         85.0289         9.13039 
        2.22736         84.7534         9.06942 
        2.23349         84.1788         9.00903 
        2.23962         83.8164         8.94915 
        2.24577         83.3754         8.88977 
         2.2519          82.927         8.83101 
        2.25802         82.4334         8.77288 
        2.26417          82.007         8.71511 
        2.27031         81.5495         8.65781 
        2.27644         81.1874         8.60119 
        2.28257         80.7964         8.54509 
        2.28872         80.3767         8.48937 
        2.29486         80.0727         8.43417 
        2.30099         79.4111         8.37957 
        2.30712          79.208         8.32544 
        2.31326         78.8326         8.27169 
         2.3194         78.2461         8.21844 
        2.32553         77.8825         8.16576 
        2.33166         77.4108         8.11356 
         2.3378         77.2735         8.06174 
        2.34394         76.8439         8.01037 
        2.35007         76.2777         7.95951 
        2.35619         75.9901         7.90916 
        2.36233         75.6104         7.85913 
        2.36848         75.1387         7.80942 
        2.37462         74.7596         7.76025 
        2.38075         74.4038         7.71156 
        2.38689          74.059         7.66324 
        2.39303         73.7012         7.61534 
        2.39916         73.2732         7.56791 
        2.40529          72.976         7.52088 
        2.41143         72.6006         7.47422 
        2.41757          72.127         7.42794 
         2.4237         71.7785         7.38213 
        2.42983          71.416         7.33672 
        2.43598          71.185         7.29156 
        2.44211         70.6223         7.24687 
        2.44823         70.4962         7.20265 
        2.45437          70.055         7.15867 
        2.46052         69.6433         7.11503 
        2.46665         69.1958         7.07183 
        2.47279         68.9345         7.02901 
        2.47892         68.5734         6.98651 
        2.48507         68.2072         6.94432 
         2.4912         67.8836         6.90256 
