# k  (h/Mpc)    Pcb(k)  (Mpc/h)^3    Pcb_linear(k)  (Mpc/h)^3
     0.00783031         16077.6         16180.3 
       0.013688         18271.4         18744.1 
       0.019231         17638.9         17893.5 
      0.0249154           15670         15593.4 
      0.0312784         12631.1         12706.7 
      0.0375637         10202.1         10327.7 
      0.0433917         8761.69         8764.46 
      0.0492413         7692.42         7747.73 
      0.0555754         7066.12         7057.74 
      0.0619321         6356.24         6545.96 
       0.067871         5974.13         6057.43 
      0.0738098         5461.53         5484.34 
      0.0800417         4826.47         4811.06 
      0.0862327         4163.44         4149.29 
      0.0921407         3666.52         3602.64 
      0.0982031         3292.09         3173.62 
       0.104506         2936.06         2872.75 
       0.110769          2761.6         2687.52 
       0.116806         2668.71         2567.78 
       0.122832          2522.9         2458.41 
       0.129052         2376.71          2321.3 
       0.135211         2264.49         2149.93 
       0.141259         2052.64         1958.41 
       0.147318         1862.03         1766.47 
       0.153489         1718.71         1593.94 
       0.159709         1629.44          1457.6 
       0.165845         1492.72         1361.74 
       0.171974         1462.19         1296.23 
       0.178125         1413.56         1247.41 
       0.184229         1313.28         1202.05 
        0.19034         1286.49          1149.9 
       0.196428         1238.53         1087.75 
       0.202534         1146.45         1017.77 
       0.208729         1116.52         945.409 
       0.214876         1055.46         879.181 
       0.220989         992.093         823.479 
       0.227147         964.215         779.014 
        0.23329         925.444         744.678 
       0.239377         917.788         717.067 
       0.245482         870.569         691.802 
       0.251667         838.446         665.469 
       0.257832         823.636         636.926 
       0.263955         779.841          606.49 
       0.270079         751.092         575.441 
        0.27624         719.039         545.533 
       0.282372         705.042         518.612 
        0.28843         694.863         495.578 
       0.294538         659.703         475.752 
       0.300721         643.659         458.376 
        0.30691         629.472         442.517 
       0.313033         601.629         427.335 
       0.319153           593.4         411.996 
       0.325316         583.472         396.248 
        0.33145         568.612         380.498 
       0.337538         547.433          365.28 
       0.343633         533.012         350.898 
       0.349808         519.797         337.536 
       0.355968         510.191         325.452 
       0.362074         491.169          314.58 
       0.368217         488.771         304.453 
       0.374374         480.463         294.799 
       0.380519         460.903         285.435 
       0.386598         456.286         276.288 
       0.392688         444.524         267.265 
        0.39888          433.66         258.321 
       0.405048         424.093         249.752 
       0.411186         423.398         241.682 
       0.417313         417.735         234.119 
       0.423458         406.058         227.006 
       0.429607         393.901         220.309 
       0.435692         388.776         214.007 
       0.441815         381.436         207.898 
       0.447964          373.83          201.95 
       0.454126          369.66         196.155 
       0.460267         363.501         190.539 
       0.466387         355.722         185.127 
        0.47254         351.428         179.901 
       0.478662         344.027          174.93 
       0.484765         339.145         170.198 
       0.490885         335.859         165.667 
       0.497035         328.571          161.31 
       0.503198         328.042         157.112 
       0.509342         320.741         153.068 
       0.515458         314.695         149.167 
       0.521598         310.492         145.373 
       0.527764         305.753         141.685 
       0.533884         303.117         138.145 
           0.54         299.257          134.73 
       0.546137         292.855         131.428 
       0.552299         291.461         128.237 
       0.558452         286.478         125.168 
       0.564573         285.011          122.22 
       0.570708           279.7         119.361 
       0.576825         274.965           116.6 
       0.582926         273.504         113.932 
       0.589034         268.537         111.342 
       0.595184         266.842         108.814 
       0.601379         262.679         106.346 
       0.607522         256.858         103.976 
       0.613639         256.199         101.689 
       0.619772         255.049         99.4687 
       0.625918         250.328         97.3135 
       0.632068         247.636         95.2234 
       0.638161         246.266         93.2146 
         0.6443         242.492         91.2495 
       0.650464         239.659         89.3333 
       0.656582         237.167          87.485 
       0.662703         236.179         85.6883 
       0.668861         231.265          83.932 
       0.675024         230.547         82.2244 
       0.681124         227.153         80.5826 
       0.687237         225.989         78.9836 
       0.693381         222.181         77.4214 
       0.699536         221.495         75.8995 
       0.705665         218.953         74.4255 
       0.711789         216.379         72.9923 
       0.717957          214.79         71.5871 
        0.72409         211.709         70.2269 
       0.730186         212.877         68.9105 
       0.736317         209.491          67.621 
       0.742472         207.196         66.3602 
       0.748622         205.034         65.1331 
        0.75476         204.641         63.9401 
       0.760888         202.036         62.7793 
       0.767043         199.251          61.643 
       0.773185         197.667         60.5377 
       0.779291         195.948          59.466 
       0.785407         194.813          58.419 
       0.791564         193.257         57.3908 
       0.797719         190.012         56.3881 
       0.803834         191.016         55.4159 
       0.809972         188.558         54.4634 
       0.816124         185.582         53.5314 
       0.822261         184.618         52.6239 
       0.828378         183.878         51.7404 
       0.834502         181.826         50.8765 
       0.840667         181.771         50.0271 
       0.846816         178.287         49.1995 
       0.852925         178.153         48.3961 
       0.859047         176.338         47.6091 
       0.865192         175.845         46.8372 
       0.871341         173.911          46.082 
       0.877463         172.311         45.3471 
       0.883569         172.073         44.6302 
       0.889708         170.558         43.9252 
       0.895864         168.535         43.2338 
       0.902008          167.22         42.5588 
       0.908149          165.79         41.8987 
       0.914301         164.697         41.2517 
       0.920448         164.411         40.6191 
       0.926574          162.38          40.002 
       0.932687         162.266         39.3992 
       0.938823         160.722         38.8068 
       0.944975          160.18         38.2253 
       0.951105         158.358         37.6579 
       0.957225         157.274         37.1031 
       0.963368          156.86         36.5577 
       0.969511          154.92         36.0233 
       0.975621         153.077         35.5026 
       0.981748         152.958         34.9909 
       0.987916           152.1         34.4862 
        0.99406         150.949         33.9934 
        1.00019         150.185         33.5113 
        1.00632         149.016         33.0391 
        1.01246         148.084         32.5754 
        1.01859         146.823         32.1213 
        1.02471         145.851         31.6766 
        1.03085         144.944         31.2388 
        1.03698         144.205         30.8103 
        1.04314         143.668         30.3881 
        1.04929         142.834         29.9748 
        1.05541         142.228          29.571 
        1.06154         140.695         29.1736 
        1.06769         139.982          28.783 
        1.07382         139.042         28.4009 
        1.07993         138.139         28.0266 
        1.08607         137.889         27.6576 
        1.09222         136.398         27.2949 
        1.09836         135.776         26.9391 
        1.10449         135.018         26.5902 
        1.11063         133.876         26.2471 
        1.11677         133.367         25.9101 
         1.1229         132.366         25.5798 
        1.12903         131.298         25.2549 
        1.13518         130.638         24.9354 
        1.14131         130.333         24.6217 
        1.14745          129.17         24.3136 
        1.15359         128.357         24.0107 
        1.15973         127.838          23.713 
        1.16584         126.955         23.4216 
        1.17197         126.476         23.1347 
        1.17811         125.445         22.8518 
        1.18424         124.798         22.5745 
        1.19038          124.14          22.301 
        1.19652         123.328         22.0322 
        1.20267         122.497         21.7678 
        1.20881         121.669         21.5079 
        1.21495          121.58         21.2526 
        1.22108         120.518         21.0016 
         1.2272         120.071         20.7552 
        1.23334         119.261         20.5122 
        1.23949         118.745         20.2726 
        1.24562         117.846         20.0375 
        1.25174         117.773         19.8065 
        1.25789         116.647         19.5785 
        1.26402         116.198         19.3545 
        1.27014         115.356         19.1346 
        1.27628         114.928         18.9174 
        1.28244         114.325         18.7032 
        1.28858         113.639         18.4927 
        1.29471         112.809         18.2859 
        1.30084         112.148         18.0824 
        1.30697         111.481         17.8818 
        1.31312         111.073         17.6839 
        1.31925         110.135         17.4897 
        1.32537         109.692         17.2985 
        1.33151         109.447         17.1096 
        1.33765         108.629         16.9236 
        1.34378         108.398         16.7408 
        1.34992         107.588         16.5606 
        1.35606         107.243         16.3826 
         1.3622         106.699         16.2075 
        1.36833         105.865         16.0355 
        1.37445         105.605          15.866 
        1.38059         104.874         15.6985 
        1.38675         104.334         15.5331 
        1.39288         103.692         15.3706 
        1.39901         103.154         15.2106 
        1.40515         102.746         15.0525 
         1.4113          102.13         14.8967 
        1.41742         101.874         14.7438 
        1.42355         101.314         14.5927 
         1.4297         100.634         14.4433 
        1.43585         100.239          14.296 
        1.44198         99.4505         14.1514 
        1.44809         99.0864         14.0091 
        1.45423         98.8916         13.8682 
        1.46036         97.8913         13.7295 
        1.46649         97.4841         13.5927 
        1.47263         96.8845         13.4576 
        1.47877         96.6139         13.3244 
        1.48491         96.1077         13.1929 
        1.49104         95.4317         13.0634 
        1.49718         95.0187         12.9355 
        1.50333         94.5205         12.8092 
        1.50947         94.3411         12.6849 
         1.5156         93.7078         12.5623 
        1.52172         92.9784         12.4414 
        1.52787         92.8309         12.3219 
          1.534         92.3335         12.2041 
        1.54013         91.7788         12.0879 
        1.54627         91.2507         11.9731 
        1.55241         91.0833         11.8597 
        1.55855         90.3047          11.748 
        1.56467         89.8972          11.638 
         1.5708         89.1612         11.5291 
        1.57695          89.145         11.4215 
        1.58308         88.5815         11.3155 
        1.58922         88.2347         11.2107 
        1.59535         88.1396         11.1073 
         1.6015         87.3339         11.0051 
        1.60764          86.889         10.9043 
        1.61376         86.7372          10.805 
        1.61989         86.1347         10.7068 
        1.62604         85.7513         10.6096 
        1.63218         85.2338         10.5138 
        1.63831         84.8928         10.4193 
        1.64444         84.3533          10.326 
        1.65059         83.9524         10.2335 
        1.65673         83.8736         10.1424 
        1.66285         83.3606         10.0526 
        1.66898          82.673         9.96382 
        1.67512         82.2241         9.87599 
        1.68127         82.0784         9.78913 
         1.6874         81.6097         9.70352 
        1.69353         81.1604         9.61899 
        1.69967         80.7035         9.53527 
        1.70581         80.4698         9.45258 
        1.71193         80.0392         9.37119 
        1.71806           79.66          9.2906 
        1.72421         79.1983         9.21079 
        1.73035         78.8099         9.13202 
        1.73649         78.4945         9.05419 
        1.74262         78.0944         8.97733 
        1.74876         77.5858         8.90132 
        1.75489         77.4446         8.82635 
        1.76101         77.1632         8.75227 
        1.76715         76.6296         8.67894 
        1.77329         76.2186         8.60636 
        1.77943         75.9661         8.53459 
        1.78557         75.6905         8.46374 
        1.79171         75.1267         8.39369 
        1.79785         74.7892         8.32441 
        1.80399         74.5981         8.25594 
        1.81012         74.0104         8.18833 
        1.81625         73.7337         8.12151 
        1.82239         73.2929         8.05534 
        1.82853         73.0581         7.98994 
        1.83466         72.6309         7.92533 
        1.84078         72.3571         7.86151 
        1.84692         72.1273         7.79828 
        1.85306         71.9655         7.73568 
         1.8592         71.4954         7.67387 
        1.86533         71.0235         7.61277 
        1.87147         70.7136         7.55227 
        1.87761         70.1078          7.4924 
        1.88375         70.1155         7.43325 
        1.88988         69.6338         7.37481 
        1.89601         69.5185         7.31696 
        1.90215         69.0994         7.25969 
        1.90829         68.6385         7.20307 
        1.91442         68.2572         7.14705 
        1.92056         68.1171         7.09167 
         1.9267         67.7696         7.03683 
        1.93284         67.6285         6.98254 
        1.93897          67.083         6.92892 
        1.94509         66.8531         6.87598 
        1.95123         66.5118         6.82347 
        1.95737         66.2967         6.77147 
        1.96349         66.0567         6.72014 
        1.96964         65.6801          6.6692 
        1.97578         65.2696         6.61877 
        1.98192         64.8818         6.56897 
        1.98805         64.5492         6.51967 
        1.99419         64.5905         6.47088 
        2.00033          64.033         6.42256 
        2.00647         63.6776         6.37476 
         2.0126         63.5495         6.32752 
        2.01874         63.3682         6.28069 
        2.02488         63.0347          6.2343 
        2.03101          62.584         6.18846 
        2.03714          62.365         6.14313 
        2.04328         62.1736          6.0982 
        2.04941         61.7991         6.05376 
        2.05554         61.4298          6.0098 
        2.06167         61.1325         5.96621 
        2.06781         60.9413         5.92305 
        2.07396          60.575         5.88026 
        2.08009         60.4356         5.83796 
        2.08622         60.0353         5.79614 
        2.09237         59.8385         5.75463 
        2.09851         59.4371         5.71353 
        2.10464          59.168          5.6729 
        2.11077          59.029         5.63272 
        2.11691         58.7598         5.59284 
        2.12305         58.4037         5.55334 
        2.12918         58.1246         5.51432 
        2.13531         57.9407         5.47567 
        2.14145         57.5603          5.4373 
         2.1476         57.5323         5.39926 
        2.15372         57.0509         5.36178 
        2.15985         56.8537         5.32461 
        2.16599          56.656         5.28769 
        2.17213         56.3485         5.25116 
        2.17827         55.9658         5.21499 
         2.1844         55.7655         5.17919 
        2.19054         55.6544         5.14372 
        2.19666         55.3724         5.10863 
         2.2028         55.0893         5.07383 
        2.20893         54.7347         5.03935 
        2.21508         54.5357         5.00515 
        2.22122         54.1959         4.97125 
        2.22736         53.9848         4.93774 
        2.23349         53.8001         4.90455 
        2.23962          53.625         4.87165 
        2.24577         53.3222         4.83902 
         2.2519         53.0548         4.80673 
        2.25802          52.821         4.77479 
        2.26417          52.626         4.74306 
        2.27031         52.4263         4.71158 
        2.27644         52.0113         4.68048 
        2.28257          51.918         4.64967 
        2.28872         51.6239         4.61907 
        2.29486         51.4373         4.58876 
        2.30099         51.1223         4.55879 
        2.30712         50.9238         4.52906 
        2.31326          50.727         4.49956 
         2.3194         50.5063         4.47033 
        2.32553          50.227         4.44142 
        2.33166         50.0679         4.41277 
         2.3378         49.7904         4.38434 
        2.34394         49.5865         4.35615 
        2.35007         49.3837         4.32825 
        2.35619         49.1729         4.30062 
        2.36233         49.0056         4.27318 
        2.36848         48.6877         4.24592 
        2.37462         48.4667         4.21895 
        2.38075         48.2143         4.19224 
        2.38689         48.0094         4.16575 
        2.39303         47.9032         4.13948 
        2.39916         47.6344         4.11348 
        2.40529         47.4841         4.08769 
        2.41143         47.2795         4.06211 
        2.41757         47.0051         4.03674 
         2.4237         46.8413         4.01164 
        2.42983         46.6443         3.98674 
        2.43598          46.442           3.962 
        2.44211         46.1618         3.93751 
        2.44823         46.0651         3.91327 
        2.45437         45.7242         3.88918 
        2.46052         45.5236         3.86527 
        2.46665         45.3055          3.8416 
        2.47279         45.1501         3.81815 
        2.47892         44.9553         3.79487 
        2.48507         44.7739         3.77176 
         2.4912          44.519         3.74889 
