# k  (h/Mpc)    P(k)  (Mpc/h)^3    P_linear(k)  (Mpc/h)^3
     0.00783031          867.23          875.66 
       0.013688         998.598         1009.28 
       0.019231         954.294         958.248 
      0.0249154         827.983         826.817 
      0.0312784         663.679         662.618 
      0.0375637         528.266         528.024 
      0.0433917          442.37         440.618 
      0.0492413         385.798         385.254 
      0.0555754         351.447         349.949 
      0.0619321         324.522         326.131 
       0.067871          303.87         303.979 
      0.0738098         276.863         276.753 
      0.0800417           243.6         242.876 
      0.0862327         208.392             208 
      0.0921407         178.733         178.269 
      0.0982031         155.657         154.524 
       0.104506         138.117          137.93 
       0.110769         128.547         128.269 
       0.116806         123.659         122.925 
       0.122832         118.874         118.775 
       0.129052         113.801         113.425 
       0.135211         106.575         105.921 
       0.141259         97.0214         96.6641 
       0.147318         86.8499         86.6978 
       0.153489         77.7577          77.286 
       0.159709         70.3769         69.6444 
       0.165845         64.5325         64.3083 
       0.171974         61.7476          60.917 
       0.178125         59.4429         58.7933 
       0.184229         57.5069         57.1361 
        0.19034         55.8483          55.213 
       0.196428         53.1946         52.6331 
       0.202534         49.5234         49.3683 
       0.208729         46.2578         45.6777 
       0.214876         42.9038         42.0904 
       0.220989         39.4729         38.9821 
       0.227147         37.3705         36.5213 
        0.23329         35.5917         34.7382 
       0.239377         34.3519         33.4758 
       0.245482         33.2478         32.4694 
       0.251667         32.0328         31.4653 
       0.257832         31.1277         30.3073 
       0.263955         29.5454         28.9433 
       0.270079          28.025         27.4201 
        0.27624         26.3935         25.8547 
       0.282372         24.9927          24.395 
        0.28843         23.9659         23.1469 
       0.294538         22.8809         22.1155 
       0.300721          21.904         21.2816 
        0.30691         21.3506         20.5893 
       0.313033          20.648         19.9639 
       0.319153         20.1702         19.3277 
       0.325316         19.2511         18.6384 
        0.33145         18.4832         17.8999 
       0.337538         17.7711          17.143 
       0.343633         17.1128         16.3998 
       0.349808         16.3717         15.7023 
       0.355968          15.728         15.0825 
       0.362074         15.2998         14.5501 
       0.368217          14.782         14.0812 
       0.374374         14.4284         13.6553 
       0.380519         13.9059         13.2499 
       0.386598         13.4549         12.8472 
       0.392688         13.0078         12.4361 
        0.39888          12.652         12.0108 
       0.405048         12.2565         11.5894 
       0.411186         11.8317          11.186 
       0.417313         11.4518         10.8086 
       0.423458         11.0451         10.4601 
       0.429607         10.8095         10.1427 
       0.435692         10.5499         9.85287 
       0.441815         10.1917         9.57738 
       0.447964         9.86882         9.31061 
       0.454126         9.66333         9.04783 
       0.460267         9.46129         8.78703 
       0.466387         9.16549         8.53042 
        0.47254          8.9497         8.27902 
       0.478662          8.6719         8.03826 
       0.484765         8.44528         7.80978 
       0.490885         8.18606         7.59406 
       0.497035         7.96325         7.39043 
       0.503198         7.81244         7.19688 
       0.509342         7.57181         7.01169 
       0.515458         7.42693         6.83319 
       0.521598         7.25349         6.65875 
       0.527764         7.11035         6.48742 
       0.533884         6.87825         6.32095 
           0.54         6.74353         6.15927 
       0.546137         6.54486         6.00279 
       0.552299           6.407          5.8524 
       0.558452         6.25043         5.70874 
       0.564573         6.13041         5.57159 
       0.570708         5.99272          5.4393 
       0.576825         5.86526         5.31201 
       0.582926         5.72511         5.18913 
       0.589034         5.61531         5.06968 
       0.595184         5.52118         4.95258 
       0.601379         5.37022         4.83766 
       0.607522          5.2497         4.72689 
       0.613639         5.13004            4.62 
       0.619772         5.04331         4.51644 
       0.625918         4.93471          4.4164 
       0.632068         4.84705         4.31976 
       0.638161         4.74315          4.2271 
         0.6443         4.64259         4.13655 
       0.650464         4.54242         4.04818 
       0.656582         4.48201         3.96282 
       0.662703         4.39468         3.87976 
       0.668861         4.27927         3.79853 
       0.675024         4.19996         3.71956 
       0.681124         4.17729         3.64368 
       0.687237         4.07157         3.56986 
       0.693381         3.96635         3.49781 
       0.699536         3.92514         3.42767 
       0.705665         3.84895         3.35978 
       0.711789         3.76112          3.2938 
       0.717957         3.68966         3.22912 
        0.72409         3.63457         3.16652 
       0.730186         3.59699         3.10595 
       0.736317         3.50703         3.04663 
       0.742472         3.46229         2.98865 
       0.748622         3.40469         2.93224 
        0.75476         3.31997         2.87743 
       0.760888         3.28341         2.82412 
       0.767043         3.19899         2.77197 
       0.773185         3.15914         2.72126 
       0.779291         3.13377         2.67212 
       0.785407         3.06657         2.62412 
       0.791564         3.01479           2.577 
       0.797719         2.96287         2.53106 
       0.803834         2.92269         2.48652 
       0.809972         2.86923          2.4429 
       0.816124         2.82717         2.40023 
       0.822261         2.78457         2.35869 
       0.828378         2.73974         2.31826 
       0.834502         2.69627         2.27875 
       0.840667         2.66408         2.23991 
       0.846816         2.61066         2.20209 
       0.852925         2.57337         2.16539 
       0.859047         2.53394         2.12945 
       0.865192         2.49704         2.09421 
       0.871341         2.46289         2.05976 
       0.877463         2.41881         2.02623 
       0.883569         2.38961         1.99355 
       0.889708         2.35747         1.96141 
       0.895864         2.32334         1.92991 
       0.902008         2.28188         1.89917 
       0.908149         2.25275         1.86912 
       0.914301         2.22346         1.83967 
       0.920448         2.19736         1.81088 
       0.926574         2.17456         1.78281 
       0.932687         2.13804          1.7554 
       0.938823         2.09656         1.72847 
       0.944975          2.0808         1.70204 
       0.951105         2.03626         1.67627 
       0.957225         2.02069         1.65107 
       0.963368         1.99531          1.6263 
       0.969511          1.9706         1.60205 
       0.975621         1.93792         1.57842 
       0.981748         1.90319          1.5552 
       0.987916         1.88409         1.53231 
        0.99406         1.86684         1.50997 
        1.00019         1.84124         1.48812 
        1.00632         1.82285         1.46672 
        1.01246         1.79543         1.44571 
        1.01859         1.77366         1.42515 
        1.02471         1.74346         1.40501 
        1.03085         1.72387         1.38519 
        1.03698         1.70577          1.3658 
        1.04314          1.6841         1.34669 
        1.04929         1.66652           1.328 
        1.05541         1.63898         1.30974 
        1.06154         1.62592         1.29177 
        1.06769         1.60999         1.27412 
        1.07382         1.58433         1.25686 
        1.07993         1.56348         1.23995 
        1.08607         1.55062         1.22329 
        1.09222         1.52766         1.20691 
        1.09836         1.51802         1.19086 
        1.10449         1.48824         1.17512 
        1.11063          1.4737         1.15964 
        1.11677         1.45999         1.14445 
         1.1229         1.43903         1.12956 
        1.12903          1.4284         1.11492 
        1.13518         1.40717         1.10053 
        1.14131         1.39342          1.0864 
        1.14745         1.37824         1.07253 
        1.15359         1.36166         1.05889 
        1.15973         1.34601         1.04549 
        1.16584         1.33183         1.03238 
        1.17197         1.31423         1.01948 
        1.17811         1.29976         1.00676 
        1.18424          1.2859        0.994293 
        1.19038         1.27148        0.982002 
        1.19652         1.26007        0.969923 
        1.20267         1.25003        0.958047 
        1.20881         1.23221        0.946373 
        1.21495         1.22026        0.934912 
        1.22108         1.20909        0.923643 
         1.2272         1.19093        0.912586 
        1.23334         1.18256        0.901685 
        1.23949         1.16934        0.890936 
        1.24562         1.15808        0.880393 
        1.25174         1.14869        0.870036 
        1.25789         1.13166        0.859813 
        1.26402         1.12051        0.849774 
        1.27014         1.10676        0.839918 
        1.27628         1.09885         0.83019 
        1.28244         1.08718        0.820596 
        1.28858         1.07562        0.811167 
        1.29471         1.06309        0.801907 
        1.30084          1.0548          0.7928 
        1.30697         1.04705        0.783821 
        1.31312         1.03497        0.774968 
        1.31925         1.02482         0.76628 
        1.32537         1.01621        0.757733 
        1.33151         1.00404        0.749286 
        1.33765        0.995207        0.740974 
        1.34378        0.985627        0.732803 
        1.34992        0.977984         0.72475 
        1.35606        0.966984        0.716801 
         1.3622        0.959066        0.708986 
        1.36833        0.948698        0.701305 
        1.37445        0.939103        0.693742 
        1.38059        0.931215        0.686268 
        1.38675         0.92209        0.678886 
        1.39288        0.915267        0.671641 
        1.39901        0.905015        0.664506 
        1.40515        0.896952        0.657459 
         1.4113        0.891728        0.650516 
        1.41742        0.880213        0.643701 
        1.42355        0.871559         0.63697 
         1.4297        0.865676        0.630315 
        1.43585        0.857242        0.623757 
        1.44198        0.850189        0.617318 
        1.44809        0.842381        0.610982 
        1.45423        0.834765        0.604712 
        1.46036        0.827933         0.59854 
        1.46649        0.818352        0.592453 
        1.47263        0.813262        0.586445 
        1.47877         0.80951        0.580522 
        1.48491        0.796638        0.574673 
        1.49104        0.792759        0.568916 
        1.49718        0.783948        0.563233 
        1.50333         0.77825        0.557619 
        1.50947        0.772735        0.552093 
         1.5156        0.765741         0.54665 
        1.52172        0.759629        0.541281 
        1.52787        0.752169        0.535972 
          1.534         0.74787        0.530741 
        1.54013         0.74062        0.525586 
        1.54627        0.734253        0.520489 
        1.55241        0.727387        0.515459 
        1.55855        0.721878        0.510503 
        1.56467        0.715858        0.505625 
         1.5708        0.710456        0.500798 
        1.57695        0.703603        0.496026 
        1.58308         0.69683        0.491327 
        1.58922        0.692999        0.486685 
        1.59535        0.685742        0.482105 
         1.6015        0.680569        0.477578 
        1.60764        0.675489        0.473111 
        1.61376        0.669668        0.468713 
        1.61989        0.664907        0.464368 
        1.62604        0.657891        0.460068 
        1.63218        0.654931        0.455825 
        1.63831        0.648854        0.451645 
        1.64444        0.644087        0.447516 
        1.65059        0.639466        0.443429 
        1.65673        0.632769        0.439397 
        1.66285        0.628724        0.435426 
        1.66898        0.624774        0.431504 
        1.67512         0.61743        0.427622 
        1.68127        0.613422        0.423784 
         1.6874        0.610722        0.420001 
        1.69353        0.604243        0.416267 
        1.69967        0.600589        0.412569 
        1.70581        0.597277        0.408918 
        1.71193        0.590709        0.405325 
        1.71806        0.587775        0.401767 
        1.72421         0.58324        0.398245 
        1.73035        0.576827        0.394769 
        1.73649        0.575569        0.391335 
        1.74262        0.569028        0.387944 
        1.74876        0.565412        0.384592 
        1.75489        0.562042        0.381285 
        1.76101         0.55618        0.378019 
        1.76715        0.552996        0.374787 
        1.77329        0.549546        0.371588 
        1.77943        0.545441        0.368425 
        1.78557        0.542522        0.365304 
        1.79171        0.538401        0.362218 
        1.79785        0.534217        0.359167 
        1.80399        0.528845        0.356152 
        1.81012        0.526237        0.353175 
        1.81625        0.522331        0.350234 
        1.82239        0.519274        0.347321 
        1.82853        0.514888        0.344443 
        1.83466        0.511375        0.341601 
        1.84078        0.507522        0.338793 
        1.84692        0.504146        0.336013 
        1.85306        0.501926         0.33326 
         1.8592        0.496841        0.330542 
        1.86533        0.494576        0.327856 
        1.87147        0.489505        0.325197 
        1.87761        0.486964        0.322566 
        1.88375        0.483677        0.319967 
        1.88988        0.479628          0.3174 
        1.89601        0.476231        0.314859 
        1.90215        0.473973        0.312344 
        1.90829        0.470194        0.309858 
        1.91442        0.467614        0.307398 
        1.92056        0.464873        0.304968 
         1.9267         0.46106        0.302561 
        1.93284        0.457493        0.300178 
        1.93897        0.454807        0.297826 
        1.94509         0.45231        0.295504 
        1.95123        0.448193          0.2932 
        1.95737        0.445994         0.29092 
        1.96349        0.442525        0.288669 
        1.96964         0.44082        0.286436 
        1.97578        0.436631        0.284225 
        1.98192        0.434249        0.282042 
        1.98805        0.431595        0.279882 
        1.99419        0.429081        0.277744 
        2.00033        0.426716        0.275628 
        2.00647        0.424082        0.273534 
         2.0126        0.421331        0.271465 
        2.01874        0.418351        0.269414 
        2.02488        0.414922        0.267383 
        2.03101        0.412551        0.265377 
        2.03714        0.410969        0.263392 
        2.04328        0.407609        0.261426 
        2.04941        0.405159        0.259482 
        2.05554        0.402444        0.257558 
        2.06167        0.400261        0.255652 
        2.06781        0.396758        0.253764 
        2.07396        0.395879        0.251893 
        2.08009        0.392577        0.250044 
        2.08622        0.390351        0.248216 
        2.09237         0.38827        0.246402 
        2.09851        0.385429        0.244606 
        2.10464         0.38323         0.24283 
        2.11077        0.379663        0.241075 
        2.11691        0.378248        0.239333 
        2.12305        0.377136        0.237607 
        2.12918         0.37359        0.235904 
        2.13531        0.371555        0.234216 
        2.14145        0.369066        0.232541 
         2.1476          0.3671        0.230881 
        2.15372         0.36524        0.229245 
        2.15985        0.362392        0.227623 
        2.16599        0.360838        0.226012 
        2.17213        0.358594        0.224419 
        2.17827        0.355923        0.222841 
         2.1844        0.354525         0.22128 
        2.19054        0.352555        0.219733 
        2.19666        0.350371        0.218203 
         2.2028        0.348076        0.216687 
        2.20893        0.346716        0.215184 
        2.21508         0.34442        0.213693 
        2.22122        0.342544        0.212216 
        2.22736        0.339296        0.210756 
        2.23349        0.337573         0.20931 
        2.23962        0.336388        0.207877 
        2.24577         0.33448        0.206456 
         2.2519        0.332299         0.20505 
        2.25802        0.330822         0.20366 
        2.26417        0.328355        0.202278 
        2.27031        0.326988        0.200908 
        2.27644        0.325901        0.199555 
        2.28257        0.322993        0.198214 
        2.28872        0.321948        0.196883 
        2.29486        0.319742        0.195564 
        2.30099        0.317797         0.19426 
        2.30712        0.316117        0.192968 
        2.31326         0.31452        0.191685 
         2.3194        0.312694        0.190414 
        2.32553        0.310785        0.189157 
        2.33166        0.309874        0.187912 
         2.3378        0.307893        0.186676 
        2.34394        0.306357        0.185451 
        2.35007        0.303869        0.184238 
        2.35619        0.301981        0.183038 
        2.36233        0.300915        0.181846 
        2.36848          0.2997        0.180662 
        2.37462        0.297988        0.179491 
        2.38075        0.296278        0.178331 
        2.38689         0.29506        0.177181 
        2.39303        0.293112        0.176041 
        2.39916        0.291712        0.174912 
        2.40529        0.290309        0.173793 
        2.41143        0.288322        0.172683 
        2.41757           0.287        0.171582 
         2.4237         0.28553        0.170493 
        2.42983        0.283721        0.169413 
        2.43598        0.282575         0.16834 
        2.44211        0.280875        0.167278 
        2.44823        0.279692        0.166227 
        2.45437        0.278608        0.165183 
        2.46052        0.277249        0.164146 
        2.46665        0.275356         0.16312 
        2.47279        0.273975        0.162104 
        2.47892        0.272722        0.161095 
        2.48507        0.271689        0.160094 
         2.4912        0.269939        0.159103 
