# k  (h/Mpc)    P(k)  (Mpc/h)^3    P_linear(k)  (Mpc/h)^3
     0.00783031         5015.85         5079.07 
       0.013688         6623.84         6603.98 
       0.019231         7031.14         7031.76 
      0.0249154         6750.13         6842.47 
      0.0312784         6201.84         6246.23 
      0.0375637         5540.27         5546.08 
      0.0433917         4892.88         4952.95 
      0.0492413         4448.78         4473.32 
      0.0555754         4008.36         4087.22 
      0.0619321         3805.39         3801.75 
       0.067871          3517.5         3580.76 
      0.0738098          3299.7         3364.97 
      0.0800417         3032.59         3119.93 
      0.0862327         2795.18         2854.55 
      0.0921407          2561.3         2594.27 
      0.0982031         2300.89         2340.76 
       0.104506         2119.91         2111.68 
       0.110769         1939.18         1929.92 
       0.116806         1795.44         1797.98 
       0.122832         1709.62         1700.29 
       0.129052         1606.31         1621.53 
       0.135211         1536.78         1551.15 
       0.141259         1478.68         1478.43 
       0.147318          1405.1         1396.64 
       0.153489         1302.68         1304.79 
       0.159709         1223.75         1209.02 
       0.165845          1158.4         1118.73 
       0.171974         1074.53         1039.06 
       0.178125         1014.48          973.18 
       0.184229         969.698         921.944 
        0.19034         908.985         882.189 
       0.196428         893.831         849.819 
       0.202534         870.222         819.995 
       0.208729         832.132          788.59 
       0.214876         790.791         754.219 
       0.220989         768.181         716.833 
       0.227147           722.6         677.557 
        0.23329         690.467         639.187 
       0.239377         669.935          604.26 
       0.245482         625.293         573.807 
       0.251667         615.923         548.083 
       0.257832         594.683         526.992 
       0.263955         575.446         509.214 
       0.270079           557.5         493.006 
        0.27624         550.477         476.872 
       0.282372         528.598         460.042 
        0.28843         512.835         442.435 
       0.294538         490.432         424.008 
       0.300721         485.061         405.416 
        0.30691         462.226         387.684 
       0.313033         451.178         371.673 
       0.319153         434.439         357.506 
       0.325316         423.161         345.055 
        0.33145         410.701         334.126 
       0.337538         405.586         324.219 
       0.343633         392.909         314.715 
       0.349808         381.409         305.123 
       0.355968         375.918         295.348 
       0.362074         366.643         285.502 
       0.368217         357.034         275.582 
       0.374374         345.173         265.906 
       0.380519         339.219         256.763 
       0.386598         331.105         248.379 
       0.392688         327.387         240.718 
        0.39888         318.657         233.593 
       0.405048         312.314         227.036 
       0.411186         305.632         220.862 
       0.417313         299.885          214.87 
       0.423458         294.254         208.932 
       0.429607         287.392         203.016 
       0.435692         279.584         197.195 
       0.441815         277.737         191.454 
       0.447964         272.902         185.885 
       0.454126         261.947         180.563 
       0.460267         259.139          175.57 
       0.466387         255.869         170.908 
        0.47254         250.887         166.491 
       0.478662         248.749         162.316 
       0.484765         242.237         158.319 
       0.490885         238.717         154.421 
       0.497035         235.468         150.571 
       0.503198         229.535         146.782 
       0.509342          226.72         143.086 
       0.515458         223.746           139.5 
       0.521598         220.921         136.016 
       0.527764         217.361         132.657 
       0.533884         213.977         129.477 
           0.54         211.026         126.441 
       0.546137         209.675          123.52 
       0.552299         206.096         120.697 
       0.558452         202.516         117.971 
       0.564573         198.986         115.336 
       0.570708         196.324         112.757 
       0.576825         193.746          110.24 
       0.582926         191.016         107.791 
       0.589034         187.938         105.408 
       0.595184         186.258         103.086 
       0.601379         184.567         100.825 
       0.607522          180.28         98.6595 
       0.613639         179.963         96.5756 
       0.619772          175.89         94.5563 
       0.625918         174.375         92.5978 
       0.632068         172.426          90.696 
       0.638161         171.021         88.8623 
         0.6443         168.563         87.0597 
       0.650464         166.728         85.2928 
       0.656582         165.074         83.5831 
       0.662703         162.321         81.9183 
       0.668861         160.651          80.291 
       0.675024          158.84         78.7107 
       0.681124         157.615         77.1929 
       0.687237         154.859         75.7148 
       0.693381         153.097         74.2701 
       0.699536         151.712         72.8612 
       0.705665         152.283         71.4945 
       0.711789         148.354         70.1636 
       0.717957         147.818         68.8572 
        0.72409         145.766          67.591 
       0.730186         143.385         66.3642 
       0.736317         143.086         65.1612 
       0.742472         141.753         63.9836 
       0.748622         140.739         62.8364 
        0.75476          139.32           61.72 
       0.760888         137.457         60.6327 
       0.767043          136.26         59.5677 
       0.773185         134.894         58.5309 
       0.779291         133.568         57.5252 
       0.785407          132.68          56.542 
       0.791564         131.114         55.5759 
       0.797719         129.532         54.6331 
       0.803834         129.001         53.7184 
       0.809972         127.033         52.8215 
       0.816124         126.654         51.9432 
       0.822261         125.439         51.0873 
       0.828378         124.258         50.2533 
       0.834502         123.451         49.4373 
       0.840667         122.165         48.6343 
       0.846816         121.073         47.8515 
       0.852925         119.795         47.0909 
       0.859047         118.499         46.3454 
       0.865192         118.215         45.6137 
       0.871341         117.052         44.8974 
       0.877463         115.678         44.1999 
       0.883569         114.902         43.5191 
       0.889708         114.282         42.8492 
       0.895864         113.239         42.1918 
       0.902008         112.436         41.5497 
       0.908149         111.712         40.9214 
       0.914301         110.459         40.3052 
       0.920448         109.812         39.7024 
       0.926574         109.095         39.1141 
       0.932687           108.4         38.5391 
       0.938823         106.901         37.9736 
       0.944975         106.511         37.4183 
       0.951105         105.565         36.8761 
       0.957225         104.282         36.3457 
       0.963368         103.959          35.824 
       0.969511         103.392         35.3125 
       0.975621         102.842         34.8139 
       0.981748         101.848         34.3236 
       0.987916         101.104         33.8398 
        0.99406          100.61         33.3672 
        1.00019         99.3545         32.9046 
        1.00632         99.0713         32.4512 
        1.01246         98.0681         32.0057 
        1.01859         96.9557         31.5694 
        1.02471         97.4126         31.1418 
        1.03085          96.295         30.7206 
        1.03698         95.4109         30.3082 
        1.04314         94.5182         29.9017 
        1.04929         94.1762         29.5035 
        1.05541         93.4454         29.1143 
        1.06154         93.0264         28.7312 
        1.06769         92.3425         28.3544 
        1.07382         91.9601         27.9857 
        1.07993          91.492         27.6244 
        1.08607         90.6331          27.268 
        1.09222         90.1663         26.9175 
        1.09836         89.5165         26.5737 
        1.10449         88.9503         26.2363 
        1.11063         88.2447         25.9044 
        1.11677         87.7234         25.5784 
         1.1229          87.259         25.2586 
        1.12903         86.2044          24.944 
        1.13518         86.3548         24.6345 
        1.14131         85.8125         24.3305 
        1.14745         84.7352         24.0318 
        1.15359         84.4984         23.7381 
        1.15973         83.9263         23.4492 
        1.16584         83.3523         23.1665 
        1.17197         82.8796          22.888 
        1.17811         82.4279         22.6132 
        1.18424         81.6465         22.3438 
        1.19038         81.4223          22.078 
        1.19652         81.0056         21.8167 
        1.20267         80.3707         21.5596 
        1.20881         79.8791         21.3067 
        1.21495         79.3064         21.0583 
        1.22108         78.8349         20.8139 
         1.2272          78.284          20.574 
        1.23334         77.9358         20.3373 
        1.23949         77.6052         20.1038 
        1.24562         77.2655         19.8746 
        1.25174         76.7463         19.6494 
        1.25789         76.3205          19.427 
        1.26402         75.7779         19.2084 
        1.27014         75.1379         18.9937 
        1.27628         74.9591         18.7817 
        1.28244         74.2496         18.5725 
        1.28858         73.9564         18.3668 
        1.29471         73.7198         18.1647 
        1.30084         73.2178         17.9658 
        1.30697         72.6088         17.7696 
        1.31312         72.2344          17.576 
        1.31925         72.0913          17.386 
        1.32537         71.6036          17.199 
        1.33151         71.0976          17.014 
        1.33765         70.8488         16.8319 
        1.34378         70.4246         16.6529 
        1.34992         69.7587         16.4763 
        1.35606         69.4691         16.3019 
         1.3622         68.9639         16.1303 
        1.36833         68.8565         15.9617 
        1.37445         68.4894         15.7955 
        1.38059         68.0229         15.6312 
        1.38675         67.6739         15.4689 
        1.39288         67.2368         15.3095 
        1.39901         66.9734         15.1524 
        1.40515         66.6385         14.9972 
         1.4113         66.3192         14.8443 
        1.41742         65.8167          14.694 
        1.42355         65.5951         14.5456 
         1.4297         65.1315         14.3988 
        1.43585         64.8955          14.254 
        1.44198         64.5936         14.1118 
        1.44809         64.1247         13.9719 
        1.45423         63.9571         13.8333 
        1.46036         63.5265         13.6968 
        1.46649         63.1929         13.5622 
        1.47263         62.8939         13.4292 
        1.47877         62.6626         13.2981 
        1.48491          62.292         13.1685 
        1.49104         61.9069          13.041 
        1.49718         61.4873          12.915 
        1.50333           61.28         12.7905 
        1.50947         60.8663         12.6679 
         1.5156         60.6031         12.5471 
        1.52172         60.3605         12.4279 
        1.52787         60.1856           12.31 
          1.534         59.8013         12.1938 
        1.54013         59.4208         12.0792 
        1.54627         59.2946         11.9658 
        1.55241         58.8785         11.8539 
        1.55855         58.4659         11.7436 
        1.56467         58.0791          11.635 
         1.5708         58.0029         11.5275 
        1.57695         57.6631         11.4212 
        1.58308         57.5123         11.3164 
        1.58922          57.244         11.2129 
        1.59535         56.9145         11.1108 
         1.6015         56.5458         11.0097 
        1.60764         56.4407           10.91 
        1.61376          56.117         10.8118 
        1.61989         55.5904         10.7147 
        1.62604         55.5029         10.6186 
        1.63218         55.2402         10.5238 
        1.63831          54.938         10.4303 
        1.64444         54.7803         10.3379 
        1.65059         54.2436         10.2464 
        1.65673         54.0896         10.1561 
        1.66285         53.9141         10.0672 
        1.66898         53.5296         9.97933 
        1.67512         53.2732         9.89232 
        1.68127         52.9582         9.80626 
         1.6874           52.87         9.72143 
        1.69353         52.5029         9.63765 
        1.69967         52.3391         9.55466 
        1.70581         52.1643         9.47269 
        1.71193          51.763         9.39199 
        1.71806         51.4628         9.31206 
        1.72421          51.239          9.2329 
        1.73035         51.0046         9.15475 
        1.73649         50.7454         9.07753 
        1.74262         50.5264         9.00126 
        1.74876         50.4868         8.92581 
        1.75489         50.0157         8.85139 
        1.76101         49.8535         8.77784 
        1.76715         49.5762         8.70503 
        1.77329         49.3296         8.63296 
        1.77943         49.2039         8.56167 
        1.78557         48.9743         8.49129 
        1.79171         48.6295         8.42169 
        1.79785         48.4236         8.35286 
        1.80399         48.2044         8.28481 
        1.81012         48.0369         8.21762 
        1.81625         47.6786          8.1512 
        1.82239          47.529         8.08541 
        1.82853         47.1746         8.02038 
        1.83466         47.0457         7.95613 
        1.84078         46.6894         7.89266 
        1.84692          46.576         7.82977 
        1.85306         46.3295         7.76749 
         1.8592         46.1504         7.70599 
        1.86533         45.8423         7.64519 
        1.87147         45.7101         7.58497 
        1.87761         45.5895         7.52538 
        1.88375         45.3168          7.4665 
        1.88988         45.2381         7.40831 
        1.89601         44.8981         7.35072 
        1.90215         44.7447         7.29369 
        1.90829         44.5886         7.23729 
        1.91442         44.2859         7.18148 
        1.92056         44.1562         7.12632 
         1.9267         43.8166         7.07168 
        1.93284         43.5787         7.01757 
        1.93897         43.4973         6.96414 
        1.94509         43.2676         6.91138 
        1.95123         43.0751         6.85903 
        1.95737         42.8585         6.80719 
        1.96349         42.6355         6.75601 
        1.96964          42.375         6.70521 
        1.97578         42.2951         6.65492 
        1.98192         42.0706         6.60524 
        1.98805         41.9253         6.55606 
        1.99419         41.6071         6.50739 
        2.00033         41.4083         6.45918 
        2.00647         41.2853         6.41147 
         2.0126         41.0865         6.36433 
        2.01874         40.9484         6.31759 
        2.02488         40.8014         6.27128 
        2.03101         40.5452         6.22552 
        2.03714         40.2977         6.18026 
        2.04328         40.1312          6.1354 
        2.04941         39.9509         6.09102 
        2.05554         39.7556         6.04711 
        2.06167         39.5996         6.00357 
        2.06781         39.4189         5.96046 
        2.07396         39.1773         5.91771 
        2.08009         39.0901         5.87545 
        2.08622         38.8705         5.83366 
        2.09237         38.7378         5.79219 
        2.09851         38.4879         5.75111 
        2.10464         38.3854          5.7105 
        2.11077         38.1318         5.67034 
        2.11691         38.0628         5.63047 
        2.12305         37.8149         5.59098 
        2.12918         37.7251         5.55196 
        2.13531         37.5553         5.51332 
        2.14145         37.3881         5.47495 
         2.1476          37.139          5.4369 
        2.15372         37.0018         5.39941 
        2.15985         36.8839         5.36223 
        2.16599         36.7394          5.3253 
        2.17213         36.6472         5.28875 
        2.17827         36.2565         5.25256 
         2.1844         36.1795         5.21674 
        2.19054         36.0387         5.18123 
        2.19666         35.8632         5.14611 
         2.2028          35.754         5.11129 
        2.20893          35.583         5.07677 
        2.21508          35.424         5.04253 
        2.22122         35.2114         5.00859 
        2.22736         35.0844         4.97504 
        2.23349         34.9444          4.9418 
        2.23962         34.7652         4.90885 
        2.24577          34.566         4.87617 
         2.2519         34.4299         4.84383 
        2.25802          34.357         4.81184 
        2.26417         34.1599         4.78005 
        2.27031         34.0374         4.74852 
        2.27644         33.8695         4.71736 
        2.28257         33.7615         4.68648 
        2.28872         33.5438         4.65582 
        2.29486         33.4117         4.62544 
        2.30099         33.3186          4.5954 
        2.30712         33.1723          4.5656 
        2.31326         33.0325         4.53603 
         2.3194         32.8731         4.50673 
        2.32553         32.7201         4.47774 
        2.33166         32.5495         4.44901 
         2.3378         32.4402          4.4205 
        2.34394         32.2807         4.39223 
        2.35007         32.1173         4.36425 
        2.35619          32.035         4.33654 
        2.36233         31.8715         4.30901 
        2.36848         31.6805         4.28166 
        2.37462         31.5838         4.25461 
        2.38075         31.4133         4.22782 
        2.38689         31.3011         4.20123 
        2.39303         31.1708         4.17488 
        2.39916         31.0218         4.14878 
        2.40529         30.8783         4.12291 
        2.41143         30.7696         4.09724 
        2.41757         30.6109         4.07178 
         2.4237         30.5013         4.04658 
        2.42983         30.3874         4.02159 
        2.43598         30.2375         3.99675 
        2.44211          30.129         3.97216 
        2.44823         29.9588         3.94783 
        2.45437         29.8418         3.92364 
        2.46052          29.697         3.89963 
        2.46665         29.6186         3.87586 
        2.47279         29.4584          3.8523 
        2.47892         29.3104         3.82892 
        2.48507         29.1843         3.80572 
         2.4912         29.0884         3.78275 
