# k  (h/Mpc)    Pcb(k)  (Mpc/h)^3    Pcb_linear(k)  (Mpc/h)^3
     0.00783031         1494.58         1508.34 
       0.013688         1963.59          1963.5 
       0.019231          2091.9         2091.79 
      0.0249154         2021.34          2036.1 
      0.0312784         1854.14         1859.07 
      0.0375637         1653.01         1650.89 
      0.0433917          1468.4         1474.46 
      0.0492413         1331.19         1331.76 
      0.0555754         1208.21         1216.87 
      0.0619321         1136.43         1131.92 
       0.067871          1059.9         1066.15 
      0.0738098         994.794         1001.93 
      0.0800417         918.449         928.983 
      0.0862327         843.816         849.977 
      0.0921407          769.58         772.482 
      0.0982031         692.341         697.005 
       0.104506         631.407         628.799 
       0.110769         577.082          574.68 
       0.116806         534.331         535.394 
       0.122832          508.09         506.306 
       0.129052         480.807         482.855 
       0.135211         459.449         461.901 
       0.141259         440.287         440.248 
       0.147318         417.782         415.895 
       0.153489          388.62         388.545 
       0.159709         361.752         360.026 
       0.165845         338.965         333.141 
       0.171974          312.82         309.416 
       0.178125         294.303         289.799 
       0.184229         280.265         274.542 
        0.19034         264.691         262.704 
       0.196428         257.728         253.065 
       0.202534         250.824         244.184 
       0.208729         239.856         234.833 
       0.214876         227.853         224.598 
       0.220989          219.95         213.464 
       0.227147         205.792         201.769 
        0.23329         195.206         190.343 
       0.239377         186.502         179.942 
       0.245482         175.545         170.874 
       0.251667         170.488         163.214 
       0.257832         164.148         156.933 
       0.263955         158.621         151.639 
       0.270079         153.754         146.812 
        0.27624         150.405         142.008 
       0.282372         144.962         136.996 
        0.28843          139.08         131.753 
       0.294538         133.594         126.266 
       0.300721         129.762         120.729 
        0.30691         123.554         115.449 
       0.313033         119.258         110.681 
       0.319153         113.572         106.463 
       0.325316         111.619         102.755 
        0.33145         107.782         99.4997 
       0.337538         105.335         96.5498 
       0.343633         102.055         93.7197 
       0.349808         99.3095         90.8627 
       0.355968         96.5666         87.9524 
       0.362074         93.5247         85.0202 
       0.368217         90.7982         82.0661 
       0.374374         87.8329         79.1849 
       0.380519         85.4641         76.4622 
       0.386598         83.0765         73.9654 
       0.392688         81.2815          71.684 
        0.39888         78.9749         69.5625 
       0.405048         77.2391         67.6095 
       0.411186         75.5637         65.7712 
       0.417313         73.1489         63.9865 
       0.423458         71.4728         62.2185 
       0.429607         69.5526         60.4565 
       0.435692         67.4373         58.7234 
       0.441815          66.358         57.0135 
       0.447964         65.2177         55.3551 
       0.454126         62.6562         53.7705 
       0.460267         61.5203         52.2834 
       0.466387         59.8317         50.8954 
        0.47254         58.9821         49.5799 
       0.478662         57.9417         48.3367 
       0.484765         56.3813         47.1463 
       0.490885         55.1341         45.9854 
       0.497035         54.4199         44.8391 
       0.503198         53.0467         43.7108 
       0.509342         51.7056           42.61 
       0.515458         50.6971         41.5422 
       0.521598         49.8784         40.5047 
       0.527764         48.8615         39.5045 
       0.533884         48.0018         38.5573 
           0.54         47.0779         37.6534 
       0.546137         46.3279         36.7835 
       0.552299         45.6185         35.9427 
       0.558452         44.2348         35.1311 
       0.564573         43.6422         34.3463 
       0.570708         42.9966         33.5782 
       0.576825          41.937         32.8288 
       0.582926         41.2282         32.0996 
       0.589034         40.1466           31.39 
       0.595184         39.6511         30.6982 
       0.601379         39.0017         30.0251 
       0.607522         38.2799         29.3802 
       0.613639         37.9617         28.7596 
       0.619772          36.987         28.1583 
       0.625918         36.8131          27.575 
       0.632068         36.2034         27.0087 
       0.638161         35.4821         26.4626 
         0.6443         34.7999         25.9258 
       0.650464         34.2167         25.3997 
       0.656582         34.0032         24.8905 
       0.662703         33.3681         24.3948 
       0.668861         32.7943         23.9102 
       0.675024         32.2423         23.4396 
       0.681124         31.7019         22.9876 
       0.687237         31.1995         22.5474 
       0.693381         30.9361         22.1172 
       0.699536         30.1659         21.6976 
       0.705665         30.0597         21.2906 
       0.711789         29.4546         20.8943 
       0.717957         29.0801         20.5052 
        0.72409         28.6455         20.1282 
       0.730186         28.2734         19.7629 
       0.736317         27.9928         19.4046 
       0.742472          27.521         19.0539 
       0.748622         27.2343         18.7123 
        0.75476          26.745         18.3798 
       0.760888          26.429         18.0561 
       0.767043         26.1295         17.7389 
       0.773185         25.6511         17.4302 
       0.779291         25.5185         17.1307 
       0.785407         25.1869         16.8379 
       0.791564         24.7452         16.5502 
       0.797719         24.3015         16.2694 
       0.803834         24.2321          15.997 
       0.809972         24.0223         15.7299 
       0.816124         23.4603         15.4684 
       0.822261         23.3046         15.2135 
       0.828378         23.0354         14.9651 
       0.834502         22.8053         14.7221 
       0.840667         22.5174          14.483 
       0.846816         22.1415         14.2499 
       0.852925         21.9491         14.0234 
       0.859047          21.707         13.8014 
       0.865192         21.5202         13.5835 
       0.871341         21.3489         13.3702 
       0.877463         20.9806         13.1625 
       0.883569         20.7131         12.9597 
       0.889708         20.4289         12.7602 
       0.895864          20.312         12.5645 
       0.902008         20.1439         12.3733 
       0.908149         19.9269         12.1862 
       0.914301         19.7645         12.0027 
       0.920448         19.3913         11.8232 
       0.926574         19.2476          11.648 
       0.932687         19.0682         11.4767 
       0.938823         18.8196         11.3083 
       0.944975         18.6071         11.1429 
       0.951105         18.4747         10.9815 
       0.957225          18.309         10.8235 
       0.963368         18.1222         10.6682 
       0.969511         17.9758         10.5159 
       0.975621         17.8049         10.3674 
       0.981748         17.5965         10.2214 
       0.987916         17.4722         10.0773 
        0.99406          17.242         9.93655 
        1.00019         16.9948         9.79879 
        1.00632         16.9933         9.66378 
        1.01246            16.8         9.53112 
        1.01859         16.5628         9.40118 
        1.02471         16.4847         9.27384 
        1.03085         16.3367         9.14843 
        1.03698         16.0952         9.02562 
        1.04314         16.0094         8.90455 
        1.04929         15.8034         8.78599 
        1.05541         15.6544         8.67008 
        1.06154          15.539         8.55599 
        1.06769          15.471         8.44379 
        1.07382         15.2578         8.33398 
        1.07993         15.1664         8.22638 
        1.08607         15.0215         8.12025 
        1.09222         14.9008         8.01589 
        1.09836         14.7369          7.9135 
        1.10449         14.6374         7.81302 
        1.11063           14.51         7.71419 
        1.11677         14.4289         7.61711 
         1.1229         14.3315         7.52187 
        1.12903         14.1744         7.42819 
        1.13518         14.0114         7.33603 
        1.14131         13.9186          7.2455 
        1.14745         13.8047         7.15655 
        1.15359         13.7164         7.06908 
        1.15973         13.6143         6.98305 
        1.16584         13.4203         6.89884 
        1.17197          13.355         6.81591 
        1.17811         13.2833         6.73409 
        1.18424         13.1745         6.65386 
        1.19038         13.1113         6.57471 
        1.19652         12.9751         6.49689 
        1.20267          12.836         6.42033 
        1.20881         12.8233         6.34502 
        1.21495         12.7137         6.27104 
        1.22108         12.5671         6.19827 
         1.2272         12.4959         6.12682 
        1.23334          12.361         6.05634 
        1.23949         12.2768          5.9868 
        1.24562         12.2324         5.91856 
        1.25174         12.1311         5.85148 
        1.25789         12.0519         5.78524 
        1.26402         11.9876         5.72015 
        1.27014         11.8885         5.65623 
        1.27628         11.7546         5.59309 
        1.28244         11.6669         5.53079 
        1.28858         11.6529         5.46953 
        1.29471         11.5301         5.40934 
        1.30084          11.425         5.35011 
        1.30697         11.4204         5.29169 
        1.31312         11.2426         5.23405 
        1.31925         11.1902         5.17746 
        1.32537         11.1275         5.12176 
        1.33151         11.0708         5.06669 
        1.33765         10.9683         5.01246 
        1.34378         10.8854         4.95913 
        1.34992         10.8171         4.90655 
        1.35606          10.755         4.85461 
         1.3622         10.6961         4.80353 
        1.36833         10.6165          4.7533 
        1.37445          10.557         4.70382 
        1.38059         10.5168         4.65489 
        1.38675         10.4171         4.60655 
        1.39288         10.3594         4.55908 
        1.39901         10.2547         4.51231 
        1.40515         10.2214         4.46609 
         1.4113         10.1644         4.42054 
        1.41742         10.0951          4.3758 
        1.42355         10.0119          4.3316 
         1.4297         9.94183         4.28787 
        1.43585         9.91291         4.24477 
        1.44198         9.87674         4.20243 
        1.44809         9.78171         4.16074 
        1.45423         9.71355         4.11947 
        1.46036         9.66358         4.07884 
        1.46649         9.59735         4.03874 
        1.47263          9.5233         3.99915 
        1.47877         9.47593          3.9601 
        1.48491         9.42013         3.92152 
        1.49104         9.37075         3.88353 
        1.49718         9.32194         3.84602 
        1.50333         9.26539         3.80895 
        1.50947         9.20439         3.77244 
         1.5156         9.15525         3.73647 
        1.52172         9.10527         3.70097 
        1.52787         9.04829         3.66586 
          1.534         8.99018         3.63124 
        1.54013         8.95604         3.59711 
        1.54627         8.87672         3.56336 
        1.55241         8.84152         3.53004 
        1.55855         8.80369         3.49719 
        1.56467         8.73576         3.46485 
         1.5708         8.70919         3.43283 
        1.57695           8.629         3.40116 
        1.58308         8.58527         3.36997 
        1.58922         8.56044         3.33915 
        1.59535         8.51848         3.30873 
         1.6015         8.45417         3.27864 
        1.60764         8.40089         3.24894 
        1.61376         8.37028          3.2197 
        1.61989         8.32684         3.19079 
        1.62604         8.26904         3.16217 
        1.63218         8.24832         3.13392 
        1.63831         8.20924         3.10608 
        1.64444         8.16558         3.07857 
        1.65059         8.07844         3.05133 
        1.65673         8.06642         3.02445 
        1.66285         7.99376         2.99796 
        1.66898         7.97182         2.97179 
        1.67512         7.93414         2.94588 
        1.68127         7.88972         2.92025 
         1.6874         7.85882         2.89499 
        1.69353         7.80638         2.87004 
        1.69967         7.76534         2.84533 
        1.70581         7.72335         2.82092 
        1.71193         7.69281         2.79688 
        1.71806         7.66796         2.77308 
        1.72421         7.60674         2.74951 
        1.73035         7.58883         2.72624 
        1.73649         7.54924         2.70324 
        1.74262         7.49197         2.68053 
        1.74876         7.47557         2.65806 
        1.75489         7.44979          2.6359 
        1.76101         7.38566           2.614 
        1.76715         7.36272         2.59231 
        1.77329         7.32826         2.57085 
        1.77943         7.27141         2.54962 
        1.78557          7.2648         2.52866 
        1.79171         7.21144         2.50794 
        1.79785          7.1804         2.48744 
        1.80399         7.13686         2.46717 
        1.81012         7.11756         2.44716 
        1.81625         7.07021         2.42738 
        1.82239         7.04805         2.40779 
        1.82853          7.0139         2.38843 
        1.83466         6.98686         2.36929 
        1.84078         6.94818         2.35039 
        1.84692         6.93422         2.33166 
        1.85306         6.87925         2.31312 
         1.8592         6.84346          2.2948 
        1.86533         6.82208          2.2767 
        1.87147         6.79274         2.25877 
        1.87761         6.75773         2.24102 
        1.88375         6.72789         2.22349 
        1.88988         6.69171         2.20616 
        1.89601         6.67443         2.18901 
        1.90215         6.64783         2.17202 
        1.90829         6.60783         2.15523 
        1.91442         6.58292         2.13861 
        1.92056          6.5445         2.12218 
         1.9267         6.51912         2.10591 
        1.93284         6.49211          2.0898 
        1.93897          6.4618         2.07388 
        1.94509         6.42406         2.05817 
        1.95123         6.39797         2.04258 
        1.95737         6.36445         2.02714 
        1.96349         6.34553         2.01191 
        1.96964         6.32647         1.99678 
        1.97578         6.28541          1.9818 
        1.98192         6.26746         1.96701 
        1.98805         6.24435         1.95236 
        1.99419         6.21834         1.93787 
        2.00033         6.19727         1.92351 
        2.00647         6.16437          1.9093 
         2.0126         6.14459         1.89527 
        2.01874         6.10201         1.88135 
        2.02488         6.08945         1.86755 
        2.03101         6.04888         1.85393 
        2.03714         6.02752         1.84045 
        2.04328         6.00039         1.82709 
        2.04941         5.96804         1.81387 
        2.05554         5.94971          1.8008 
        2.06167         5.93313         1.78783 
        2.06781         5.90579         1.77499 
        2.07396         5.89159         1.76226 
        2.08009         5.86108         1.74968 
        2.08622          5.8266         1.73723 
        2.09237         5.82407         1.72488 
        2.09851         5.78803         1.71265 
        2.10464         5.76344         1.70056 
        2.11077         5.73345          1.6886 
        2.11691          5.7203         1.67672 
        2.12305         5.69916         1.66496 
        2.12918         5.68536         1.65335 
        2.13531         5.65358         1.64184 
        2.14145         5.63477         1.63041 
         2.1476         5.60141         1.61908 
        2.15372         5.58668         1.60792 
        2.15985         5.57184         1.59685 
        2.16599         5.53935         1.58585 
        2.17213         5.52207         1.57496 
        2.17827           5.505         1.56419 
         2.1844         5.47733         1.55352 
        2.19054         5.46414         1.54295 
        2.19666         5.43391         1.53249 
         2.2028         5.41313         1.52212 
        2.20893         5.40056         1.51184 
        2.21508         5.36864         1.50164 
        2.22122         5.35191         1.49153 
        2.22736         5.33229         1.48154 
        2.23349          5.3277         1.47164 
        2.23962         5.29421         1.46183 
        2.24577         5.27039          1.4521 
         2.2519         5.26553         1.44247 
        2.25802         5.23169         1.43294 
        2.26417         5.21381         1.42348 
        2.27031         5.19376         1.41408 
        2.27644         5.17723         1.40481 
        2.28257         5.15647         1.39561 
        2.28872           5.143         1.38648 
        2.29486         5.11782         1.37743 
        2.30099         5.10123         1.36849 
        2.30712         5.08128         1.35961 
        2.31326         5.05676         1.35081 
         2.3194         5.04742         1.34208 
        2.32553          5.0202         1.33345 
        2.33166         5.01243         1.32489 
         2.3378         4.99219          1.3164 
        2.34394         4.97505         1.30798 
        2.35007         4.95037         1.29965 
        2.35619         4.94331          1.2914 
        2.36233         4.92849          1.2832 
        2.36848         4.89845         1.27506 
        2.37462         4.88857           1.267 
        2.38075         4.87457         1.25902 
        2.38689         4.84946         1.25111 
        2.39303         4.83724         1.24326 
        2.39916         4.81945         1.23549 
        2.40529         4.80104         1.22778 
        2.41143         4.78905         1.22014 
        2.41757         4.77207         1.21256 
         2.4237         4.75721         1.20505 
        2.42983         4.71755         1.19761 
        2.43598         4.72595         1.19021 
        2.44211         4.69811         1.18289 
        2.44823         4.68738         1.17564 
        2.45437         4.66186         1.16844 
        2.46052         4.65378         1.16129 
        2.46665          4.6409         1.15421 
        2.47279          4.6244          1.1472 
        2.47892         4.60851         1.14024 
        2.48507         4.59494         1.13332 
         2.4912         4.56946         1.12648 
