# k  (h/Mpc)    P(k)  (Mpc/h)^3    P_linear(k)  (Mpc/h)^3
     0.00783031         7126.34         7234.98 
       0.013688         9113.12         9084.74 
       0.019231         9242.18         9238.61 
      0.0249154         8389.31         8514.19 
      0.0312784         7256.65         7302.92 
      0.0375637         6161.02         6150.11 
      0.0433917         5262.21         5313.94 
      0.0492413         4718.28         4729.93 
      0.0555754         4244.31         4323.35 
      0.0619321          4060.9         4044.26 
       0.067871         3743.76         3806.69 
      0.0738098         3472.05         3533.41 
      0.0800417         3114.26         3192.64 
      0.0862327         2784.78         2824.74 
      0.0921407         2485.57         2488.07 
      0.0982031         2185.39         2194.64 
       0.104506         2006.75         1965.98 
       0.110769         1850.07         1814.21 
       0.116806         1741.08         1721.33 
       0.122832         1679.64         1655.89 
       0.129052          1584.7         1590.98 
       0.135211         1506.86         1510.99 
       0.141259         1428.83         1411.54 
       0.147318         1328.73         1297.17 
       0.153489         1205.52         1178.71 
       0.159709         1117.85         1071.32 
       0.165845         1054.63         986.297 
       0.171974         986.412         924.507 
       0.178125         942.507         882.183 
       0.184229         910.375          852.41 
        0.19034         859.485           826.4 
       0.196428         845.233         797.299 
       0.202534         817.332         761.207 
       0.208729         771.973         717.727 
       0.214876          725.52         671.111 
       0.220989         695.517         625.943 
       0.227147         654.056          585.71 
        0.23329         624.831         553.085 
       0.239377         608.955         528.303 
       0.245482         570.699         509.403 
       0.251667         565.729         493.665 
       0.257832         547.456          478.63 
       0.263955         529.232         462.327 
       0.270079         509.622         443.771 
        0.27624         500.843         423.254 
       0.282372         479.273         402.211 
        0.28843         463.265         382.264 
       0.294538          441.08         364.222 
       0.300721         436.507         348.668 
        0.30691         416.491         335.801 
       0.313033         407.567         325.071 
       0.319153         393.295         315.483 
       0.325316         383.344         306.061 
        0.33145         371.433         296.344 
       0.337538         366.115         286.105 
       0.343633         353.784         275.458 
       0.349808         342.194         264.645 
       0.355968         337.168         254.317 
       0.362074         328.963         244.921 
       0.368217         320.027         236.459 
       0.374374         308.552         228.977 
       0.380519         304.341         222.254 
       0.386598          296.72         216.066 
       0.392688         293.427         210.056 
        0.39888         285.601         203.914 
       0.405048         279.121         197.729 
       0.411186         273.174         191.534 
       0.417313         267.863         185.434 
       0.423458         262.433         179.562 
       0.429607         256.596         174.039 
       0.435692         249.363         168.965 
       0.441815         247.538          164.26 
       0.447964         242.916         159.856 
       0.454126         233.383         155.663 
       0.460267         230.705         151.623 
       0.466387         227.857         147.673 
        0.47254         222.957         143.732 
       0.478662         221.524         139.861 
       0.484765         214.887         136.096 
       0.490885         211.853         132.451 
       0.497035         208.851         128.944 
       0.503198         203.664         125.611 
       0.509342         201.169         122.473 
       0.515458         198.456         119.502 
       0.521598          195.31         116.638 
       0.527764         192.403         113.851 
       0.533884         189.643         111.158 
           0.54         186.708          108.53 
       0.546137         185.437         105.949 
       0.552299         182.015         103.418 
       0.558452         179.238         100.969 
       0.564573         176.235         98.6216 
       0.570708         173.306         96.3644 
       0.576825         171.166         94.2017 
       0.582926          168.44         92.1227 
       0.589034         166.177         90.1102 
       0.595184          164.33         88.1465 
       0.601379          162.59         86.2264 
       0.607522         159.055         84.3741 
       0.613639         158.486         82.5762 
       0.619772         155.002         80.8184 
       0.625918         153.488         79.1045 
       0.632068         151.743         77.4399 
       0.638161         150.495         75.8427 
         0.6443          148.38         74.2868 
       0.650464         146.792         72.7751 
       0.656582         145.036           71.32 
       0.662703         142.987         69.9053 
       0.668861          141.04         68.5194 
       0.675024         139.475         67.1672 
       0.681124         138.509         65.8629 
       0.687237         136.038         64.5897 
       0.693381         134.298         63.3442 
       0.699536         133.241         62.1304 
       0.705665         133.404         60.9555 
       0.711789         130.132         59.8136 
       0.717957         129.674         58.6944 
        0.72409         127.832         57.6109 
       0.730186         125.775         56.5617 
       0.736317         125.292         55.5329 
       0.742472         124.299         54.5257 
       0.748622         123.132         53.5442 
        0.75476         121.965         52.5891 
       0.760888         120.248         51.6588 
       0.767043         119.455         50.7476 
       0.773185         118.158         49.8607 
       0.779291         116.751         49.0006 
       0.785407         116.037           48.16 
       0.791564         114.856         47.3344 
       0.797719         113.166         46.5288 
       0.803834          112.68         45.7475 
       0.809972         111.091         44.9816 
       0.816124         110.755         44.2317 
       0.822261         109.657          43.501 
       0.828378         108.653         42.7892 
       0.834502         108.015         42.0927 
       0.840667         106.683         41.4074 
       0.846816          105.57         40.7394 
       0.852925         104.769         40.0905 
       0.859047         103.495         39.4545 
       0.865192         103.046         38.8305 
       0.871341          102.14         38.2196 
       0.877463         100.955         37.6249 
       0.883569         100.291         37.0446 
       0.889708         99.6305         36.4736 
       0.895864         98.7768         35.9134 
       0.902008         97.9655         35.3663 
       0.908149         97.3978         34.8311 
       0.914301         96.3602         34.3062 
       0.920448         95.7306         33.7928 
       0.926574         95.0021         33.2918 
       0.932687         94.6539         32.8021 
       0.938823         93.2009         32.3207 
       0.944975         92.5761         31.8479 
       0.951105         91.9467         31.3864 
       0.957225          90.841         30.9349 
       0.963368         90.4912         30.4908 
       0.969511         90.0878         30.0556 
       0.975621         89.6179         29.6313 
       0.981748         88.7628         29.2141 
       0.987916         87.9722         28.8025 
        0.99406         87.4488         28.4004 
        1.00019         86.6364         28.0069 
        1.00632         86.2066         27.6213 
        1.01246         85.4638         27.2424 
        1.01859         84.3715         26.8713 
        1.02471         84.5886         26.5077 
        1.03085         83.6601         26.1496 
        1.03698         83.1052         25.7989 
        1.04314         82.3068         25.4533 
        1.04929         81.8547         25.1149 
        1.05541         81.1588          24.784 
        1.06154         80.9191         24.4583 
        1.06769         80.3817         24.1381 
        1.07382          80.028         23.8247 
        1.07993         79.4981         23.5176 
        1.08607         78.8028         23.2147 
        1.09222         78.4064         22.9169 
        1.09836         77.8188         22.6248 
        1.10449         77.3556         22.3381 
        1.11063         76.7793         22.0561 
        1.11677         76.3445         21.7792 
         1.1229         75.6972         21.5075 
        1.12903         74.8629         21.2403 
        1.13518         75.1446         20.9774 
        1.14131         74.5684         20.7192 
        1.14745          73.694         20.4655 
        1.15359         73.4826          20.216 
        1.15973         72.9619         19.9707 
        1.16584         72.4726         19.7305 
        1.17197         72.0462          19.494 
        1.17811         71.6802         19.2607 
        1.18424         71.0329          19.032 
        1.19038         70.6705         18.8063 
        1.19652         70.4269         18.5844 
        1.20267         69.7994         18.3661 
        1.20881         69.4571         18.1514 
        1.21495         68.9041         17.9405 
        1.22108         68.5595          17.733 
         1.2272         67.9666         17.5293 
        1.23334         67.7049         17.3283 
        1.23949         67.4596         17.1301 
        1.24562         67.0244         16.9355 
        1.25174         66.6842         16.7443 
        1.25789         66.3446         16.5555 
        1.26402         65.8821         16.3699 
        1.27014         65.2589         16.1877 
        1.27628         65.1076         16.0077 
        1.28244          64.554         15.8302 
        1.28858         64.2905         15.6556 
        1.29471         64.0757          15.484 
        1.30084         63.6462         15.3152 
        1.30697         63.2002         15.1486 
        1.31312         62.8069         14.9844 
        1.31925          62.654         14.8231 
        1.32537         62.3178         14.6643 
        1.33151         61.6982         14.5073 
        1.33765         61.5104         14.3528 
        1.34378          61.139         14.2008 
        1.34992         60.7682         14.0509 
        1.35606         60.4473         13.9029 
         1.3622         59.9914         13.7573 
        1.36833         59.8202         13.6141 
        1.37445         59.5527         13.4731 
        1.38059         59.0917         13.3336 
        1.38675         58.7714         13.1958 
        1.39288         58.4803         13.0606 
        1.39901         58.2698         12.9273 
        1.40515          57.923         12.7955 
         1.4113         57.6566         12.6657 
        1.41742         57.3714         12.5382 
        1.42355         56.9643         12.4122 
         1.4297         56.7007         12.2876 
        1.43585         56.3865         12.1647 
        1.44198         56.1202         12.0441 
        1.44809         55.8662         11.9253 
        1.45423         55.6106         11.8076 
        1.46036         55.3235         11.6918 
        1.46649           54.99         11.5775 
        1.47263         54.6513         11.4647 
        1.47877         54.5023         11.3534 
        1.48491         54.3172         11.2434 
        1.49104         53.8722         11.1352 
        1.49718         53.4247         11.0283 
        1.50333         53.3101         10.9226 
        1.50947         53.0519         10.8185 
         1.5156         52.7493          10.716 
        1.52172         52.5498         10.6148 
        1.52787           52.43         10.5147 
          1.534         52.0619          10.416 
        1.54013         51.7718         10.3187 
        1.54627         51.5842         10.2225 
        1.55241         51.2211         10.1275 
        1.55855         50.9357         10.0338 
        1.56467         50.5336         9.94165 
         1.5708         50.5595         9.85036 
        1.57695         50.2602         9.76008 
        1.58308         49.9994         9.67115 
        1.58922         49.9515         9.58328 
        1.59535         49.6655         9.49653 
         1.6015         49.2142         9.41075 
        1.60764         49.0738         9.32608 
        1.61376         48.8286         9.24269 
        1.61989         48.4614         9.16026 
        1.62604         48.3963         9.07866 
        1.63218         48.2191         8.99811 
        1.63831         47.9281         8.91873 
        1.64444         47.6858         8.84028 
        1.65059         47.3276          8.7626 
        1.65673         47.1536         8.68594 
        1.66285         46.9382         8.61042 
        1.66898          46.685         8.53578 
        1.67512         46.4637         8.46189 
        1.68127         46.1869         8.38881 
         1.6874         46.1048         8.31676 
        1.69353         45.7851         8.24561 
        1.69967         45.5892         8.17513 
        1.70581         45.5254          8.1055 
        1.71193         45.2285         8.03696 
        1.71806         44.8713         7.96907 
        1.72421         44.7401         7.90183 
        1.73035         44.4846         7.83545 
        1.73649         44.1791         7.76985 
        1.74262         44.1301         7.70506 
        1.74876         44.0135         7.64097 
        1.75489         43.6929         7.57774 
        1.76101         43.5194         7.51525 
        1.76715          43.293         7.45339 
        1.77329         43.0816         7.39215 
        1.77943         42.9343         7.33157 
        1.78557         42.7358         7.27177 
        1.79171         42.4612         7.21262 
        1.79785         42.2788         7.15413 
        1.80399          42.153          7.0963 
        1.81012         41.9692          7.0392 
        1.81625         41.6141         6.98275 
        1.82239         41.5203         6.92684 
        1.82853          41.198         6.87157 
        1.83466         41.1401         6.81696 
        1.84078         40.8049         6.76301 
        1.84692         40.6967         6.70956 
        1.85306         40.4874         6.65662 
         1.8592         40.2979         6.60434 
        1.86533         40.1207         6.55266 
        1.87147         39.9889         6.50147 
        1.87761         39.8503         6.45081 
        1.88375         39.6097         6.40076 
        1.88988         39.5563         6.35129 
        1.89601         39.2592         6.30232 
        1.90215         39.1183         6.25383 
        1.90829         39.0277         6.20588 
        1.91442         38.7684         6.15843 
        1.92056         38.6307         6.11152 
         1.9267         38.3251         6.06505 
        1.93284         38.1639         6.01905 
        1.93897         38.0843         5.97361 
        1.94509         37.8287         5.92874 
        1.95123         37.7358         5.88422 
        1.95737         37.4923         5.84013 
        1.96349         37.3457         5.79661 
        1.96964         37.1835          5.7534 
        1.97578         37.0434         5.71063 
        1.98192          36.839         5.66837 
        1.98805         36.7085         5.62654 
        1.99419         36.4618         5.58513 
        2.00033          36.316         5.54413 
        2.00647         36.1778         5.50354 
         2.0126         36.0153         5.46344 
        2.01874         35.8866         5.42367 
        2.02488         35.7803         5.38427 
        2.03101          35.522         5.34533 
        2.03714         35.3727         5.30682 
        2.04328          35.198         5.26864 
        2.04941         35.0634         5.23088 
        2.05554         34.8652         5.19351 
        2.06167         34.7807         5.15646 
        2.06781         34.5984         5.11977 
        2.07396         34.4363         5.08338 
        2.08009         34.3214         5.04741 
        2.08622         34.1324         5.01184 
        2.09237          33.966         4.97653 
        2.09851          33.798         4.94157 
        2.10464         33.7286           4.907 
        2.11077         33.5295          4.8728 
        2.11691         33.4042         4.83886 
        2.12305         33.2307         4.80524 
        2.12918         33.1888         4.77202 
        2.13531          32.969         4.73912 
        2.14145         32.9032         4.70645 
         2.1476         32.6585         4.67405 
        2.15372         32.4977         4.64213 
        2.15985         32.3936         4.61047 
        2.16599         32.3465         4.57901 
        2.17213         32.2263         4.54789 
        2.17827         31.9305         4.51706 
         2.1844         31.8172         4.48655 
        2.19054         31.6729         4.45631 
        2.19666         31.5653         4.42639 
         2.2028         31.4397         4.39672 
        2.20893         31.3413         4.36731 
        2.21508         31.1812         4.33814 
        2.22122          30.984         4.30923 
        2.22736         30.9191         4.28064 
        2.23349         30.7801         4.25232 
        2.23962         30.6121         4.22425 
        2.24577         30.4553          4.1964 
         2.2519          30.367         4.16884 
        2.25802         30.2259         4.14158 
        2.26417         30.1293         4.11449 
        2.27031         30.0271         4.08761 
        2.27644         29.8209         4.06106 
        2.28257         29.7262         4.03474 
        2.28872         29.5772         4.00861 
        2.29486         29.5105         3.98272 
        2.30099         29.3781          3.9571 
        2.30712         29.2568         3.93171 
        2.31326         29.1728         3.90649 
         2.3194         29.0171         3.88152 
        2.32553         28.8511          3.8568 
        2.33166         28.7224         3.83231 
         2.3378         28.6207           3.808 
        2.34394         28.4599         3.78389 
        2.35007         28.3556         3.76003 
        2.35619         28.2972         3.73641 
        2.36233         28.2034         3.71293 
        2.36848         27.9837          3.6896 
        2.37462         27.9094         3.66653 
        2.38075         27.7905         3.64368 
        2.38689         27.7205           3.621 
        2.39303         27.5469         3.59853 
        2.39916         27.3967         3.57626 
        2.40529         27.2698         3.55419 
        2.41143         27.1967         3.53229 
        2.41757         27.0934         3.51057 
         2.4237         26.9537         3.48907 
        2.42983         26.8645         3.46775 
        2.43598         26.7434         3.44655 
        2.44211         26.6256         3.42557 
        2.44823         26.4804         3.40481 
        2.45437         26.4222         3.38417 
        2.46052         26.2951         3.36368 
        2.46665         26.2187          3.3434 
        2.47279          26.094         3.32329 
        2.47892         25.9532         3.30334 
        2.48507         25.8594         3.28353 
         2.4912         25.7866         3.26392 
