# k  (h/Mpc)    Pcb(k)  (Mpc/h)^3    Pcb_linear(k)  (Mpc/h)^3
     0.00783031         3917.26         3939.64 
       0.013688         4999.52          5078.7 
       0.019231         5281.06         5323.55 
      0.0249154         5086.41         5082.94 
      0.0312784            4519          4539.4 
      0.0375637          3919.9         3953.02 
      0.0433917         3479.54         3482.81 
      0.0492413         3101.11         3120.64 
      0.0555754         2842.82         2843.08 
      0.0619321         2595.07         2645.43 
       0.067871         2469.25         2492.03 
      0.0738098         2321.24         2336.55 
      0.0800417         2145.42          2153.6 
      0.0862327         1937.87         1952.94 
      0.0921407         1746.74         1757.77 
      0.0982031         1575.98         1571.92 
       0.104506         1400.83         1409.59 
       0.110769         1283.32         1286.24 
       0.116806         1214.88         1200.82 
       0.122832         1141.57         1139.85 
       0.129052         1095.59         1090.56 
       0.135211         1057.56          1043.9 
       0.141259         996.112         992.411 
       0.147318         926.911         932.537 
       0.153489         868.143         865.229 
       0.159709         812.363         796.443 
       0.165845         737.846          733.67 
       0.171974         705.693         680.432 
       0.178125         666.886         638.264 
       0.184229          624.33         606.712 
        0.19034         608.438         582.644 
       0.196428         588.574          562.53 
       0.202534         556.074         542.787 
       0.208729         543.881          520.75 
       0.214876         522.931         496.036 
       0.220989         487.053         469.314 
       0.227147         472.184         441.916 
        0.23329         450.338         416.025 
       0.239377         434.359          393.28 
       0.245482         411.245         374.104 
       0.251667         393.546         358.292 
       0.257832         388.198         345.345 
       0.263955         368.538         334.134 
       0.270079         356.702         323.422 
        0.27624         342.274         312.286 
       0.282372         332.873         300.473 
        0.28843         329.105         288.166 
       0.294538         313.039         275.562 
       0.300721          299.76         263.198 
        0.30691         293.918         251.752 
       0.313033         281.186         241.668 
       0.319153         275.927         232.866 
       0.325316          266.89         225.118 
        0.33145          259.64         218.178 
       0.337538         251.635         211.689 
       0.343633         244.262         205.285 
       0.349808         237.273         198.707 
       0.355968         231.391         192.026 
       0.362074         226.301         185.372 
       0.368217         221.533         178.822 
       0.374374         216.267         172.563 
       0.380519         207.107         166.755 
       0.386598         202.924          161.49 
       0.392688         197.625         156.661 
        0.39888         193.724         152.134 
       0.405048         189.789         147.879 
       0.411186         186.734         143.792 
       0.417313         182.279         139.785 
       0.423458         177.719         135.793 
       0.429607         174.306         131.841 
       0.435692         171.187         128.011 
       0.441815         166.511          124.28 
       0.447964         161.781         120.705 
       0.454126         158.861         117.326 
       0.460267         157.542         114.154 
       0.466387         154.011         111.173 
        0.47254         152.274         108.327 
       0.478662         147.226         105.606 
       0.484765         145.168          102.97 
       0.490885         142.136         100.388 
       0.497035         141.061         97.8493 
       0.503198         137.924         95.3626 
       0.509342         134.454         92.9509 
       0.515458         133.003         90.6333 
       0.521598         129.809         88.4008 
       0.527764         128.413         86.2527 
       0.533884         127.483         84.2102 
           0.54          124.17         82.2531 
       0.546137         121.252         80.3629 
       0.552299          119.69         78.5261 
       0.558452         117.513         76.7426 
       0.564573         117.061         75.0129 
       0.570708         113.709         73.3246 
       0.576825         112.548          71.688 
       0.582926         111.299         70.1029 
       0.589034         109.485         68.5641 
       0.595184         108.201         67.0648 
       0.601379         105.509         65.6066 
       0.607522         104.044         64.2108 
       0.613639         103.118         62.8664 
       0.619772         101.435         61.5593 
       0.625918         100.323          60.286 
       0.632068         98.7937         59.0456 
       0.638161         97.1254         57.8491 
         0.6443          96.513         56.6759 
       0.650464         94.5996         55.5303 
       0.656582         94.1976         54.4246 
       0.662703         93.0229         53.3491 
       0.668861         90.9827         52.2974 
       0.675024         90.8295         51.2744 
       0.681124         89.4636         50.2906 
       0.687237         87.7071         49.3321 
       0.693381         87.1736         48.3954 
       0.699536         86.2347          47.482 
       0.705665         84.8728         46.5963 
       0.711789         83.7631         45.7336 
       0.717957         82.7233         44.8863 
        0.72409         82.0891         44.0647 
       0.730186         81.5249         43.2686 
       0.736317         80.0536         42.4879 
       0.742472         79.2143          41.724 
       0.748622         78.0618         40.9802 
        0.75476         77.2503          40.257 
       0.760888         77.0033         39.5529 
       0.767043         75.5742         38.8633 
       0.773185         74.8113         38.1919 
       0.779291         73.9503         37.5404 
       0.785407         72.9327         36.9032 
       0.791564          72.976         36.2768 
       0.797719         71.9783         35.6652 
       0.803834         71.2578         35.0717 
       0.809972          70.595         34.4897 
       0.816124         69.8634         33.9197 
       0.822261         68.9696         33.3644 
       0.828378         68.7033         32.8233 
       0.834502         67.7678          32.294 
       0.840667         67.3368         31.7732 
       0.846816          66.455         31.2656 
       0.852925         65.9972         30.7724 
       0.859047         65.7215          30.289 
       0.865192         64.6478         29.8145 
       0.871341         63.9595         29.3499 
       0.877463         63.5651         28.8975 
       0.883569         63.3307         28.4559 
       0.889708         62.6805         28.0213 
       0.895864          62.064         27.5947 
       0.902008         61.4558          27.178 
       0.908149          60.926         26.7703 
       0.914301         60.5409         26.3703 
       0.920448         60.1422          25.979 
       0.926574         59.1015         25.5971 
       0.932687         58.8132         25.2237 
       0.938823         58.2647         24.8565 
       0.944975         57.6991         24.4959 
       0.951105          57.248         24.1438 
       0.957225         57.0421         23.7993 
       0.963368         56.4545         23.4605 
       0.969511         55.9714         23.1283 
       0.975621         55.5681         22.8044 
       0.981748         54.9883          22.486 
       0.987916         54.6272         22.1717 
        0.99406         54.1719         21.8646 
        1.00019         53.7466         21.5641 
        1.00632         53.3644         21.2695 
        1.01246         52.9526         20.9801 
        1.01859         52.5937         20.6965 
        1.02471         52.0304         20.4187 
        1.03085         51.8485          20.145 
        1.03698         51.4694          19.877 
        1.04314         51.1158         19.6128 
        1.04929         50.5672          19.354 
        1.05541         50.3564          19.101 
        1.06154         50.1013          18.852 
        1.06769         49.3881          18.607 
        1.07382         49.2353         18.3673 
        1.07993         48.8513         18.1323 
        1.08607         48.5056         17.9006 
        1.09222         48.2588         17.6727 
        1.09836         47.8302         17.4491 
        1.10449         47.6056         17.2296 
        1.11063         47.1813         17.0137 
        1.11677          47.147         16.8017 
         1.1229         46.6261         16.5936 
        1.12903         46.4081         16.3889 
        1.13518         46.2589         16.1875 
        1.14131         45.7653         15.9897 
        1.14745         45.3133         15.7953 
        1.15359         44.9604         15.6041 
        1.15973         44.7994          15.416 
        1.16584         44.5155         15.2319 
        1.17197         43.9879         15.0506 
        1.17811         43.8572         14.8717 
        1.18424         43.3364         14.6962 
        1.19038         43.2424         14.5231 
        1.19652          43.019         14.3529 
        1.20267         42.7806         14.1855 
        1.20881         42.4732         14.0207 
        1.21495         42.2646         13.8589 
        1.22108         42.1288         13.6997 
         1.2272         41.8137         13.5433 
        1.23334         41.5436         13.3891 
        1.23949         41.2572          13.237 
        1.24562         40.8908         13.0876 
        1.25174         40.7055         12.9408 
        1.25789         40.6442         12.7958 
        1.26402         40.3423         12.6533 
        1.27014         40.0873         12.5134 
        1.27628         39.7227         12.3752 
        1.28244          39.676         12.2388 
        1.28858         39.3218         12.1047 
        1.29471         39.1565         11.9729 
        1.30084         38.8467         11.8432 
        1.30697            38.7         11.7152 
        1.31312         38.3782          11.589 
        1.31925         38.1219          11.465 
        1.32537          37.941          11.343 
        1.33151         37.6985         11.2223 
        1.33765         37.6118         11.1035 
        1.34378         37.4123         10.9867 
        1.34992         37.1683         10.8714 
        1.35606         36.9568         10.7576 
         1.3622         36.6796         10.6456 
        1.36833         36.5229         10.5355 
        1.37445         36.2875          10.427 
        1.38059         36.1271         10.3198 
        1.38675         35.8114         10.2138 
        1.39288         35.7332         10.1097 
        1.39901         35.4914         10.0071 
        1.40515         35.3507         9.90573 
         1.4113         35.2838         9.80581 
        1.41742         35.0661         9.70766 
        1.42355         34.7493         9.61067 
         1.4297         34.5618         9.51473 
        1.43585         34.3515         9.42015 
        1.44198         34.2386         9.32723 
        1.44809         34.0545         9.23574 
        1.45423         33.9149         9.14515 
        1.46036         33.7366         9.05595 
        1.46649         33.5451         8.96792 
        1.47263         33.3337         8.88099 
        1.47877         33.2346         8.79527 
        1.48491         33.0886         8.71055 
        1.49104          32.835         8.62714 
        1.49718         32.7287         8.54476 
        1.50333          32.625         8.46334 
        1.50947         32.3969         8.38315 
         1.5156         32.2314         8.30413 
        1.52172         31.9916         8.22613 
        1.52787         31.8727         8.14899 
          1.534         31.7438         8.07294 
        1.54013          31.639         7.99794 
        1.54627         31.3731         7.92377 
        1.55241         31.2567         7.85053 
        1.55855         31.1315         7.77833 
        1.56467          31.054         7.70725 
         1.5708         30.8594         7.63686 
        1.57695         30.7028         7.56724 
        1.58308         30.4432         7.49867 
        1.58922         30.3062          7.4309 
        1.59535         30.2154           7.364 
         1.6015         30.0769         7.29783 
        1.60764         29.9596         7.23251 
        1.61376         29.8228         7.16818 
        1.61989          29.596         7.10458 
        1.62604         29.5007         7.04162 
        1.63218         29.3658         6.97946 
        1.63831         29.2458          6.9182 
        1.64444         29.1032         6.85766 
        1.65059         28.9578          6.7977 
        1.65673         28.8541         6.73853 
        1.66285         28.7076         6.68023 
        1.66898         28.5707         6.62261 
        1.67512         28.4971         6.56556 
        1.68127         28.3385         6.50913 
         1.6874         28.2062          6.4535 
        1.69353         28.0581         6.39856 
        1.69967         27.9393         6.34413 
        1.70581         27.7706         6.29036 
        1.71193         27.5814         6.23742 
        1.71806         27.5444         6.18498 
        1.72421         27.4758         6.13305 
        1.73035         27.2797         6.08177 
        1.73649         27.1374         6.03109 
        1.74262         27.0043         5.98104 
        1.74876         26.8913         5.93153 
        1.75489         26.8062         5.88268 
        1.76101         26.6819          5.8344 
        1.76715         26.5747          5.7866 
        1.77329         26.4183         5.73928 
        1.77943         26.3439         5.69247 
        1.78557         26.2235         5.64626 
        1.79171         26.0769         5.60056 
        1.79785         25.9771         5.55535 
        1.80399         25.8702         5.51066 
        1.81012         25.7945         5.46652 
        1.81625         25.6118         5.42289 
        1.82239           25.52         5.37967 
        1.82853         25.4165         5.33695 
        1.83466         25.2863         5.29474 
        1.84078         25.1909         5.25303 
        1.84692         25.1374          5.2117 
        1.85306         24.9764         5.17077 
         1.8592         24.9053         5.13035 
        1.86533         24.7043         5.09038 
        1.87147         24.6223          5.0508 
        1.87761         24.5427         5.01162 
        1.88375         24.4983          4.9729 
        1.88988         24.3006         4.93464 
        1.89601          24.226         4.89676 
        1.90215         24.1028         4.85925 
        1.90829         24.0423         4.82215 
        1.91442          23.833         4.78544 
        1.92056          23.837         4.74915 
         1.9267         23.7195          4.7132 
        1.93284         23.6895          4.6776 
        1.93897          23.553         4.64244 
        1.94509         23.4405         4.60772 
        1.95123         23.2887         4.57327 
        1.95737         23.2499         4.53914 
        1.96349         23.1191         4.50546 
        1.96964         23.1266         4.47202 
        1.97578          22.949         4.43891 
        1.98192         22.8566          4.4062 
        1.98805         22.6875         4.37382 
        1.99419         22.6901         4.34177 
        2.00033         22.5822         4.31002 
        2.00647         22.4885          4.2786 
         2.0126         22.3868         4.24755 
        2.01874         22.2714         4.21676 
        2.02488         22.1503         4.18625 
        2.03101          22.075          4.1561 
        2.03714         21.9779         4.12628 
        2.04328         21.9179         4.09672 
        2.04941         21.7987         4.06747 
        2.05554         21.7826         4.03854 
        2.06167         21.6739         4.00984 
        2.06781         21.5695         3.98142 
        2.07396         21.5427         3.95324 
        2.08009         21.4016         3.92539 
        2.08622         21.3112         3.89783 
        2.09237         21.2609         3.87049 
        2.09851         21.1001          3.8434 
        2.10464         21.0509         3.81662 
        2.11077          21.002         3.79013 
        2.11691         20.8912         3.76384 
        2.12305         20.8225         3.73779 
        2.12918         20.7141         3.71205 
        2.13531         20.6631         3.68656 
        2.14145         20.5243         3.66125 
         2.1476         20.4166         3.63614 
        2.15372         20.3937          3.6114 
        2.15985         20.3196         3.58687 
        2.16599         20.2378         3.56249 
        2.17213         20.1946         3.53837 
        2.17827         20.0469         3.51448 
         2.1844         19.9847         3.49083 
        2.19054         19.9544         3.46739 
        2.19666         19.8469          3.4442 
         2.2028         19.7891         3.42121 
        2.20893         19.6407         3.39841 
        2.21508         19.5959          3.3758 
        2.22122         19.4933         3.35338 
        2.22736         19.4767         3.33122 
        2.23349         19.3961         3.30927 
        2.23962         19.3387          3.2875 
        2.24577         19.2519         3.26591 
         2.2519         19.1638         3.24454 
        2.25802         19.0279          3.2234 
        2.26417         19.0256         3.20239 
        2.27031         18.9528         3.18155 
        2.27644         18.9219         3.16096 
        2.28257         18.7696         3.14055 
        2.28872         18.7712         3.12028 
        2.29486         18.6812          3.1002 
        2.30099          18.567         3.08034 
        2.30712         18.4878         3.06064 
        2.31326         18.4361         3.04108 
         2.3194         18.3741         3.02171 
        2.32553         18.2995         3.00253 
        2.33166         18.2092         2.98354 
         2.3378         18.1744         2.96468 
        2.34394         18.0741         2.94598 
        2.35007         18.0048         2.92747 
        2.35619         17.9513         2.90914 
        2.36233         17.8742         2.89092 
        2.36848         17.8008         2.87282 
        2.37462         17.7289         2.85492 
        2.38075         17.6705         2.83719 
        2.38689         17.6193          2.8196 
        2.39303         17.5329         2.80215 
        2.39916         17.4884         2.78488 
        2.40529         17.4231         2.76775 
        2.41143         17.3431         2.75075 
        2.41757         17.2541         2.73389 
         2.4237          17.212         2.71721 
        2.42983         17.1632         2.70066 
        2.43598         17.0947         2.68421 
        2.44211         16.9924         2.66793 
        2.44823         16.9819         2.65181 
        2.45437         16.9255         2.63579 
        2.46052         16.8297         2.61989 
        2.46665         16.7934         2.60414 
        2.47279         16.6881         2.58853 
        2.47892         16.6385         2.57304 
        2.48507         16.5812         2.55766 
         2.4912         16.5418         2.54244 
