# k  (h/Mpc)    Pcb(k)  (Mpc/h)^3    Pcb_linear(k)  (Mpc/h)^3
     0.00783031         2799.16         2827.85 
       0.013688         3698.39          3693.7 
       0.019231         3897.39         3895.95 
      0.0249154         3691.64         3726.92 
      0.0312784         3311.88         3324.02 
      0.0375637         2891.44         2887.08 
      0.0433917         2524.42          2539.5 
      0.0492413         2274.02         2276.22 
      0.0555754         2057.12         2079.57 
      0.0619321         1951.25         1943.13 
       0.067871         1819.61         1837.08 
      0.0738098         1707.38         1726.07 
      0.0800417         1564.69         1590.89 
      0.0862327          1424.6         1439.72 
      0.0921407         1286.06         1292.02 
      0.0982031         1143.12         1152.24 
       0.104506         1040.01         1032.06 
       0.110769         950.611         943.059 
       0.116806         884.096         883.536 
       0.122832         847.741         842.518 
       0.129052          805.25         809.536 
       0.135211         771.971         776.855 
       0.141259         739.581         738.712 
       0.147318         697.793         692.881 
       0.153489         642.468         640.824 
       0.159709         594.982         587.926 
       0.165845         556.488          540.47 
       0.171974         513.604         501.276 
       0.178125         485.593         471.318 
       0.184229          465.66         449.802 
        0.19034         440.808         433.861 
       0.196428         432.964         420.356 
       0.202534         422.268         406.305 
       0.208729         402.656         389.662 
       0.214876         380.595         370.367 
       0.220989          366.12         349.332 
       0.227147         341.507         327.952 
        0.23329          323.92         308.169 
       0.239377         311.274          291.32 
       0.245482         292.319         277.627 
       0.251667         286.703         266.741 
       0.257832         277.649         258.031 
       0.263955         268.964         250.394 
       0.270079         260.769         242.754 
        0.27624         255.783         234.401 
       0.282372         245.775         225.206 
        0.28843         235.699         215.507 
       0.294538         225.644         205.608 
       0.300721         220.403          196.07 
        0.30691         209.834         187.471 
       0.313033         203.607         180.133 
       0.319153         194.667          173.92 
       0.325316         191.298         168.544 
        0.33145         185.121         163.712 
       0.337538         181.923         159.077 
       0.343633         176.204         154.329 
       0.349808         171.164         149.305 
       0.355968         166.977         144.101 
       0.362074         161.786         138.914 
       0.368217          157.22         133.846 
       0.374374         152.478         129.097 
       0.380519         148.766         124.791 
       0.386598         144.877         120.967 
       0.392688         142.349         117.523 
        0.39888         138.672         114.291 
       0.405048          135.77         111.224 
       0.411186          132.89         108.221 
       0.417313         129.167           105.2 
       0.423458         126.335          102.15 
       0.429607         123.103         99.1083 
       0.435692         119.183         96.1592 
       0.441815         117.991         93.3182 
       0.447964         116.069         90.6375 
       0.454126         111.208         88.1324 
       0.460267         109.707         85.8123 
       0.466387         107.391         83.6469 
        0.47254         105.784         81.5689 
       0.478662         104.216         79.5609 
       0.484765         101.476         77.5966 
       0.490885          99.519         75.6515 
       0.497035         98.2577          73.718 
       0.503198         95.7076         71.8205 
       0.509342         93.4981           69.99 
       0.515458         92.0614         68.2436 
       0.521598         90.8293         66.5696 
       0.527764         89.2721         64.9712 
       0.533884          87.752         63.4626 
           0.54          86.183         62.0197 
       0.546137         85.1821         60.6192 
       0.552299         83.9684         59.2473 
       0.558452          81.676         57.9083 
       0.564573         80.3276         56.6061 
       0.570708         79.4618         55.3313 
       0.576825         77.8931         54.0924 
       0.582926         76.4958         52.8935 
       0.589034         74.7815         51.7341 
       0.595184         73.9769         50.6114 
       0.601379         73.0585          49.525 
       0.607522          71.372         48.4853 
       0.613639         71.1602          47.482 
       0.619772         69.3975         46.5034 
       0.625918         69.0481         45.5477 
       0.632068         68.0431         44.6159 
       0.638161         66.9848         43.7164 
         0.6443          65.924         42.8333 
       0.650464         64.9479         41.9701 
       0.656582         64.4528         41.1366 
       0.662703         63.1823         40.3264 
       0.668861         62.4086         39.5353 
       0.675024         61.5375         38.7677 
       0.681124         60.5496         38.0309 
       0.687237         59.5904         37.3133 
       0.693381         59.1532         36.6115 
       0.699536         57.9903         35.9261 
       0.705665         58.1897         35.2598 
       0.711789         56.7358         34.6098 
       0.717957         56.2207         33.9709 
        0.72409         55.4512         33.3513 
       0.730186         54.6366         32.7511 
       0.736317           54.35         32.1633 
       0.742472         53.4316         31.5887 
       0.748622         53.0441         31.0298 
        0.75476         52.3258         30.4864 
       0.760888         51.5978         29.9572 
       0.767043         51.0891         29.4387 
       0.773185         50.3557         28.9336 
       0.779291         50.1548         28.4429 
       0.785407         49.6415         27.9627 
       0.791564         48.7994         27.4904 
       0.797719         47.9922         27.0292 
       0.803834         47.9279         26.5816 
       0.809972         47.3063         26.1427 
       0.816124           46.44         25.7129 
       0.822261         46.2508         25.2943 
       0.828378         45.8437         24.8865 
       0.834502         45.3156         24.4877 
       0.840667         44.9183         24.0952 
       0.846816          44.269         23.7126 
       0.852925          43.908         23.3409 
       0.859047         43.3671         22.9764 
       0.865192          43.091         22.6187 
       0.871341         42.8672         22.2683 
       0.877463         42.0193          21.927 
       0.883569         41.7042         21.5938 
       0.889708         41.3779         21.2659 
       0.895864         41.0342          20.944 
       0.902008          40.706         20.6295 
       0.908149         40.3336         20.3218 
       0.914301         40.1611         20.0199 
       0.920448         39.4165         19.7245 
       0.926574         39.2407         19.4362 
       0.932687         38.8417         19.1543 
       0.938823         38.3428         18.8771 
       0.944975         38.1397         18.6048 
       0.951105         37.8308         18.3389 
       0.957225         37.3844         18.0788 
       0.963368          37.208         17.8229 
       0.969511         36.9273          17.572 
       0.975621         36.6507         17.3273 
       0.981748         36.1641         17.0867 
       0.987916          36.007         16.8492 
        0.99406         35.6671         16.6172 
        1.00019         35.2351         16.3901 
        1.00632         35.1145         16.1675 
        1.01246         34.8266         15.9487 
        1.01859         34.3961         15.7344 
        1.02471          34.367         15.5243 
        1.03085         34.0314         15.3174 
        1.03698         33.5488         15.1147 
        1.04314         33.3294         14.9149 
        1.04929         33.0864         14.7192 
        1.05541         32.7561         14.5278 
        1.06154         32.6235         14.3394 
        1.06769         32.4007         14.1541 
        1.07382         32.1049         13.9728 
        1.07993         31.9947          13.795 
        1.08607         31.5859         13.6196 
        1.09222         31.4512         13.4472 
        1.09836         31.0926          13.278 
        1.10449         30.9873         13.1119 
        1.11063         30.6026         12.9485 
        1.11677         30.5142          12.788 
         1.1229         30.3946         12.6305 
        1.12903         29.9954         12.4755 
        1.13518         29.7594         12.3231 
        1.14131         29.7103         12.1733 
        1.14745          29.474         12.0261 
        1.15359         29.3212         11.8813 
        1.15973         29.0157         11.7389 
        1.16584         28.7176         11.5995 
        1.17197         28.7606         11.4622 
        1.17811          28.385         11.3267 
        1.18424         28.1551         11.1938 
        1.19038          28.106         11.0627 
        1.19652         27.8971         10.9337 
        1.20267         27.6952         10.8068 
        1.20881         27.5537          10.682 
        1.21495         27.3548         10.5594 
        1.22108          27.146         10.4388 
         1.2272         26.8835         10.3203 
        1.23334         26.7669         10.2034 
        1.23949         26.5544         10.0881 
        1.24562         26.5039         9.97487 
        1.25174         26.3383         9.86359 
        1.25789          26.176         9.75368 
        1.26402         26.0433         9.64566 
        1.27014         25.7941         9.53955 
        1.27628         25.5716         9.43474 
        1.28244         25.5239         9.33131 
        1.28858          25.413         9.22959 
        1.29471         25.1809         9.12962 
        1.30084         25.0136         9.03124 
        1.30697         24.8712         8.93418 
        1.31312         24.6566         8.83841 
        1.31925         24.5333         8.74436 
        1.32537         24.4763         8.65178 
        1.33151         24.2491         8.56023 
        1.33765         24.1638         8.47007 
        1.34378         24.0613         8.38139 
        1.34992         23.7564         8.29394 
        1.35606         23.7275         8.20756 
         1.3622         23.5968         8.12257 
        1.36833         23.4351           8.039 
        1.37445         23.3669         7.95666 
        1.38059         23.2327         7.87524 
        1.38675          22.995         7.79477 
        1.39288         22.9409         7.71575 
        1.39901         22.7526         7.63788 
        1.40515         22.6749         7.56091 
         1.4113         22.5313         7.48505 
        1.41742         22.3625         7.41052 
        1.42355         22.3015         7.33688 
         1.4297         22.1685         7.26403 
        1.43585         22.1166         7.19221 
        1.44198         21.8851         7.12164 
        1.44809         21.8309         7.05216 
        1.45423          21.712         6.98335 
        1.46036          21.634          6.9156 
        1.46649         21.5082         6.84873 
        1.47263         21.3408          6.7827 
        1.47877         21.2531         6.71757 
        1.48491         21.1444         6.65321 
        1.49104         21.0893         6.58983 
        1.49718         20.9134         6.52723 
        1.50333         20.8357         6.46536 
        1.50947         20.7568         6.40442 
         1.5156         20.5846         6.34436 
        1.52172         20.4586         6.28507 
        1.52787         20.4025         6.22644 
          1.534         20.2864         6.16862 
        1.54013         20.1429         6.11161 
        1.54627         20.0627         6.05522 
        1.55241         19.9517         5.99954 
        1.55855         19.8819         5.94464 
        1.56467         19.7852         5.89059 
         1.5708          19.725         5.83707 
        1.57695         19.5433         5.78413 
        1.58308          19.516         5.73198 
        1.58922           19.41         5.68043 
        1.59535         19.3068         5.62955 
         1.6015         19.1871         5.57923 
        1.60764         19.1278         5.52954 
        1.61376         19.0698         5.48061 
        1.61989         18.8812         5.43223 
        1.62604         18.8888         5.38433 
        1.63218         18.7521         5.33705 
        1.63831         18.6971         5.29044 
        1.64444         18.5527         5.24438 
        1.65059         18.4835         5.19877 
        1.65673         18.4285         5.15375 
        1.66285         18.2842         5.10939 
        1.66898         18.2523         5.06555 
        1.67512         18.1635         5.02213 
        1.68127         18.0417         4.97919 
         1.6874          17.972         4.93686 
        1.69353         17.9234         4.89504 
        1.69967         17.7966         4.85362 
        1.70581         17.6998         4.81269 
        1.71193         17.6266         4.77239 
        1.71806         17.5911         4.73248 
        1.72421         17.4684         4.69294 
        1.73035         17.4363         4.65391 
        1.73649         17.3349         4.61532 
        1.74262         17.2909         4.57721 
        1.74876         17.1936         4.53951 
        1.75489         17.1256         4.50232 
        1.76101         17.0132         4.46555 
        1.76715         17.0199         4.42915 
        1.77329         16.9002         4.39311 
        1.77943         16.8007         4.35746 
        1.78557         16.7428         4.32226 
        1.79171         16.7017         4.28745 
        1.79785         16.5928         4.25302 
        1.80399         16.5364         4.21897 
        1.81012         16.4646         4.18535 
        1.81625         16.3743         4.15211 
        1.82239         16.3279         4.11918 
        1.82853         16.1999         4.08663 
        1.83466         16.1688         4.05447 
        1.84078         16.0483         4.02269 
        1.84692         16.0377          3.9912 
        1.85306         15.9625         3.96001 
         1.8592          15.896          3.9292 
        1.86533         15.8401         3.89874 
        1.87147         15.7626         3.86858 
        1.87761         15.7071         3.83872 
        1.88375         15.6085         3.80921 
        1.88988         15.5842         3.78005 
        1.89601         15.5154         3.75118 
        1.90215         15.4287         3.72259 
        1.90829         15.3809         3.69431 
        1.91442         15.3094         3.66633 
        1.92056         15.2673         3.63866 
         1.9267         15.1966         3.61126 
        1.93284         15.1209         3.58412 
        1.93897         15.0339         3.55731 
        1.94509         14.9976         3.53084 
        1.95123          14.942         3.50457 
        1.95737          14.876         3.47855 
        1.96349         14.8105         3.45287 
        1.96964         14.7581         3.42737 
        1.97578          14.698         3.40212 
        1.98192         14.6191         3.37717 
        1.98805         14.5818         3.35248 
        1.99419         14.5135         3.32803 
        2.00033         14.4697         3.30382 
        2.00647         14.4249         3.27985 
         2.0126         14.3078         3.25617 
        2.01874         14.2771         3.23268 
        2.02488         14.2012         3.20941 
        2.03101         14.1877         3.18641 
        2.03714         14.1234         3.16365 
        2.04328         14.0569          3.1411 
        2.04941         14.0012         3.11879 
        2.05554         13.9673         3.09671 
        2.06167         13.8959         3.07481 
        2.06781         13.8591         3.05313 
        2.07396         13.8037         3.03162 
        2.08009         13.7386         3.01036 
        2.08622         13.6678         2.98933 
        2.09237         13.6459         2.96847 
        2.09851         13.6031         2.94779 
        2.10464         13.5333         2.92736 
        2.11077         13.4759         2.90714 
        2.11691         13.4104         2.88706 
        2.12305         13.3792         2.86718 
        2.12918         13.3409         2.84754 
        2.13531         13.2811         2.82807 
        2.14145         13.2346         2.80875 
         2.1476          13.176         2.78958 
        2.15372         13.1362         2.77069 
        2.15985         13.0929         2.75196 
        2.16599         13.0345         2.73335 
        2.17213         13.0095         2.71493 
        2.17827         12.9513         2.69669 
         2.1844         12.8984         2.67863 
        2.19054         12.8249         2.66074 
        2.19666         12.7988         2.64303 
         2.2028         12.7413         2.62547 
        2.20893         12.7217         2.60806 
        2.21508         12.6573         2.59079 
        2.22122         12.5891         2.57367 
        2.22736         12.5626         2.55674 
        2.23349         12.5003         2.53997 
        2.23962         12.4856         2.52335 
        2.24577         12.4172         2.50686 
         2.2519         12.3783         2.49054 
        2.25802         12.3326         2.47439 
        2.26417         12.2823         2.45834 
        2.27031         12.2501         2.44242 
        2.27644          12.206         2.42669 
        2.28257         12.1766         2.41109 
        2.28872         12.0991         2.39561 
        2.29486         12.0787         2.38027 
        2.30099         12.0607         2.36509 
        2.30712         12.0117         2.35004 
        2.31326         11.9468         2.33509 
         2.3194         11.8823         2.32029 
        2.32553         11.8777         2.30564 
        2.33166         11.8105         2.29112 
         2.3378         11.7873         2.27671 
        2.34394          11.735         2.26242 
        2.35007         11.6756         2.24827 
        2.35619         11.6425         2.23426 
        2.36233         11.5956         2.22034 
        2.36848         11.5824          2.2065 
        2.37462          11.528         2.19282 
        2.38075         11.4687         2.17927 
        2.38689         11.4419         2.16582 
        2.39303         11.4046         2.15248 
        2.39916         11.3689         2.13928 
        2.40529         11.3418         2.12618 
        2.41143         11.2821         2.11319 
        2.41757         11.2702          2.1003 
         2.4237         11.2062         2.08754 
        2.42983         11.1868         2.07489 
        2.43598         11.1515         2.06231 
        2.44211         11.0935         2.04986 
        2.44823         11.0727         2.03754 
        2.45437         11.0308         2.02529 
        2.46052         10.9833         2.01312 
        2.46665         10.9462         2.00108 
        2.47279         10.9108         1.98915 
        2.47892         10.8651          1.9773 
        2.48507          10.829         1.96554 
         2.4912         10.8032          1.9539 
