# k  (h/Mpc)    Pcb(k)  (Mpc/h)^3    Pcb_linear(k)  (Mpc/h)^3
     0.00783031         3345.74         3380.24 
       0.013688          4398.3         4388.33 
       0.019231         4655.85         4653.84 
      0.0249154         4460.61         4507.47 
      0.0312784         4082.02         4100.81 
      0.0375637          3645.8         3643.85 
      0.0433917         3243.07         3270.13 
      0.0492413         2967.02         2976.03 
      0.0555754         2702.75         2741.01 
      0.0619321         2566.14         2559.91 
       0.067871         2377.27         2406.93 
      0.0738098         2215.99          2246.7 
      0.0800417         2020.99          2062.2 
      0.0862327         1843.69          1869.1 
      0.0921407         1678.06         1690.23 
      0.0982031         1510.22         1527.13 
       0.104506          1396.7          1389.5 
       0.110769         1292.06         1286.46 
       0.116806         1208.77         1213.19 
       0.122832         1158.56         1155.84 
       0.129052         1091.85         1102.32 
       0.135211         1036.89         1046.52 
       0.141259         985.823         985.305 
       0.147318         925.985         918.687 
       0.153489          852.46         849.848 
       0.159709         795.768         785.108 
       0.165845         753.501         730.141 
       0.171974         703.321         685.912 
       0.178125         670.137         651.468 
       0.184229         645.515         624.459 
        0.19034         609.039         601.042 
       0.196428         595.891         578.058 
       0.202534         577.141          553.23 
       0.208729         547.076         525.656 
       0.214876         515.181         496.813 
       0.220989          496.93         468.395 
       0.227147         465.331         441.867 
        0.23329         444.827         418.773 
       0.239377          431.43         399.618 
       0.245482         406.273         383.719 
       0.251667         400.234         369.998 
       0.257832          387.36         357.465 
       0.263955         374.155         345.095 
       0.270079         361.592         332.179 
        0.27624         354.168         318.528 
       0.282372         339.318          304.65 
        0.28843         326.262         291.221 
       0.294538         312.625         278.549 
       0.300721         307.462         267.012 
        0.30691         293.598         256.875 
       0.313033         286.074         248.085 
       0.319153         274.446         240.178 
       0.325316         268.963         232.699 
        0.33145         260.314         225.383 
       0.337538         256.057         218.051 
       0.343633          247.66         210.606 
       0.349808         240.231         203.068 
       0.355968         235.032         195.746 
       0.362074         228.237         188.864 
       0.368217         222.241         182.459 
       0.374374         215.713         176.585 
       0.380519         211.022         171.226 
       0.386598         205.762         166.302 
       0.392688         202.621         161.608 
        0.39888         197.373          156.97 
       0.405048         193.246         152.404 
       0.411186         189.059         147.894 
       0.417313         184.317         143.465 
       0.423458          180.47         139.143 
       0.429607         175.963         134.999 
       0.435692         170.526         131.126 
       0.441815         169.253          127.46 
       0.447964         166.578         123.998 
       0.454126         159.575          120.72 
       0.460267         157.641         117.592 
       0.466387         154.882         114.568 
        0.47254         152.325         111.599 
       0.478662         150.272         108.709 
       0.484765          146.45         105.889 
       0.490885         143.856         103.138 
       0.497035         142.026         100.473 
       0.503198         138.291         97.9155 
       0.509342         135.599         95.4776 
       0.515458           133.7         93.1576 
       0.521598         132.098         90.9283 
       0.527764         129.923         88.7743 
       0.533884         127.655         86.7035 
           0.54         125.614         84.6881 
       0.546137         124.402         82.7166 
       0.552299           122.6         80.7904 
       0.558452         119.588         78.9223 
       0.564573         117.472         77.1199 
       0.570708         116.302         75.3719 
       0.576825         114.276         73.6902 
       0.582926         112.376         72.0738 
       0.589034         110.035         70.5126 
       0.595184         108.962         68.9915 
       0.601379         107.841         67.5045 
       0.607522         105.173         66.0701 
       0.613639           105.1         64.6797 
       0.619772         102.539         63.3236 
       0.625918          101.88         62.0025 
       0.632068         100.549         60.7182 
       0.638161         99.1998         59.4822 
         0.6443          97.803         58.2727 
       0.650464         96.4762         57.0939 
       0.656582         95.5656         55.9581 
       0.662703         93.6978         54.8549 
       0.668861         92.8295         53.7767 
       0.675024         91.6357         52.7273 
       0.681124         90.3683         51.7165 
       0.687237         88.9071         50.7295 
       0.693381         88.1409         49.7624 
       0.699536         86.7643         48.8182 
       0.705665         87.1778         47.9022 
       0.711789         84.8921         47.0106 
       0.717957         84.3544         46.1363 
        0.72409         83.1335         45.2899 
       0.730186         81.8591         44.4709 
       0.736317         81.6329         43.6683 
       0.742472         80.4097         42.8831 
       0.748622         79.8608         42.1182 
        0.75476         78.8837         41.3737 
       0.760888         77.8413         40.6481 
       0.767043         77.0751         39.9368 
       0.773185         76.1451         39.2439 
       0.779291         75.7176         38.5714 
       0.785407         75.0182         37.9137 
       0.791564         73.8782         37.2673 
       0.797719         72.8745         36.6365 
       0.803834         72.6973         36.0246 
       0.809972         71.5367         35.4247 
       0.816124         70.6502         34.8374 
       0.822261         70.3293         34.2652 
       0.828378         69.6801         33.7078 
       0.834502         68.8938         33.1624 
       0.840667         68.3823         32.6257 
       0.846816         67.5297         32.1024 
       0.852925         66.9327         31.5941 
       0.859047          66.064         31.0957 
       0.865192         65.8432         30.6065 
       0.871341         65.4361         30.1276 
       0.877463         64.1962         29.6612 
       0.883569         63.8454         29.2059 
       0.889708         63.5074         28.7579 
       0.895864         62.8904         28.3182 
       0.902008         62.3978         27.8888 
       0.908149         61.8906         27.4685 
       0.914301         61.4831         27.0564 
       0.920448         60.6137         26.6531 
       0.926574         60.3427         26.2595 
       0.932687         59.7816         25.8748 
       0.938823         58.9684         25.4965 
       0.944975         58.8397         25.1249 
       0.951105          58.283         24.7621 
       0.957225         57.6016         24.4071 
       0.963368         57.3849          24.058 
       0.969511         57.0016         23.7157 
       0.975621         56.5413         23.3819 
       0.981748         55.8763         23.0538 
       0.987916         55.6394         22.7299 
        0.99406         55.2826         22.4135 
        1.00019         54.5282         22.1038 
        1.00632         54.3713         21.8003 
        1.01246         53.8822         21.5021 
        1.01859         53.3101         21.2099 
        1.02471         53.3689         20.9236 
        1.03085         52.7879         20.6416 
        1.03698         52.1651         20.3654 
        1.04314         51.7092         20.0932 
        1.04929         51.5511         19.8266 
        1.05541         50.9881         19.5659 
        1.06154         50.8527         19.3093 
        1.06769         50.4152          19.057 
        1.07382          50.076           18.81 
        1.07993         49.9199          18.568 
        1.08607         49.3361         18.3293 
        1.09222         49.1765         18.0946 
        1.09836         48.6646         17.8642 
        1.10449         48.4521         17.6382 
        1.11063          47.812         17.4159 
        1.11677         47.6684         17.1975 
         1.1229         47.5272         16.9833 
        1.12903         46.8939         16.7725 
        1.13518         46.7217         16.5652 
        1.14131         46.6369         16.3615 
        1.14745         46.1445         16.1614 
        1.15359         45.9559         15.9646 
        1.15973          45.446          15.771 
        1.16584         45.1208         15.5815 
        1.17197         45.1392         15.3949 
        1.17811         44.6206         15.2108 
        1.18424         44.2478         15.0302 
        1.19038          44.224          14.852 
        1.19652         43.9154         14.6769 
        1.20267         43.6138         14.5045 
        1.20881         43.3214          14.335 
        1.21495          43.009         14.1685 
        1.22108          42.735         14.0046 
         1.2272         42.3026         13.8438 
        1.23334         42.1819         13.6851 
        1.23949         41.9433         13.5285 
        1.24562         41.7884         13.3749 
        1.25174         41.5456         13.2238 
        1.25789         41.3053         13.0747 
        1.26402         41.0814         12.9281 
        1.27014         40.6959         12.7841 
        1.27628         40.4793         12.6419 
        1.28244         40.2782         12.5016 
        1.28858         40.1098         12.3636 
        1.29471         39.8511         12.2281 
        1.30084         39.6165         12.0947 
        1.30697         39.3269         11.9631 
        1.31312         39.0113         11.8332 
        1.31925         38.9051         11.7057 
        1.32537         38.7417         11.5803 
        1.33151          38.448         11.4562 
        1.33765         38.3725          11.334 
        1.34378         38.2054         11.2139 
        1.34992         37.6319         11.0954 
        1.35606         37.5784         10.9784 
         1.3622         37.3707         10.8633 
        1.36833         37.1727         10.7502 
        1.37445         37.1286         10.6387 
        1.38059          36.937         10.5284 
        1.38675         36.5894         10.4195 
        1.39288         36.4737         10.3125 
        1.39901         36.1698         10.2071 
        1.40515         36.0184          10.103 
         1.4113         35.8957         10.0003 
        1.41742         35.5238         9.89946 
        1.42355         35.5079         9.79983 
         1.4297         35.2532         9.70128 
        1.43585         35.1961         9.60412 
        1.44198         34.8426         9.50868 
        1.44809         34.7503         9.41471 
        1.45423         34.6124         9.32167 
        1.46036         34.4784         9.23006 
        1.46649           34.24         9.13965 
        1.47263          34.048         9.05038 
        1.47877         33.8965         8.96235 
        1.48491         33.7041         8.87535 
        1.49104         33.6455         8.78969 
        1.49718         33.3314         8.70511 
        1.50333         33.2302          8.6215 
        1.50947         33.0894         8.53917 
         1.5156         32.8667         8.45804 
        1.52172         32.6143         8.37797 
        1.52787         32.6293         8.29878 
          1.534         32.3897         8.22071 
        1.54013         32.1618         8.14373 
        1.54627          32.116          8.0676 
        1.55241         31.8902         7.99244 
        1.55855         31.7614         7.91834 
        1.56467         31.6436         7.84539 
         1.5708         31.4913         7.77315 
        1.57695         31.1928         7.70172 
        1.58308         31.2572         7.63135 
        1.58922          31.036         7.56182 
        1.59535         30.8178         7.49318 
         1.6015         30.7087          7.4253 
        1.60764         30.6438          7.3583 
        1.61376         30.4719         7.29231 
        1.61989         30.1928         7.22708 
        1.62604         30.1701         7.16251 
        1.63218         29.9505         7.09877 
        1.63831         29.8906         7.03595 
        1.64444         29.7045         6.97387 
        1.65059         29.5537          6.9124 
        1.65673         29.4643         6.85173 
        1.66285         29.3101         6.79197 
        1.66898         29.1703          6.7329 
        1.67512         29.0699         6.67441 
        1.68127         28.8466         6.61658 
         1.6874         28.7624         6.55955 
        1.69353         28.7252         6.50324 
        1.69967         28.4699         6.44745 
        1.70581          28.332         6.39234 
        1.71193         28.1749         6.33809 
        1.71806         28.1346         6.28435 
        1.72421         27.9989         6.23113 
        1.73035           27.91         6.17859 
        1.73649         27.6998         6.12667 
        1.74262         27.6421         6.07539 
        1.74876         27.4929         6.02466 
        1.75489         27.3564         5.97461 
        1.76101         27.2656         5.92515 
        1.76715          27.178         5.87619 
        1.77329         27.0703         5.82772 
        1.77943         26.9166         5.77978 
        1.78557         26.7784         5.73245 
        1.79171         26.7028         5.68564 
        1.79785         26.5647         5.63934 
        1.80399         26.4624         5.59358 
        1.81012         26.3557         5.54838 
        1.81625         26.2324          5.5037 
        1.82239         26.1543         5.45945 
        1.82853         25.9477         5.41571 
        1.83466         25.8652         5.37249 
        1.84078         25.6843         5.32979 
        1.84692          25.678         5.28749 
        1.85306         25.4988         5.24559 
         1.8592         25.4489         5.20422 
        1.86533         25.3149         5.16331 
        1.87147         25.2146          5.1228 
        1.87761          25.172         5.08271 
        1.88375         24.9728          5.0431 
        1.88988         24.9488         5.00395 
        1.89601         24.8057         4.96519 
        1.90215         24.6869         4.92682 
        1.90829         24.6303         4.88887 
        1.91442         24.4834         4.85132 
        1.92056         24.3992          4.8142 
         1.9267         24.3197         4.77743 
        1.93284         24.1898         4.74102 
        1.93897         24.1032         4.70506 
        1.94509         24.0057         4.66955 
        1.95123          23.888         4.63432 
        1.95737         23.7673         4.59942 
        1.96349         23.6965         4.56498 
        1.96964         23.5676         4.53079 
        1.97578         23.5122         4.49693 
        1.98192         23.3617          4.4635 
        1.98805         23.3095         4.43039 
        1.99419         23.1974         4.39762 
        2.00033         23.1015         4.36517 
        2.00647         23.0459         4.33306 
         2.0126         22.8435         4.30132 
        2.01874         22.8131         4.26985 
        2.02488         22.7278         4.23867 
        2.03101         22.7113         4.20786 
        2.03714         22.5459         4.17739 
        2.04328         22.4375         4.14718 
        2.04941         22.3579          4.1173 
        2.05554         22.3313         4.08774 
        2.06167         22.2292         4.05842 
        2.06781         22.1205         4.02939 
        2.07396         22.0182          4.0006 
        2.08009         21.9553         3.97215 
        2.08622         21.8641           3.944 
        2.09237         21.7775         3.91607 
        2.09851         21.6562         3.88841 
        2.10464         21.5996         3.86105 
        2.11077         21.4926           3.834 
        2.11691         21.4358         3.80715 
        2.12305         21.3111         3.78055 
        2.12918          21.248         3.75427 
        2.13531          21.168         3.72824 
        2.14145          21.068         3.70239 
         2.1476         20.9818         3.67677 
        2.15372         20.9302         3.65151 
        2.15985         20.7894         3.62646 
        2.16599         20.7643         3.60158 
        2.17213         20.6995         3.57696 
        2.17827           20.61         3.55258 
         2.1844         20.5253         3.52844 
        2.19054         20.4294         3.50453 
        2.19666         20.3635         3.48086 
         2.2028         20.2875          3.4574 
        2.20893         20.1761         3.43414 
        2.21508         20.1414         3.41107 
        2.22122         20.0098          3.3882 
        2.22736          19.948         3.36559 
        2.23349         19.8703         3.34319 
        2.23962         19.8162         3.32099 
        2.24577         19.7092         3.29897 
         2.2519         19.6659         3.27717 
        2.25802         19.5919         3.25561 
        2.26417         19.5156         3.23419 
        2.27031         19.4477         3.21293 
        2.27644         19.3764         3.19193 
        2.28257          19.291         3.17112 
        2.28872         19.2033         3.15046 
        2.29486         19.1759         3.12998 
        2.30099         19.0764         3.10973 
        2.30712         19.0229         3.08965 
        2.31326         18.9445         3.06971 
         2.3194         18.8177         3.04996 
        2.32553         18.7926         3.03042 
        2.33166         18.6847         3.01106 
         2.3378         18.6328         2.99184 
        2.34394         18.5417         2.97278 
        2.35007         18.4583         2.95391 
        2.35619          18.423         2.93524 
        2.36233         18.3412         2.91668 
        2.36848         18.3153         2.89824 
        2.37462         18.2493            2.88 
        2.38075         18.1626         2.86193 
        2.38689         18.1007         2.84401 
        2.39303         18.0338         2.82624 
        2.39916         17.9421         2.80864 
        2.40529         17.8993          2.7912 
        2.41143          17.826         2.77388 
        2.41757         17.7783         2.75671 
         2.4237         17.6666         2.73972 
        2.42983         17.6319         2.72287 
        2.43598         17.5613         2.70612 
        2.44211         17.4655         2.68953 
        2.44823         17.4123         2.67312 
        2.45437         17.3834         2.65681 
        2.46052         17.3375         2.64062 
        2.46665         17.2375         2.62459 
        2.47279         17.1897          2.6087 
        2.47892          17.111         2.59293 
        2.48507          17.061         2.57727 
         2.4912         17.0135         2.56178 
