# k  (h/Mpc)    Pcb(k)  (Mpc/h)^3    Pcb_linear(k)  (Mpc/h)^3
     0.00783031         1649.48         1666.14 
       0.013688         2084.96         2085.62 
       0.019231         2130.76         2130.02 
      0.0249154          1968.6         1981.97 
      0.0312784         1722.74          1725.3 
      0.0375637         1479.19         1475.25 
      0.0433917         1285.66         1288.79 
      0.0492413         1154.49          1153.5 
      0.0555754          1047.4          1053.8 
      0.0619321         985.819         981.137 
       0.067871         914.629         919.147 
      0.0738098          846.34         851.234 
      0.0800417         763.585         770.565 
      0.0862327         683.099         685.945 
      0.0921407         609.299         609.249 
      0.0982031         540.565         542.026 
       0.104506         492.493          488.45 
       0.110769         454.462          451.18 
       0.116806         426.775         426.567 
       0.122832         409.912          407.88 
       0.129052         388.407         389.489 
       0.135211         367.391         368.538 
       0.141259         345.488         344.243 
       0.147318         320.441         317.435 
       0.153489         292.196         290.178 
       0.159709           268.7         265.478 
       0.165845          251.45         245.577 
       0.171974         234.279          230.54 
       0.178125         223.672         219.538 
       0.184229          215.68         211.178 
        0.19034         205.205         203.681 
       0.196428         199.179         195.722 
       0.202534         191.748          186.55 
       0.208729          180.39         176.089 
       0.214876         168.681         165.209 
       0.220989         160.472         154.773 
       0.227147         149.634         145.412 
        0.23329         142.183         137.634 
       0.239377         136.829         131.463 
       0.245482          130.13         126.483 
       0.251667         127.304         122.156 
       0.257832         122.984          118.03 
       0.263955          118.56          113.74 
       0.270079         114.008         109.108 
        0.27624         110.325         104.177 
       0.282372         105.406         99.2303 
        0.28843         100.364         94.5658 
       0.294538         96.0577         90.3046 
       0.300721         93.3327         86.5438 
        0.30691         89.2375         83.3159 
       0.313033         86.5216         80.5306 
       0.319153         82.7443         77.9867 
       0.325316         81.5013          75.506 
        0.33145         78.5486         73.0114 
       0.337538         76.4112         70.4707 
       0.343633         73.5862         67.8938 
       0.349808         71.2535         65.3159 
       0.355968         69.0021         62.8632 
       0.362074         66.6529         60.6067 
       0.368217           64.64         58.5436 
       0.374374          62.597         56.6707 
       0.380519         61.0506         54.9562 
       0.386598         59.4294         53.3631 
       0.392688          58.157         51.8177 
        0.39888         56.4416         50.2676 
       0.405048         55.0636         48.7332 
       0.411186         53.6865         47.2201 
       0.417313         51.8692         45.7477 
       0.423458         50.5246         44.3308 
       0.429607          49.108         42.9885 
       0.435692         47.5969         41.7453 
       0.441815         46.7611         40.5743 
       0.447964         45.9485         39.4648 
       0.454126         44.1717         38.4053 
       0.460267         43.3799         37.3866 
       0.466387         42.1247          36.395 
        0.47254          41.454         35.4178 
       0.478662         40.6868         34.4687 
       0.484765         39.4888         33.5491 
       0.490885         38.5722         32.6583 
       0.497035         38.0489         31.8005 
       0.503198         37.0393          30.982 
       0.509342          36.098         30.2037 
       0.515458         35.3375         29.4616 
       0.521598         34.7338         28.7451 
       0.527764         33.9886         28.0499 
       0.533884         33.4002         27.3801 
           0.54          32.687         26.7279 
       0.546137         32.1398         26.0901 
       0.552299         31.6009         25.4685 
       0.558452         30.6252         24.8683 
       0.564573          30.196         24.2919 
       0.570708         29.6895         23.7346 
       0.576825         28.9478         23.1986 
       0.582926          28.427         22.6827 
       0.589034         27.6734         22.1835 
       0.595184         27.3148         21.6968 
       0.601379         26.7966         21.2208 
       0.607522         26.3346         20.7615 
       0.613639         26.0602         20.3164 
       0.619772         25.3769         19.8825 
       0.625918          25.228         19.4604 
       0.632068         24.8101          19.051 
       0.638161         24.2665         18.6578 
         0.6443         23.7827         18.2737 
       0.650464         23.3556         17.8994 
       0.656582         23.2029         17.5386 
       0.662703         22.7653         17.1877 
       0.668861         22.3438         16.8444 
       0.675024         21.9426         16.5103 
       0.681124         21.5689         16.1886 
       0.687237         21.2212         15.8748 
       0.693381         21.0147         15.5679 
       0.699536         20.4639         15.2686 
       0.705665         20.3504         14.9785 
       0.711789         19.9444         14.6963 
       0.717957         19.6611         14.4195 
        0.72409         19.3588         14.1516 
       0.730186         19.1016         13.8922 
       0.736317         18.8921         13.6381 
       0.742472         18.5792         13.3895 
       0.748622         18.3545         13.1474 
        0.75476         18.0031         12.9119 
       0.760888         17.7748         12.6825 
       0.767043         17.5641         12.4579 
       0.773185         17.2307         12.2392 
       0.779291         17.1294          12.027 
       0.785407         16.8966         11.8196 
       0.791564          16.603         11.6158 
       0.797719         16.2765          11.417 
       0.803834         16.2239         11.2241 
       0.809972         16.0782         11.0351 
       0.816124         15.7078           10.85 
       0.822261         15.5433         10.6697 
       0.828378         15.3676         10.4942 
       0.834502         15.2275         10.3224 
       0.840667          14.999         10.1535 
       0.846816         14.7356          9.9888 
       0.852925         14.6025         9.82887 
       0.859047         14.4372         9.67213 
       0.865192          14.308         9.51833 
       0.871341          14.176         9.36781 
       0.877463         13.9318         9.22126 
       0.883569         13.7401         9.07825 
       0.889708         13.5279         8.93757 
       0.895864         13.4344         8.79953 
       0.902008         13.3197         8.66473 
       0.908149          13.172         8.53286 
       0.914301         13.0383         8.40354 
       0.920448         12.8109         8.27705 
       0.926574         12.6874         8.15363 
       0.932687         12.5647         8.03301 
       0.938823         12.3947         7.91442 
       0.944975         12.2458         7.79797 
       0.951105         12.1427         7.68431 
       0.957225         12.0549         7.57313 
       0.963368         11.9155         7.46379 
       0.969511         11.8026         7.35662 
       0.975621         11.6724         7.25215 
       0.981748         11.5376         7.14946 
       0.987916         11.4519         7.04813 
        0.99406         11.2836         6.94917 
        1.00019          11.115         6.85231 
        1.00632         11.1018         6.75741 
        1.01246         10.9741         6.66417 
        1.01859         10.8115         6.57286 
        1.02471          10.748         6.48339 
        1.03085         10.6417         6.39529 
        1.03698         10.4866         6.30902 
        1.04314         10.4255         6.22399 
        1.04929         10.2896         6.14074 
        1.05541         10.1783         6.05935 
        1.06154         10.1052         5.97925 
        1.06769         10.0579         5.90049 
        1.07382         9.90576         5.82342 
        1.07993         9.82656         5.74791 
        1.08607           9.747         5.67344 
        1.09222         9.65991         5.60023 
        1.09836         9.55214          5.5284 
        1.10449         9.47154         5.45792 
        1.11063         9.38173          5.3886 
        1.11677         9.32837         5.32052 
         1.1229           9.258         5.25375 
        1.12903         9.14855         5.18806 
        1.13518         9.04156         5.12346 
        1.14131         8.96996            5.06 
        1.14745         8.88457         4.99766 
        1.15359         8.83128         4.93636 
        1.15973         8.75353         4.87608 
        1.16584         8.62961         4.81708 
        1.17197         8.57585         4.75898 
        1.17811         8.53607         4.70167 
        1.18424         8.45957         4.64547 
        1.19038          8.4186         4.59004 
        1.19652         8.32267         4.53554 
        1.20267         8.23296         4.48193 
        1.20881         8.21001          4.4292 
        1.21495          8.1377         4.37742 
        1.22108         8.04229         4.32647 
         1.2272         7.99689         4.27646 
        1.23334         7.90378         4.22713 
        1.23949         7.84155         4.17847 
        1.24562         7.80644         4.13071 
        1.25174         7.73716         4.08378 
        1.25789         7.68183         4.03743 
        1.26402         7.63794          3.9919 
        1.27014         7.57084         3.94718 
        1.27628         7.48796         3.90301 
        1.28244         7.41643         3.85944 
        1.28858         7.40947          3.8166 
        1.29471         7.32535         3.77451 
        1.30084         7.25617         3.73309 
        1.30697         7.25642         3.69223 
        1.31312         7.13116         3.65193 
        1.31925         7.09485         3.61237 
        1.32537         7.04565         3.57343 
        1.33151         7.01866         3.53493 
        1.33765         6.93966         3.49703 
        1.34378         6.88958         3.45975 
        1.34992         6.85184           3.423 
        1.35606         6.78999         3.38671 
         1.3622         6.75571         3.35101 
        1.36833         6.70116         3.31591 
        1.37445         6.65893         3.28134 
        1.38059         6.63593         3.24716 
        1.38675         6.57609         3.21338 
        1.39288         6.53611         3.18022 
        1.39901         6.46342         3.14755 
        1.40515         6.43357         3.11527 
         1.4113         6.39187         3.08345 
        1.41742         6.34894         3.05221 
        1.42355         6.29191         3.02134 
         1.4297          6.2524          2.9908 
        1.43585         6.22843          2.9607 
        1.44198         6.20234         2.93114 
        1.44809         6.13927         2.90203 
        1.45423         6.09297         2.87322 
        1.46036         6.05088         2.84485 
        1.46649         6.01203         2.81686 
        1.47263         5.96432         2.78922 
        1.47877         5.92704         2.76196 
        1.48491         5.89346         2.73503 
        1.49104         5.85802         2.70852 
        1.49718         5.82428         2.68234 
        1.50333         5.79125         2.65647 
        1.50947         5.74524         2.63099 
         1.5156         5.71316         2.60589 
        1.52172         5.68166         2.58111 
        1.52787         5.64845         2.55661 
          1.534         5.60203         2.53246 
        1.54013         5.58126         2.50865 
        1.54627         5.52821          2.4851 
        1.55241         5.49886         2.46185 
        1.55855         5.47786         2.43893 
        1.56467          5.4367         2.41637 
         1.5708         5.41087         2.39403 
        1.57695         5.36232         2.37195 
        1.58308         5.32658         2.35019 
        1.58922         5.31488         2.32869 
        1.59535         5.28542         2.30747 
         1.6015         5.24256         2.28649 
        1.60764         5.20783         2.26578 
        1.61376         5.18496         2.24538 
        1.61989         5.15736         2.22522 
        1.62604         5.11871         2.20526 
        1.63218         5.10773         2.18556 
        1.63831         5.07382         2.16615 
        1.64444         5.04555         2.14697 
        1.65059          4.9918         2.12797 
        1.65673         4.98946         2.10923 
        1.66285         4.94124         2.09077 
        1.66898         4.92081         2.07252 
        1.67512         4.89195         2.05445 
        1.68127         4.86428         2.03659 
         1.6874         4.84831         2.01898 
        1.69353         4.80479         2.00158 
        1.69967         4.78693         1.98436 
        1.70581         4.76216         1.96734 
        1.71193         4.73523         1.95059 
        1.71806         4.71554           1.934 
        1.72421         4.68294         1.91757 
        1.73035         4.66773         1.90135 
        1.73649         4.63706         1.88532 
        1.74262         4.60579         1.86949 
        1.74876         4.59307         1.85383 
        1.75489         4.57045         1.83838 
        1.76101         4.53098         1.82312 
        1.76715         4.51898         1.80801 
        1.77329         4.49773         1.79305 
        1.77943         4.45473         1.77826 
        1.78557         4.44808         1.76365 
        1.79171         4.42036         1.74921 
        1.79785         4.39734         1.73493 
        1.80399         4.37119         1.72081 
        1.81012         4.35431         1.70686 
        1.81625         4.32948         1.69308 
        1.82239          4.3094         1.67943 
        1.82853          4.2843         1.66594 
        1.83466         4.27198         1.65261 
        1.84078         4.25023         1.63944 
        1.84692         4.23628         1.62639 
        1.85306         4.19876         1.61347 
         1.8592         4.17591         1.60071 
        1.86533         4.15955          1.5881 
        1.87147         4.14486          1.5756 
        1.87761         4.11912         1.56324 
        1.88375         4.09966         1.55103 
        1.88988         4.07601         1.53895 
        1.89601         4.06098         1.52701 
        1.90215         4.04286         1.51518 
        1.90829          4.0162         1.50348 
        1.91442         4.00335          1.4919 
        1.92056          3.9777         1.48046 
         1.9267         3.96146         1.46912 
        1.93284         3.94552          1.4579 
        1.93897          3.9262         1.44682 
        1.94509         3.90286         1.43587 
        1.95123         3.88459         1.42501 
        1.95737          3.8612         1.41426 
        1.96349         3.85172         1.40365 
        1.96964         3.83991         1.39311 
        1.97578         3.80885         1.38268 
        1.98192         3.80014         1.37238 
        1.98805         3.78438         1.36218 
        1.99419         3.76524         1.35208 
        2.00033         3.75278         1.34208 
        2.00647         3.73031         1.33219 
         2.0126         3.71895         1.32241 
        2.01874         3.68983         1.31272 
        2.02488         3.68308         1.30311 
        2.03101         3.65413         1.29362 
        2.03714         3.64379         1.28423 
        2.04328         3.62714         1.27493 
        2.04941         3.60257         1.26573 
        2.05554         3.59445         1.25662 
        2.06167         3.58375         1.24759 
        2.06781         3.56424         1.23865 
        2.07396           3.554         1.22979 
        2.08009         3.53561         1.22102 
        2.08622         3.51485         1.21236 
        2.09237         3.50474         1.20376 
        2.09851         3.48894         1.19524 
        2.10464         3.47626         1.18682 
        2.11077         3.45646         1.17849 
        2.11691         3.44356         1.17022 
        2.12305         3.43193         1.16203 
        2.12918         3.42285         1.15394 
        2.13531         3.40521         1.14593 
        2.14145         3.39018         1.13797 
         2.1476         3.36931         1.13008 
        2.15372         3.35708         1.12231 
        2.15985         3.34884          1.1146 
        2.16599         3.33086         1.10694 
        2.17213         3.31332         1.09936 
        2.17827         3.30549         1.09186 
         2.1844         3.28848         1.08443 
        2.19054         3.28008         1.07707 
        2.19666         3.26092         1.06978 
         2.2028         3.24662         1.06256 
        2.20893         3.23676         1.05541 
        2.21508         3.21868         1.04831 
        2.22122         3.20726         1.04127 
        2.22736         3.19507         1.03431 
        2.23349         3.18756         1.02742 
        2.23962         3.16971         1.02059 
        2.24577         3.15799         1.01381 
         2.2519         3.14783         1.00711 
        2.25802         3.13477         1.00047 
        2.26417         3.12389        0.993881 
        2.27031          3.1076        0.987342 
        2.27644         3.09698        0.980881 
        2.28257         3.08135        0.974479 
        2.28872         3.07576        0.968122 
        2.29486         3.05826        0.961823 
        2.30099         3.04611        0.955593 
        2.30712         3.03269        0.949415 
        2.31326         3.02193        0.943282 
         2.3194         3.01257        0.937207 
        2.32553         2.99892        0.931196 
        2.33166         2.99249         0.92524 
         2.3378         2.97884        0.919328 
        2.34394         2.96746        0.913467 
        2.35007         2.95378        0.907664 
        2.35619         2.94758         0.90192 
        2.36233          2.9365        0.896211 
        2.36848         2.91986        0.890541 
        2.37462         2.91452        0.884931 
        2.38075         2.90042        0.879376 
        2.38689         2.89302        0.873863 
        2.39303         2.88046        0.868399 
        2.39916         2.86948        0.862988 
        2.40529         2.85884        0.857623 
        2.41143         2.84806          0.8523 
        2.41757         2.83705         0.84702 
         2.4237         2.82963        0.841794 
        2.42983         2.80614        0.836614 
        2.43598         2.81029        0.831463 
        2.44211         2.79146        0.826364 
        2.44823         2.78747        0.821319 
        2.45437         2.77219        0.816303 
        2.46052         2.76749        0.811325 
        2.46665          2.7578        0.806397 
        2.47279         2.74563        0.801511 
        2.47892         2.73783        0.796663 
        2.48507         2.72744        0.791851 
         2.4912         2.71102        0.787088 
