# k  (h/Mpc)    P(k)  (Mpc/h)^3    P_linear(k)  (Mpc/h)^3
     0.00783031         6164.37          6247.4 
       0.013688         7860.28         7833.65 
       0.019231         8057.13         8052.48 
      0.0249154         7451.01         7553.88 
      0.0312784          6584.2         6625.18 
      0.0375637         5685.34         5679.81 
      0.0433917         4897.46         4946.57 
      0.0492413         4383.66         4395.85 
      0.0555754         3913.98         3983.09 
      0.0619321          3710.3         3693.78 
       0.067871          3416.7         3469.49 
      0.0738098         3187.55         3240.28 
      0.0800417         2898.02          2969.4 
      0.0862327         2632.93          2673.5 
      0.0921407          2377.4         2388.74 
      0.0982031         2103.56          2121.6 
       0.104506         1921.75         1892.67 
       0.110769         1751.18         1722.63 
       0.116806          1624.5         1607.67 
       0.122832         1551.37         1527.05 
       0.129052         1460.34          1461.5 
       0.135211         1396.89         1397.41 
       0.141259         1338.71         1324.59 
       0.147318         1261.87         1239.04 
       0.153489         1158.28          1143.3 
       0.159709         1078.51         1046.78 
       0.165845         1013.66         960.397 
       0.171974          938.58         888.831 
       0.178125         887.257         833.612 
       0.184229         849.117         793.298 
        0.19034         798.025         762.874 
       0.196428         785.664          736.97 
       0.202534         764.201         710.501 
       0.208729         727.895         679.975 
       0.214876         689.007         645.322 
       0.220989         664.179         608.011 
       0.227147         623.874         570.298 
        0.23329         593.935         535.387 
       0.239377         575.281          505.45 
       0.245482         536.499         480.821 
       0.251667         529.253         460.926 
       0.257832         511.517         444.754 
       0.263955         494.979         430.527 
       0.270079         478.258         416.508 
        0.27624         471.472         401.498 
       0.282372         452.339         385.326 
        0.28843         437.442          368.48 
       0.294538           417.1         351.387 
       0.300721         411.696         334.909 
        0.30691         391.936         319.951 
       0.313033         382.564         307.052 
       0.319153         368.123         295.961 
       0.325316         358.792         286.266 
        0.33145         347.771         277.509 
       0.337538         343.081         269.176 
       0.343633         331.924          260.77 
       0.349808         321.604         252.019 
       0.355968         316.597         243.074 
       0.362074         308.467          234.21 
       0.368217         300.022         225.573 
       0.374374         289.682         217.432 
       0.380519         284.883         209.998 
       0.386598          277.71         203.329 
       0.392688          274.35          197.26 
        0.39888         267.061         191.555 
       0.405048         261.232         186.146 
       0.411186         255.563         180.891 
       0.417313         250.485          175.68 
       0.423458         245.521         170.455 
       0.429607         239.822         165.287 
       0.435692         232.921         160.298 
       0.441815         231.228         155.475 
       0.447964         227.018         150.902 
       0.454126          217.76         146.614 
       0.460267         215.306         142.609 
       0.466387         212.537         138.853 
        0.47254          208.16         135.257 
       0.478662           206.5         131.798 
       0.484765         200.545         128.425 
       0.490885         197.599          125.11 
       0.497035         194.893         121.842 
       0.503198         189.885         118.642 
       0.509342         187.321         115.552 
       0.515458         184.761           112.6 
       0.521598         182.091         109.769 
       0.527764         179.327         107.055 
       0.533884         176.581         104.481 
           0.54          173.83         102.015 
       0.546137           172.6         99.6301 
       0.552299         169.567         97.3052 
       0.558452         166.619         95.0398 
       0.564573         163.754         92.8409 
       0.570708         161.298         90.6953 
       0.576825         159.239         88.6178 
       0.582926         156.625         86.6097 
       0.589034         154.332         84.6646 
       0.595184         152.684         82.7743 
       0.601379         151.089         80.9407 
       0.607522         147.615         79.1873 
       0.613639         147.214         77.4981 
       0.619772         143.958         75.8544 
       0.625918         142.565         74.2508 
       0.632068          140.96         72.6876 
       0.638161         139.694         71.1799 
         0.6443         137.773         69.7022 
       0.650464         136.238         68.2608 
       0.656582          134.59         66.8714 
       0.662703         132.445         65.5215 
       0.668861         130.846         64.2026 
       0.675024          129.41         62.9208 
       0.681124          128.33          61.689 
       0.687237         126.035         60.4893 
       0.693381          124.54          59.317 
       0.699536         123.403         58.1741 
       0.705665         123.792         57.0658 
       0.711789         120.553         55.9866 
       0.717957         120.093         54.9267 
        0.72409         118.389         53.8995 
       0.730186         116.433         52.9045 
       0.736317         116.119         51.9295 
       0.742472         115.056          50.976 
       0.748622         114.047         50.0484 
        0.75476         112.912         49.1468 
       0.760888         111.324         48.2695 
       0.767043         110.452         47.4106 
       0.773185         109.252         46.5748 
       0.779291         108.151         45.7639 
       0.785407         107.393          44.971 
       0.791564         106.202         44.1917 
       0.797719         104.738         43.4311 
       0.803834         104.298         42.6932 
       0.809972          102.71         41.9699 
       0.816124         102.325         41.2618 
       0.822261         101.382         40.5722 
       0.828378         100.466         39.9006 
       0.834502         99.7298         39.2438 
       0.840667         98.6575         38.5979 
       0.846816         97.6038         37.9684 
       0.852925         96.7666         37.3572 
       0.859047         95.5953         36.7582 
       0.865192         95.2446         36.1706 
       0.871341          94.446         35.5955 
       0.877463          93.203         35.0356 
       0.883569         92.5922         34.4892 
       0.889708         92.0602         33.9517 
       0.895864         91.2644         33.4243 
       0.902008         90.5124         32.9093 
       0.908149         89.9706         32.4056 
       0.914301         89.0132         31.9116 
       0.920448         88.4414         31.4284 
       0.926574         87.7405          30.957 
       0.932687         87.3463         30.4964 
       0.938823         85.9961         30.0435 
       0.944975         85.5883         29.5988 
       0.951105         84.8883         29.1648 
       0.957225         83.8589         28.7404 
       0.963368         83.6354         28.3229 
       0.969511          83.188         27.9138 
       0.975621         82.7027         27.5151 
       0.981748         81.8715         27.1232 
       0.987916         81.2532         26.7364 
        0.99406         80.7807         26.3588 
        1.00019         79.8966         25.9892 
        1.00632         79.5781         25.6271 
        1.01246         78.8375         25.2714 
        1.01859         77.8525          24.923 
        1.02471          78.151         24.5818 
        1.03085         77.2549         24.2457 
        1.03698         76.6764         23.9167 
        1.04314          75.928         23.5925 
        1.04929         75.5679          23.275 
        1.05541         74.9017         22.9647 
        1.06154         74.7177         22.6593 
        1.06769         74.1341         22.3591 
        1.07382         73.8197         22.0653 
        1.07993         73.4016         21.7774 
        1.08607         72.7161         21.4936 
        1.09222         72.3528         21.2145 
        1.09836         71.8425         20.9408 
        1.10449         71.3766         20.6722 
        1.11063         70.8013          20.408 
        1.11677         70.3809         20.1486 
         1.1229         69.9354         19.8942 
        1.12903         69.0683          19.644 
        1.13518         69.2952         19.3979 
        1.14131         68.8269         19.1561 
        1.14745         67.9711         18.9186 
        1.15359         67.8213         18.6852 
        1.15973         67.2623         18.4555 
        1.16584         66.8338         18.2308 
        1.17197         66.4554         18.0096 
        1.17811         66.1317         17.7913 
        1.18424         65.4955         17.5773 
        1.19038          65.248         17.3663 
        1.19652         64.9753         17.1588 
        1.20267         64.4467         16.9547 
        1.20881         64.0899         16.7539 
        1.21495         63.5843         16.5568 
        1.22108         63.2439         16.3629 
         1.2272         62.6992         16.1726 
        1.23334         62.4792         15.9848 
        1.23949         62.2973         15.7996 
        1.24562          61.885         15.6179 
        1.25174         61.5684         15.4393 
        1.25789         61.2322          15.263 
        1.26402         60.7452         15.0898 
        1.27014         60.2387         14.9197 
        1.27628         60.0954         14.7517 
        1.28244         59.5726          14.586 
        1.28858         59.3451          14.423 
        1.29471         59.1561          14.263 
        1.30084         58.7795         14.1055 
        1.30697         58.3282         13.9501 
        1.31312         57.9593         13.7969 
        1.31925         57.8516         13.6465 
        1.32537         57.5184         13.4985 
        1.33151         57.0227         13.3521 
        1.33765         56.8856          13.208 
        1.34378         56.5356         13.0663 
        1.34992         56.0514         12.9266 
        1.35606          55.784         12.7887 
         1.3622          55.431          12.653 
        1.36833         55.2546         12.5196 
        1.37445         55.0682         12.3883 
        1.38059         54.6712         12.2584 
        1.38675         54.3246           12.13 
        1.39288         54.0897         12.0041 
        1.39901         53.8032         11.8799 
        1.40515         53.5312         11.7573 
         1.4113         53.3448         11.6364 
        1.41742         52.9448         11.5177 
        1.42355         52.6868         11.4005 
         1.4297         52.3804         11.2845 
        1.43585         52.1891         11.1702 
        1.44198         51.9202         11.0579 
        1.44809         51.6467         10.9474 
        1.45423         51.4515          10.838 
        1.46036         51.1666         10.7303 
        1.46649         50.8486          10.624 
        1.47263           50.59         10.5191 
        1.47877         50.4513         10.4156 
        1.48491         50.2366         10.3134 
        1.49104         49.8545         10.2128 
        1.49718         49.4433         10.1134 
        1.50333         49.3527         10.0152 
        1.50947          49.096         9.91852 
         1.5156         48.8205         9.82326 
        1.52172          48.613         9.72925 
        1.52787         48.5472         9.63629 
          1.534         48.1819         9.54466 
        1.54013         47.9016         9.45431 
        1.54627         47.7689         9.36498 
        1.55241         47.4643         9.27679 
        1.55855         47.1814         9.18986 
        1.56467         46.8193         9.10429 
         1.5708         46.8233         9.01957 
        1.57695         46.5145         8.93581 
        1.58308         46.3789          8.8533 
        1.58922         46.2742         8.77178 
        1.59535         45.9685         8.69132 
         1.6015         45.6256         8.61176 
        1.60764         45.4975         8.53323 
        1.61376         45.2639          8.4559 
        1.61989         44.8933         8.37947 
        1.62604         44.8539         8.30382 
        1.63218         44.6534         8.22915 
        1.63831         44.4053         8.15557 
        1.64444         44.2264         8.08286 
        1.65059         43.8567         8.01087 
        1.65673          43.696         7.93983 
        1.66285         43.5399         7.86986 
        1.66898         43.2747         7.80071 
        1.67512         43.1074         7.73225 
        1.68127         42.8329         7.66456 
         1.6874         42.7615         7.59783 
        1.69353         42.4693         7.53194 
        1.69967         42.3029         7.46668 
        1.70581          42.219         7.40222 
        1.71193         41.9361         7.33876 
        1.71806         41.6654         7.27592 
        1.72421         41.4852         7.21368 
        1.73035           41.28         7.15225 
        1.73649         41.0718         7.09155 
        1.74262         40.9289          7.0316 
        1.74876         40.8939         6.97231 
        1.75489         40.5661         6.91382 
        1.76101         40.3912         6.85603 
        1.76715         40.2071         6.79881 
        1.77329         40.0061         6.74218 
        1.77943         39.8905         6.68617 
        1.78557         39.6856         6.63089 
        1.79171         39.4548         6.57621 
        1.79785         39.2742         6.52215 
        1.80399         39.1502         6.46871 
        1.81012          39.004         6.41594 
        1.81625         38.7119         6.36378 
        1.82239         38.6184         6.31212 
        1.82853         38.3143         6.26106 
        1.83466         38.2347         6.21062 
        1.84078         37.9423         6.16079 
        1.84692         37.8618         6.11143 
        1.85306         37.6761         6.06255 
         1.8592          37.514         6.01427 
        1.86533         37.3016         5.96656 
        1.87147         37.1898          5.9193 
        1.87761         37.0951         5.87254 
        1.88375         36.8766         5.82634 
        1.88988         36.7939         5.78068 
        1.89601         36.5387         5.73549 
        1.90215         36.4354         5.69075 
        1.90829         36.3406         5.64651 
        1.91442         36.0674         5.60273 
        1.92056         35.9958         5.55946 
         1.9267         35.7098          5.5166 
        1.93284         35.5301         5.47417 
        1.93897         35.4808         5.43226 
        1.94509         35.2687         5.39089 
        1.95123          35.135         5.34984 
        1.95737         34.9495         5.30919 
        1.96349         34.8048         5.26907 
        1.96964         34.6144         5.22925 
        1.97578         34.5538         5.18982 
        1.98192         34.3329         5.15088 
        1.98805         34.2314         5.11233 
        1.99419         34.0003         5.07418 
        2.00033         33.8449          5.0364 
        2.00647          33.744         4.99901 
         2.0126         33.5809         4.96207 
        2.01874         33.4837         4.92544 
        2.02488         33.4009         4.88915 
        2.03101         33.1472          4.8533 
        2.03714         33.0036         4.81784 
        2.04328         32.8474         4.78269 
        2.04941         32.7509         4.74792 
        2.05554         32.5746         4.71353 
        2.06167          32.455         4.67943 
        2.06781         32.3121         4.64566 
        2.07396         32.1611         4.61217 
        2.08009         32.0678         4.57908 
        2.08622         31.9076         4.54635 
        2.09237         31.7701         4.51387 
        2.09851         31.6056         4.48171 
        2.10464         31.5559         4.44991 
        2.11077         31.3064         4.41846 
        2.11691         31.2491         4.38725 
        2.12305         31.0908         4.35633 
        2.12918         31.0596         4.32579 
        2.13531         30.8798         4.29554 
        2.14145         30.7871         4.26551 
         2.1476         30.5612         4.23573 
        2.15372          30.438         4.20639 
        2.15985         30.3336         4.17729 
        2.16599         30.2453         4.14839 
        2.17213         30.1609         4.11979 
        2.17827         29.8784         4.09146 
         2.1844         29.7951         4.06343 
        2.19054         29.6634         4.03566 
        2.19666         29.5628         4.00818 
         2.2028         29.4711         3.98093 
        2.20893         29.3632         3.95392 
        2.21508         29.2169         3.92714 
        2.22122          29.034         3.90059 
        2.22736         28.9758         3.87434 
        2.23349         28.8456         3.84835 
        2.23962         28.7099         3.82257 
        2.24577         28.5532         3.79701 
         2.2519         28.4832         3.77172 
        2.25802         28.3536         3.74671 
        2.26417         28.2568         3.72184 
        2.27031         28.1661         3.69719 
        2.27644         28.0109         3.67282 
        2.28257         27.9074         3.64868 
        2.28872         27.7605         3.62471 
        2.29486         27.6873         3.60096 
        2.30099         27.5732         3.57747 
        2.30712         27.4958         3.55418 
        2.31326         27.3831         3.53106 
         2.3194         27.2375         3.50816 
        2.32553         27.1062          3.4855 
        2.33166         26.9759         3.46305 
         2.3378         26.8715         3.44076 
        2.34394         26.7689         3.41867 
        2.35007         26.6429          3.3968 
        2.35619         26.5653         3.37515 
        2.36233         26.4955         3.35364 
        2.36848         26.2902         3.33226 
        2.37462         26.2133         3.31113 
        2.38075         26.1167         3.29019 
        2.38689         26.0425         3.26942 
        2.39303         25.8897         3.24883 
        2.39916          25.779         3.22844 
        2.40529         25.6691         3.20823 
        2.41143         25.5926         3.18817 
        2.41757         25.4737         3.16828 
         2.4237         25.3664         3.14859 
        2.42983         25.2739         3.12908 
        2.43598         25.1802         3.10968 
        2.44211          25.065         3.09047 
        2.44823         24.9258         3.07147 
        2.45437         24.8658         3.05258 
        2.46052         24.7603         3.03383 
        2.46665         24.6889         3.01527 
        2.47279         24.5614         2.99687 
        2.47892         24.4508         2.97862 
        2.48507         24.3648          2.9605 
         2.4912         24.3005         2.94256 
