# k  (h/Mpc)    P(k)  (Mpc/h)^3    P_linear(k)  (Mpc/h)^3
     0.00783031         15631.7         15838.2 
       0.013688         20049.8         19851.2 
       0.019231         20432.3         20400.9 
      0.0249154         18704.5         19134.7 
      0.0312784         16552.2         16780.3 
      0.0375637         14342.5         14384.7 
      0.0433917         12255.4           12527 
      0.0492413         11016.9         11131.9 
      0.0555754         9727.36         10086.2 
      0.0619321         9328.47         9353.38 
       0.067871         8484.32         8785.27 
      0.0738098         7917.71         8204.74 
      0.0800417         7158.91         7518.71 
      0.0862327         6538.48         6769.41 
      0.0921407          5965.5          6048.3 
      0.0982031         5291.02         5371.86 
       0.104506         4902.69         4792.17 
       0.110769         4481.49         4361.62 
       0.116806         4186.29         4070.53 
       0.122832         3980.75         3866.39 
       0.129052         3713.86         3700.39 
       0.135211         3553.26          3538.1 
       0.141259         3426.43         3353.72 
       0.147318         3245.15         3137.11 
       0.153489         2978.27          2894.7 
       0.159709         2808.02         2650.32 
       0.165845         2685.38         2431.59 
       0.171974         2519.18         2250.39 
       0.178125         2387.18         2110.58 
       0.184229         2277.15         2008.51 
        0.19034         2160.69         1931.48 
       0.196428         2123.73         1865.89 
       0.202534            2049         1798.87 
       0.208729         1964.19         1721.59 
       0.214876         1888.05         1633.85 
       0.220989         1824.09         1539.38 
       0.227147         1745.08          1443.9 
        0.23329         1673.41         1355.51 
       0.239377         1645.55         1279.71 
       0.245482         1543.38         1217.35 
       0.251667         1535.11         1166.98 
       0.257832         1475.44         1126.04 
       0.263955         1428.74         1090.01 
       0.270079         1381.72         1054.52 
        0.27624         1367.47         1016.52 
       0.282372         1311.08         975.571 
        0.28843          1304.6         932.922 
       0.294538         1240.76         889.645 
       0.300721         1232.96         847.924 
        0.30691         1185.77         810.054 
       0.313033         1162.35         777.395 
       0.319153         1143.67         749.314 
       0.325316         1106.35         724.768 
        0.33145         1082.66         702.598 
       0.337538         1063.89           681.5 
       0.343633         1041.09         660.217 
       0.349808         1007.11         638.061 
       0.355968         1000.17         615.414 
       0.362074         990.685         592.971 
       0.368217         959.739         571.104 
       0.374374         924.873         550.492 
       0.380519         926.346         531.673 
       0.386598          900.71         514.788 
       0.392688         897.717         499.421 
        0.39888          871.79         484.979 
       0.405048          861.68         471.283 
       0.411186         849.579         457.979 
       0.417313         831.716         444.786 
       0.423458          817.99         431.557 
       0.429607         807.452         418.472 
       0.435692         791.229          405.84 
       0.441815         784.822         393.629 
       0.447964          768.64         382.052 
       0.454126         761.842         371.196 
       0.460267         743.524         361.056 
       0.466387         734.661         351.548 
        0.47254          730.19         342.443 
       0.478662         722.892         333.685 
       0.484765         702.369         325.145 
       0.490885         698.215         316.751 
       0.497035         683.598         308.478 
       0.503198         679.631         300.377 
       0.509342          672.45         292.553 
       0.515458         668.758         285.078 
       0.521598         652.433         277.913 
       0.527764         640.697         271.041 
       0.533884         639.159         264.522 
           0.54         632.575         258.281 
       0.546137         627.525         252.242 
       0.552299         618.889         246.356 
       0.558452         614.366          240.62 
       0.564573         606.462         235.053 
       0.570708         599.952         229.621 
       0.576825         583.854         224.361 
       0.582926         586.454         219.277 
       0.589034         580.795         214.353 
       0.595184         575.648         209.567 
       0.601379          567.53         204.924 
       0.607522         559.557         200.485 
       0.613639          559.87         196.208 
       0.619772         547.861         192.047 
       0.625918         544.795         187.987 
       0.632068         537.719         184.029 
       0.638161         535.764         180.212 
         0.6443         526.403         176.471 
       0.650464         524.493         172.822 
       0.656582          520.38         169.304 
       0.662703         518.394         165.886 
       0.668861         509.657         162.547 
       0.675024         505.708         159.302 
       0.681124         502.261         156.183 
       0.687237         498.203         153.146 
       0.693381         491.703         150.178 
       0.699536         484.135         147.284 
       0.705665         483.792         144.478 
       0.711789         481.033         141.746 
       0.717957         476.726         139.062 
        0.72409         474.062         136.462 
       0.730186         467.344         133.943 
       0.736317         464.411         131.474 
       0.742472         461.999          129.06 
       0.748622         457.009         126.712 
        0.75476          450.64         124.429 
       0.760888         446.543         122.208 
       0.767043         446.923         120.033 
       0.773185         442.293         117.917 
       0.779291         437.511         115.864 
       0.785407         434.744         113.857 
       0.791564         429.898         111.884 
       0.797719         427.852         109.958 
       0.803834         423.372          108.09 
       0.809972         422.243         106.258 
       0.816124          421.19         104.466 
       0.822261         415.177          102.72 
       0.828378         413.118         101.019 
       0.834502         408.554         99.3567 
       0.840667         405.574         97.7212 
       0.846816          403.88         96.1277 
       0.852925         400.896         94.5801 
       0.859047         399.143         93.0637 
       0.865192         394.258         91.5759 
       0.871341         391.095         90.1199 
       0.877463         390.694         88.7023 
       0.883569         387.109         87.3189 
       0.889708         384.453         85.9581 
       0.895864          382.65         84.6229 
       0.902008         379.308         83.3191 
       0.908149         375.339         82.0437 
       0.914301         372.956          80.793 
       0.920448         371.025         79.5698 
       0.926574         365.697         78.3763 
       0.932687         365.728         77.2101 
       0.938823         361.996         76.0635 
       0.944975             362         74.9377 
       0.951105         357.834         73.8389 
       0.957225         355.607         72.7642 
       0.963368         351.666         71.7073 
       0.969511         350.578         70.6716 
       0.975621         348.328         69.6621 
       0.981748         346.742         68.6698 
       0.987916          344.69         67.6907 
        0.99406         339.128         66.7345 
        1.00019         338.222         65.7988 
        1.00632          336.72         64.8821 
        1.01246          333.85         63.9815 
        1.01859         334.335         63.0996 
        1.02471         329.176         62.2355 
        1.03085         327.834         61.3848 
        1.03698          326.56         60.5518 
        1.04314          323.58         59.7308 
        1.04929         320.571         58.9271 
        1.05541         321.513         58.1415 
        1.06154         316.021         57.3683 
        1.06769          315.29         56.6081 
        1.07382         313.037         55.8643 
        1.07993         311.254         55.1356 
        1.08607         310.318         54.4169 
        1.09222         307.223         53.7104 
        1.09836         305.266         53.0173 
        1.10449         302.723         52.3373 
        1.11063          299.63         51.6686 
        1.11677         299.924         51.0118 
         1.1229         297.684         50.3677 
        1.12903         295.666         49.7341 
        1.13518         292.985          49.111 
        1.14131         291.554          48.499 
        1.14745          290.21         47.8977 
        1.15359         288.154         47.3066 
        1.15973         286.301         46.7253 
        1.16584         284.244         46.1564 
        1.17197         284.225         45.5962 
        1.17811         280.743         45.0436 
        1.18424         278.849         44.5019 
        1.19038         278.047         43.9675 
        1.19652         275.734         43.4421 
        1.20267         274.904         42.9254 
        1.20881         273.002         42.4172 
        1.21495         270.914         41.9181 
        1.22108         269.422         41.4272 
         1.2272         267.811         40.9453 
        1.23334         266.361           40.47 
        1.23949         264.297         40.0011 
        1.24562         263.427          39.541 
        1.25174          261.56         39.0889 
        1.25789         259.506         38.6425 
        1.26402         257.544         38.2039 
        1.27014         256.107         37.7732 
        1.27628         254.758         37.3479 
        1.28244         254.458         36.9284 
        1.28858         251.823         36.5159 
        1.29471         250.278         36.1106 
        1.30084         248.717         35.7119 
        1.30697         247.394         35.3186 
        1.31312         244.902         34.9307 
        1.31925         244.126         34.5498 
        1.32537         243.351          34.175 
        1.33151         241.046         33.8045 
        1.33765         239.289         33.4397 
        1.34378         238.622          33.081 
        1.34992         237.235         32.7273 
        1.35606         236.725         32.3781 
         1.3622         234.429         32.0346 
        1.36833         232.554         31.6969 
        1.37445         231.672         31.3643 
        1.38059         229.677         31.0354 
        1.38675         228.842         30.7105 
        1.39288         227.563         30.3916 
        1.39901          226.69         30.0773 
        1.40515         224.893         29.7668 
         1.4113         223.694         29.4608 
        1.41742         221.984         29.1603 
        1.42355         221.067         28.8635 
         1.4297          219.15         28.5699 
        1.43585          218.15         28.2805 
        1.44198         217.223         27.9962 
        1.44809         215.828         27.7164 
        1.45423         214.691         27.4394 
        1.46036         213.417         27.1667 
        1.46649         211.852         26.8976 
        1.47263         210.706         26.6319 
        1.47877         209.313           26.37 
        1.48491         207.618         26.1112 
        1.49104         207.017         25.8564 
        1.49718         205.295         25.6049 
        1.50333          204.58         25.3563 
        1.50947         203.317         25.1115 
         1.5156         201.583         24.8703 
        1.52172         200.954         24.6323 
        1.52787         199.199         24.3969 
          1.534          198.84         24.1649 
        1.54013         197.127         23.9362 
        1.54627         196.141           23.71 
        1.55241         194.879         23.4867 
        1.55855         193.563         23.2667 
        1.56467          192.52           23.05 
         1.5708         191.849         22.8355 
        1.57695         190.641         22.6234 
        1.58308         189.526         22.4146 
        1.58922          187.94         22.2082 
        1.59535         186.623         22.0045 
         1.6015         186.064          21.803 
        1.60764         184.896         21.6042 
        1.61376         183.899         21.4084 
        1.61989         182.964         21.2149 
        1.62604         181.715         21.0234 
        1.63218         180.819         20.8343 
        1.63831         179.479          20.648 
        1.64444         178.764          20.464 
        1.65059         177.629         20.2817 
        1.65673         176.418         20.1019 
        1.66285         175.357         19.9247 
        1.66898         174.376         19.7496 
        1.67512          174.01         19.5763 
        1.68127         172.108         19.4049 
         1.6874         171.396          19.236 
        1.69353         170.365         19.0692 
        1.69967         169.144         18.9039 
        1.70581         168.502         18.7407 
        1.71193         167.321         18.5801 
        1.71806          166.69          18.421 
        1.72421         165.483         18.2634 
        1.73035          164.87         18.1079 
        1.73649         163.908         17.9542 
        1.74262         162.836         17.8024 
        1.74876         161.796         17.6523 
        1.75489         160.997         17.5042 
        1.76101         159.663         17.3579 
        1.76715         159.354          17.213 
        1.77329         158.285         17.0697 
        1.77943         157.547         16.9279 
        1.78557         156.661         16.7879 
        1.79171         155.835         16.6495 
        1.79785         154.751         16.5126 
        1.80399          153.83         16.3773 
        1.81012         152.959         16.2437 
        1.81625         152.469         16.1116 
        1.82239         151.303         15.9809 
        1.82853         150.751         15.8516 
        1.83466         149.622         15.7239 
        1.84078         149.024         15.5977 
        1.84692         147.604         15.4728 
        1.85306         147.451          15.349 
         1.8592         146.399         15.2268 
        1.86533         145.646          15.106 
        1.87147         144.488         14.9863 
        1.87761         143.763         14.8679 
        1.88375           142.8          14.751 
        1.88988         141.914         14.6354 
        1.89601         141.567          14.521 
        1.90215         140.491         14.4077 
        1.90829         139.802         14.2957 
        1.91442         139.102         14.1848 
        1.92056         138.269         14.0753 
         1.9267         137.587         13.9668 
        1.93284         136.588         13.8593 
        1.93897         136.044         13.7533 
        1.94509          135.34         13.6485 
        1.95123         134.705         13.5446 
        1.95737         133.936         13.4417 
        1.96349         133.178         13.3401 
        1.96964         132.145         13.2393 
        1.97578         131.411         13.1394 
        1.98192         130.943         13.0409 
        1.98805         130.109         12.9433 
        1.99419         129.393         12.8467 
        2.00033         128.674          12.751 
        2.00647         128.083         12.6564 
         2.0126         126.983         12.5628 
        2.01874         126.489         12.4701 
        2.02488         126.125         12.3782 
        2.03101         124.857         12.2875 
        2.03714         124.529         12.1977 
        2.04328         123.609         12.1087 
        2.04941         123.153         12.0207 
        2.05554         122.259         11.9336 
        2.06167         121.904         11.8472 
        2.06781         121.077         11.7617 
        2.07396         120.414          11.677 
        2.08009         119.831         11.5932 
        2.08622         118.989         11.5103 
        2.09237         118.442         11.4281 
        2.09851         117.849         11.3467 
        2.10464         117.423         11.2662 
        2.11077         116.666         11.1865 
        2.11691         116.126         11.1075 
        2.12305          115.26         11.0292 
        2.12918         114.565         10.9519 
        2.13531         114.062         10.8753 
        2.14145         113.317         10.7993 
         2.1476         112.464         10.7239 
        2.15372         112.347         10.6496 
        2.15985          111.78         10.5759 
        2.16599         110.886         10.5028 
        2.17213         110.368         10.4304 
        2.17827         109.826         10.3587 
         2.1844          108.99         10.2877 
        2.19054         108.697         10.2174 
        2.19666         108.047         10.1478 
         2.2028         107.353         10.0788 
        2.20893         107.003         10.0104 
        2.21508         106.269         9.94261 
        2.22122         105.724          9.8754 
        2.22736           105.2         9.80895 
        2.23349          104.68         9.74313 
        2.23962         104.057         9.67788 
        2.24577         103.538         9.61317 
         2.2519         103.194         9.54914 
        2.25802         102.209          9.4858 
        2.26417         101.912         9.42286 
        2.27031         101.228         9.36043 
        2.27644         100.796         9.29875 
        2.28257         100.099         9.23763 
        2.28872          99.787         9.17694 
        2.29486         99.1082         9.11681 
        2.30099           98.62         9.05734 
        2.30712          98.109         8.99838 
        2.31326            97.5         8.93984 
         2.3194         97.0172         8.88186 
        2.32553         96.5761         8.82449 
        2.33166         96.0587         8.76765 
         2.3378         95.6381         8.71123 
        2.34394         95.1114         8.65529 
        2.35007         94.4818         8.59992 
        2.35619         94.1652         8.54511 
        2.36233         93.5839         8.49064 
        2.36848         93.0161         8.43653 
        2.37462         92.6871         8.38301 
        2.38075         92.0161         8.33001 
        2.38689         91.6095         8.27742 
        2.39303         90.9609         8.22529 
        2.39916         90.7482         8.17367 
        2.40529         90.4051          8.1225 
        2.41143         89.6945         8.07172 
        2.41757         89.2804         8.02136 
         2.4237         88.8356         7.97152 
        2.42983          88.246         7.92211 
        2.43598         87.7683         7.87299 
        2.44211         87.6532         7.82436 
        2.44823         87.0696         7.77626 
        2.45437         86.3474         7.72843 
        2.46052          85.906         7.68096 
        2.46665         85.6753         7.63397 
        2.47279         85.1263         7.58739 
        2.47892         84.7448         7.54117 
        2.48507         84.2934          7.4953 
         2.4912         83.9385         7.44989 
