# k  (h/Mpc)    P(k)  (Mpc/h)^3    P_linear(k)  (Mpc/h)^3
     0.00783031         60.8913         61.2905 
       0.013688         80.5681         81.0252 
       0.019231         87.4299         87.5651 
      0.0249154         86.6037         86.6773 
      0.0312784         80.9063         80.9145 
      0.0375637         73.6597         73.6353 
      0.0433917         67.3943         67.2706 
      0.0492413         62.0239         61.9576 
      0.0555754         57.5607         57.4397 
      0.0619321         53.7264         53.7735 
       0.067871         50.6667         50.6418 
      0.0738098         47.4663         47.4372 
      0.0800417         43.9072         43.8506 
      0.0862327         40.1837         40.1521 
      0.0921407         36.7413         36.7186 
      0.0982031         33.5919         33.5329 
       0.104506         30.7575         30.7552 
       0.110769         28.5782         28.5736 
       0.116806         26.9785         26.9341 
       0.122832         25.5936         25.5981 
       0.129052         24.3749          24.357 
       0.135211         23.1522          23.122 
       0.141259         21.8355         21.8338 
       0.147318         20.4489         20.4749 
       0.153489         19.0858         19.0838 
       0.159709         17.7767         17.7625 
       0.165845         16.5799         16.6101 
       0.171974         15.6661          15.644 
       0.178125         14.8697         14.8527 
       0.184229         14.1971         14.2042 
        0.19034         13.6574         13.6351 
       0.196428         13.1018         13.0937 
       0.202534          12.511         12.5383 
       0.208729         11.9469         11.9475 
       0.214876         11.3676         11.3438 
       0.220989         10.7304         10.7505 
       0.227147          10.215         10.1882 
        0.23329         9.71337         9.68393 
       0.239377         9.27921         9.24911 
       0.245482         8.90029         8.87366 
       0.251667         8.54933         8.54074 
       0.257832         8.26229         8.23724 
       0.263955         7.95911         7.94652 
       0.270079         7.66572         7.65447 
        0.27624         7.35194         7.35582 
       0.282372         7.05776         7.05715 
        0.28843         6.78997         6.76813 
       0.294538         6.50954         6.49164 
       0.300721         6.23896          6.2335 
        0.30691         6.02204         5.99999 
       0.313033         5.80897          5.7917 
       0.319153         5.64174         5.60177 
       0.325316         5.42879          5.4226 
        0.33145         5.25953         5.25093 
       0.337538         5.09726         5.08302 
       0.343633         4.93585         4.91634 
       0.349808         4.76488         4.74948 
       0.355968         4.59974         4.58744 
       0.362074         4.45303         4.43375 
       0.368217         4.30692         4.28805 
       0.374374         4.18493         4.15201 
       0.380519         4.04379         4.02556 
       0.386598         3.92305         3.90843 
       0.392688         3.80863         3.79705 
        0.39888         3.70485         3.68799 
       0.405048         3.60031         3.58238 
       0.411186         3.49489         3.47944 
       0.417313         3.39813         3.37902 
       0.423458         3.29272         3.28124 
       0.429607         3.20721         3.18696 
       0.435692         3.11996         3.09781 
       0.441815         3.03024         3.01259 
       0.447964         2.94162         2.93128 
       0.454126         2.87306         2.85373 
       0.460267         2.80605          2.7798 
       0.466387         2.73096         2.70877 
        0.47254         2.66386         2.63948 
       0.478662         2.59472         2.57247 
       0.484765         2.53116         2.50751 
       0.490885         2.46497         2.44422 
       0.497035         2.39739         2.38268 
       0.503198         2.34302         2.32329 
       0.509342         2.28157          2.2664 
       0.515458          2.2327         2.21197 
       0.521598         2.17975          2.1594 
       0.527764         2.13417         2.10855 
       0.533884         2.07662         2.05978 
           0.54         2.03139         2.01254 
       0.546137         1.98131         1.96646 
       0.552299         1.93956          1.9215 
       0.558452         1.89721         1.87794 
       0.564573         1.85585         1.83591 
       0.570708         1.81434         1.79508 
       0.576825         1.77513         1.75567 
       0.582926         1.73423         1.71763 
       0.589034         1.70322          1.6808 
       0.595184         1.66834         1.64488 
       0.601379         1.62959         1.60982 
       0.607522         1.59488         1.57605 
       0.613639         1.55833         1.54335 
       0.619772         1.53179         1.51147 
       0.625918         1.49999         1.48041 
       0.632068         1.47012         1.45021 
       0.638161         1.44031         1.42112 
         0.6443         1.41129         1.39265 
       0.650464         1.38401         1.36486 
       0.656582         1.35942         1.33806 
       0.662703          1.3323         1.31199 
       0.668861         1.30245         1.28649 
       0.675024         1.28009         1.26167 
       0.681124         1.26278         1.23776 
       0.687237         1.23477         1.21442 
       0.693381         1.20844         1.19158 
       0.699536         1.19143         1.16927 
       0.705665         1.16882         1.14763 
       0.711789         1.14426         1.12656 
       0.717957          1.1251         1.10589 
        0.72409         1.10418         1.08585 
       0.730186         1.08758         1.06644 
       0.736317         1.06631         1.04742 
       0.742472          1.0491          1.0288 
       0.748622          1.0313         1.01065 
        0.75476         1.01213        0.992986 
       0.760888        0.997633        0.975774 
       0.767043        0.973642        0.958903 
       0.773185        0.960234        0.942466 
       0.779291         0.94732         0.92651 
       0.785407         0.92981        0.910902 
       0.791564        0.914543        0.895558 
       0.797719        0.899194        0.880579 
       0.803834        0.883977        0.866042 
       0.809972        0.870251        0.851785 
       0.816124        0.855742        0.837823 
       0.822261        0.843376        0.824215 
       0.828378        0.828376        0.810954 
       0.834502        0.815773        0.797976 
       0.840667        0.804111        0.785202 
       0.846816        0.791546        0.772746 
       0.852925        0.777337        0.760642 
       0.859047        0.766109        0.748773 
       0.865192        0.754791        0.737121 
       0.871341        0.744404        0.725711 
       0.877463        0.731008        0.714596 
       0.883569        0.720779        0.703745 
       0.889708         0.71094        0.693065 
       0.895864        0.700482        0.682582 
       0.902008         0.68902        0.672339 
       0.908149        0.680193        0.662315 
       0.914301        0.671481         0.65248 
       0.920448        0.661258        0.642856 
       0.926574         0.65286        0.633462 
       0.932687        0.643235        0.624277 
       0.938823        0.632236        0.615243 
       0.944975        0.624636        0.606368 
       0.951105        0.614323        0.597702 
       0.957225         0.60541        0.589221 
       0.963368        0.598387        0.580877 
       0.969511        0.591187        0.572696 
       0.975621        0.581636        0.564717 
       0.981748        0.572456        0.556872 
       0.987916         0.56522        0.549127 
        0.99406        0.558647        0.541559 
        1.00019        0.550655         0.53415 
        1.00632        0.545051        0.526888 
        1.01246        0.537454        0.519751 
        1.01859        0.529788        0.512758 
        1.02471        0.522129        0.505904 
        1.03085        0.514878        0.499152 
        1.03698        0.509202        0.492538 
        1.04314        0.502798        0.486017 
        1.04929        0.497272        0.479631 
        1.05541        0.489013        0.473385 
        1.06154        0.483832        0.467236 
        1.06769        0.478137        0.461188 
        1.07382        0.472029        0.455268 
        1.07993        0.466611        0.449465 
        1.08607        0.459959        0.443741 
        1.09222         0.45424        0.438111 
        1.09836        0.448727        0.432587 
        1.10449         0.44299        0.427164 
        1.11063        0.437682         0.42183 
        1.11677        0.433227        0.416588 
         1.1229        0.426601        0.411446 
        1.12903        0.422374        0.406387 
        1.13518         0.41701        0.401409 
        1.14131         0.41253        0.396518 
        1.14745         0.40881        0.391711 
        1.15359        0.403007        0.386984 
        1.15973        0.398988        0.382334 
        1.16584        0.393628        0.377781 
        1.17197        0.388829        0.373297 
        1.17811        0.384199        0.368871 
        1.18424        0.379871        0.364531 
        1.19038        0.374991        0.360249 
        1.19652         0.37226        0.356037 
        1.20267        0.367765        0.351894 
        1.20881        0.362189        0.347817 
        1.21495        0.358819        0.343812 
        1.22108        0.355208        0.339871 
         1.2272        0.350664        0.336001 
        1.23334        0.346942        0.332183 
        1.23949        0.343899        0.328415 
        1.24562        0.339888        0.324717 
        1.25174        0.336051        0.321082 
        1.25789         0.33152        0.317491 
        1.26402        0.329039        0.313962 
        1.27014        0.324546        0.310496 
        1.27628         0.32193        0.307071 
        1.28244        0.318574        0.303692 
        1.28858        0.314532        0.300369 
        1.29471        0.311428        0.297103 
        1.30084        0.308027        0.293889 
        1.30697        0.305466        0.290717 
        1.31312         0.30225        0.287589 
        1.31925        0.298951        0.284516 
        1.32537        0.295835        0.281492 
        1.33151        0.292873        0.278501 
        1.33765        0.289551        0.275555 
        1.34378         0.28632        0.272658 
        1.34992        0.284434        0.269801 
        1.35606        0.281111        0.266979 
         1.3622        0.278325        0.264203 
        1.36833        0.275986        0.261472 
        1.37445        0.273397        0.258783 
        1.38059        0.270257        0.256122 
        1.38675        0.267265        0.253494 
        1.39288        0.264252        0.250912 
        1.39901        0.262675        0.248368 
        1.40515        0.259697        0.245854 
         1.4113        0.257656        0.243376 
        1.41742        0.255164        0.240941 
        1.42355        0.251855        0.238535 
         1.4297        0.250425        0.236155 
        1.43585        0.247386        0.233809 
        1.44198        0.245464        0.231504 
        1.44809        0.242741        0.229234 
        1.45423        0.240694        0.226986 
        1.46036        0.238356        0.224773 
        1.46649        0.236094        0.222588 
        1.47263        0.233298        0.220431 
        1.47877        0.232453        0.218304 
        1.48491        0.229219        0.216201 
        1.49104        0.228139        0.214131 
        1.49718        0.225648        0.212086 
        1.50333        0.223669        0.210065 
        1.50947        0.221832        0.208074 
         1.5156        0.219484        0.206112 
        1.52172        0.217833        0.204176 
        1.52787         0.21522         0.20226 
          1.534        0.213916        0.200372 
        1.54013        0.211756         0.19851 
        1.54627         0.21014        0.196668 
        1.55241        0.208063         0.19485 
        1.55855        0.206362        0.193057 
        1.56467        0.204685        0.191291 
         1.5708        0.202686        0.189543 
        1.57695        0.201005        0.187814 
        1.58308        0.198639        0.186111 
        1.58922         0.19754        0.184428 
        1.59535        0.195566        0.182766 
         1.6015         0.19416        0.181123 
        1.60764        0.192201          0.1795 
        1.61376         0.19076        0.177903 
        1.61989        0.188994        0.176323 
        1.62604        0.187671        0.174759 
        1.63218        0.186064        0.173215 
        1.63831        0.184435        0.171693 
        1.64444        0.182865        0.170189 
        1.65059        0.181057          0.1687 
        1.65673          0.1798         0.16723 
        1.66285        0.178521        0.165782 
        1.66898        0.176551         0.16435 
        1.67512        0.175321        0.162933 
        1.68127        0.173949        0.161531 
         1.6874        0.172696        0.160149 
        1.69353        0.171277        0.158784 
        1.69967        0.169499        0.157432 
        1.70581        0.168695        0.156096 
        1.71193        0.167327         0.15478 
        1.71806        0.165767        0.153477 
        1.72421        0.164359        0.152187 
        1.73035        0.163191        0.150912 
        1.73649        0.161894        0.149653 
        1.74262        0.160577        0.148409 
        1.74876        0.159553        0.147179 
        1.75489         0.15804        0.145965 
        1.76101        0.156928        0.144765 
        1.76715        0.155869        0.143577 
        1.77329        0.154396        0.142401 
        1.77943        0.153188        0.141237 
        1.78557        0.152378        0.140089 
        1.79171        0.151156        0.138953 
        1.79785        0.149734        0.137829 
        1.80399        0.148493        0.136718 
        1.81012        0.147624        0.135621 
        1.81625         0.14655        0.134537 
        1.82239        0.145663        0.133462 
        1.82853        0.144266          0.1324 
        1.83466        0.143256        0.131351 
        1.84078        0.142163        0.130314 
        1.84692        0.141149        0.129287 
        1.85306        0.140207        0.128269 
         1.8592        0.139203        0.127264 
        1.86533        0.138235        0.126271 
        1.87147        0.137149        0.125287 
        1.87761         0.13593        0.124313 
        1.88375        0.134822         0.12335 
        1.88988        0.134132        0.122399 
        1.89601        0.132981        0.121458 
        1.90215        0.132007        0.120525 
        1.90829        0.130898        0.119603 
        1.91442        0.130232         0.11869 
        1.92056         0.12937        0.117788 
         1.9267        0.128328        0.116895 
        1.93284        0.127262         0.11601 
        1.93897        0.126485        0.115135 
        1.94509        0.125532        0.114272 
        1.95123        0.124753        0.113416 
        1.95737        0.123939        0.112567 
        1.96349        0.123157         0.11173 
        1.96964        0.122144        0.110899 
        1.97578         0.12141        0.110075 
        1.98192        0.120573        0.109262 
        1.98805        0.119808        0.108457 
        1.99419         0.11904         0.10766 
        2.00033        0.118002        0.106871 
        2.00647        0.117241         0.10609 
         2.0126         0.11676        0.105318 
        2.01874        0.115759        0.104552 
        2.02488        0.114972        0.103793 
        2.03101        0.114186        0.103044 
        2.03714        0.113804        0.102302 
        2.04328        0.112545        0.101567 
        2.04941        0.112008         0.10084 
        2.05554        0.111367        0.100121 
        2.06167        0.110516       0.0994072 
        2.06781        0.109596       0.0987006 
        2.07396        0.108933       0.0979999 
        2.08009          0.1084       0.0973072 
        2.08622        0.107733       0.0966221 
        2.09237        0.106891       0.0959421 
        2.09851        0.106217       0.0952687 
        2.10464        0.105564       0.0946028 
        2.11077        0.104807       0.0939441 
        2.11691        0.104365       0.0932902 
        2.12305        0.103319       0.0926425 
        2.12918        0.102752       0.0920026 
        2.13531        0.102176       0.0913686 
        2.14145        0.101508       0.0907392 
         2.1476        0.100988        0.090115 
        2.15372        0.100266       0.0894998 
        2.15985       0.0996313       0.0888898 
        2.16599         0.09886       0.0882837 
        2.17213       0.0984871       0.0876839 
        2.17827       0.0978039       0.0870898 
         2.1844       0.0971793       0.0865018 
        2.19054       0.0966639       0.0859191 
        2.19666       0.0959925       0.0853425 
         2.2028       0.0951998       0.0847707 
        2.20893       0.0948424       0.0842039 
        2.21508       0.0941902       0.0836417 
        2.22122       0.0935612       0.0830844 
        2.22736       0.0930861       0.0825334 
        2.23349       0.0924836       0.0819875 
        2.23962       0.0920483       0.0814462 
        2.24577        0.091457       0.0809094 
         2.2519       0.0908506       0.0803782 
        2.25802       0.0903883       0.0798526 
        2.26417       0.0899183       0.0793302 
        2.27031       0.0892466        0.078812 
        2.27644       0.0888846          0.0783 
        2.28257       0.0882848       0.0777926 
        2.28872       0.0876615       0.0772887 
        2.29486       0.0872817       0.0767894 
        2.30099       0.0866554       0.0762955 
        2.30712       0.0862982       0.0758058 
        2.31326       0.0855555       0.0753195 
         2.3194       0.0852253       0.0748378 
        2.32553        0.084769       0.0743611 
        2.33166       0.0841787       0.0738888 
         2.3378       0.0836911       0.0734199 
        2.34394       0.0832638        0.072955 
        2.35007       0.0828462       0.0724948 
        2.35619       0.0825901       0.0720391 
        2.36233       0.0818147       0.0715863 
        2.36848       0.0814589       0.0711364 
        2.37462       0.0810858       0.0706913 
        2.38075       0.0805712       0.0702505 
        2.38689       0.0801469       0.0698131 
        2.39303       0.0797858       0.0693795 
        2.39916       0.0790945         0.06895 
        2.40529       0.0786877       0.0685242 
        2.41143       0.0781971       0.0681017 
        2.41757       0.0778664       0.0676825 
         2.4237       0.0774533       0.0672677 
        2.42983       0.0770285       0.0668564 
        2.43598       0.0765401       0.0664474 
        2.44211       0.0760595       0.0660426 
        2.44823       0.0758082        0.065642 
        2.45437       0.0753433       0.0652437 
        2.46052       0.0749439       0.0648483 
        2.46665       0.0745115       0.0644569 
        2.47279       0.0741982       0.0640689 
        2.47892       0.0738952       0.0636838 
        2.48507       0.0733612       0.0633016 
         2.4912       0.0730251       0.0629232 
