# k  (h/Mpc)    Pcb(k)  (Mpc/h)^3    Pcb_linear(k)  (Mpc/h)^3
     0.00783031         14702.2         14773.2 
       0.013688         17987.4           18467 
       0.019231         18572.1         18868.4 
      0.0249154         17600.4         17587.7 
      0.0312784         15159.5         15343.3 
      0.0375637         12869.8         13130.1 
      0.0433917         11360.6         11456.1 
      0.0492413           10055         10223.7 
      0.0555754         9218.09         9307.03 
      0.0619321          8295.7         8647.78 
       0.067871         7887.05         8105.98 
      0.0738098         7388.24            7529 
      0.0800417          6736.4         6846.69 
      0.0862327         6006.82         6121.52 
      0.0921407         5398.88         5449.76 
      0.0982031          4891.7         4845.26 
       0.104506         4347.31          4348.9 
       0.110769         4027.15         3993.66 
       0.116806         3855.16         3756.49 
       0.122832         3636.43         3582.53 
       0.129052         3455.48         3424.04 
       0.135211         3354.34         3253.15 
       0.141259         3108.21         3056.22 
       0.147318         2872.75         2833.92 
       0.153489         2690.81         2599.73 
       0.159709         2563.98         2378.58 
       0.165845         2335.44         2192.62 
       0.171974         2268.29          2046.5 
       0.178125         2189.68          1937.2 
       0.184229         2024.86         1855.92 
        0.19034         1998.01         1788.47 
       0.196428            1942         1722.69 
       0.202534         1825.01         1649.73 
       0.208729         1788.45         1565.85 
       0.214876         1706.24         1475.69 
       0.220989         1615.32         1385.36 
       0.227147         1568.86         1300.41 
        0.23329         1505.31          1226.6 
       0.239377         1493.88         1166.16 
       0.245482         1422.22         1117.14 
       0.251667          1370.9         1076.05 
       0.257832         1350.26          1039.5 
       0.263955         1288.73         1003.83 
       0.270079         1253.66         966.335 
        0.27624         1201.92         926.207 
       0.282372         1185.93         884.766 
        0.28843         1166.42         844.168 
       0.294538          1111.7         805.535 
       0.300721         1089.24         770.224 
        0.30691         1063.87         739.302 
       0.313033         1022.09         712.695 
       0.319153         1010.75          689.14 
       0.325316         997.626         667.177 
        0.33145         975.769          645.97 
       0.337538         943.169         624.796 
       0.343633         921.067         603.279 
       0.349808         902.999         581.369 
       0.355968         885.789         559.912 
       0.362074         857.424         539.631 
       0.368217         855.023         520.609 
       0.374374         842.071         503.164 
       0.380519         811.559         487.247 
       0.386598         806.523         472.714 
       0.392688         786.821         459.004 
        0.39888         769.418         445.549 
       0.405048           754.7         432.415 
       0.411186          753.12         419.496 
       0.417313         748.278         406.772 
       0.423458         725.529         394.342 
       0.429607         705.806          382.37 
       0.435692         699.309         371.102 
       0.441815         686.065         360.423 
       0.447964         676.962         350.334 
       0.454126         668.597         340.774 
       0.460267         659.297         331.701 
       0.466387         648.028         322.999 
        0.47254         638.009         314.487 
       0.478662         628.368         306.222 
       0.484765         621.588         298.189 
       0.490885         615.196         290.355 
       0.497035         603.161         282.735 
       0.503198         602.693         275.397 
       0.509342         591.029         268.398 
       0.515458         579.505         261.734 
       0.521598         576.653         255.319 
       0.527764         564.129         249.128 
       0.533884          559.31           243.2 
           0.54         554.417         237.461 
       0.546137         545.554          231.86 
       0.552299         543.237         226.386 
       0.558452         535.744          221.08 
       0.564573         531.726         215.966 
       0.570708         525.942         211.006 
       0.576825          515.57         206.227 
       0.582926         514.139         201.621 
       0.589034         506.259         197.168 
       0.595184         501.898         192.836 
       0.601379         494.273         188.613 
       0.607522         486.013         184.549 
       0.613639         485.317         180.616 
       0.619772         482.755         176.779 
       0.625918         473.868         173.041 
       0.632068         471.527         169.409 
       0.638161         466.601         165.914 
         0.6443         460.938         162.498 
       0.650464           456.9         159.168 
       0.656582         453.251         155.959 
       0.662703         449.066         152.841 
       0.668861         442.819         149.793 
       0.675024         440.699         146.827 
       0.681124         433.018         143.973 
       0.687237         432.357         141.189 
       0.693381         425.857         138.466 
       0.699536         425.312          135.81 
       0.705665         419.611         133.234 
       0.711789         418.304         130.728 
       0.717957         412.658         128.269 
        0.72409          408.54         125.888 
       0.730186         409.567         123.584 
       0.736317         402.694         121.326 
       0.742472          399.07         119.118 
       0.748622         396.875         116.968 
        0.75476         393.337         114.876 
       0.760888         390.539          112.84 
       0.767043         387.518         110.845 
       0.773185          384.74         108.902 
       0.779291         380.402         107.018 
       0.785407         378.032         105.176 
       0.791564         375.621         103.365 
       0.797719         369.769         101.599 
       0.803834         371.693         99.8858 
       0.809972          365.67         98.2063 
       0.816124         362.573         96.5624 
       0.822261          360.12         94.9611 
       0.828378          358.54         93.4014 
       0.834502         352.954         91.8758 
       0.840667         353.113         90.3749 
       0.846816          347.71         88.9122 
       0.852925          348.34         87.4913 
       0.859047         344.945         86.0989 
       0.865192         343.185         84.7324 
       0.871341          338.78          83.395 
       0.877463         337.274         82.0928 
       0.883569         334.613         80.8219 
       0.889708         331.529         79.5717 
       0.895864         328.142          78.345 
       0.902008         327.026          77.147 
       0.908149         324.038         75.9749 
       0.914301         322.671         74.8256 
       0.920448         319.915         73.7012 
       0.926574         317.893         72.6042 
       0.932687         316.935          71.532 
       0.938823         313.206         70.4778 
       0.944975         312.548         69.4427 
       0.951105         309.608         68.4323 
       0.957225         306.015         67.4439 
       0.963368         306.632         66.4719 
       0.969511         301.204         65.5192 
       0.975621         299.994         64.5904 
       0.981748         299.044         63.6775 
       0.987916         297.205         62.7767 
        0.99406         294.412         61.8968 
        1.00019         291.845         61.0357 
        1.00632         291.487          60.192 
        1.01246         288.966         59.3631 
        1.01859         285.929         58.5513 
        1.02471         284.262         57.7558 
        1.03085         283.237         56.9725 
        1.03698         281.816         56.2055 
        1.04314         280.483         55.4495 
        1.04929         278.727         54.7093 
        1.05541         275.998         53.9857 
        1.06154         274.228         53.2735 
        1.06769          271.96         52.5732 
        1.07382         270.525          51.888 
        1.07993         268.841         51.2165 
        1.08607         267.407         50.5543 
        1.09222         265.162         49.9033 
        1.09836          264.36         49.2645 
        1.10449         262.464         48.6377 
        1.11063         260.612         48.0213 
        1.11677          258.18         47.4158 
         1.1229         257.847         46.8219 
        1.12903         255.395         46.2377 
        1.13518         253.758          45.663 
        1.14131         252.928         45.0985 
        1.14745         250.209          44.544 
        1.15359         248.497         43.9987 
        1.15973         247.542         43.4624 
        1.16584         246.031         42.9376 
        1.17197         244.711         42.4207 
        1.17811         242.478         41.9108 
        1.18424         241.235         41.4108 
        1.19038         240.245         40.9176 
        1.19652         237.478         40.4327 
        1.20267          236.97         39.9557 
        1.20881         235.208         39.4866 
        1.21495         234.633         39.0258 
        1.22108         232.778         38.5725 
         1.2272         230.334         38.1275 
        1.23334         229.629         37.6885 
        1.23949         228.393         37.2555 
        1.24562         226.928         36.8306 
        1.25174         225.742         36.4129 
        1.25789         223.631         36.0005 
        1.26402         223.381         35.5953 
        1.27014         222.303         35.1974 
        1.27628          220.34         34.8044 
        1.28244         218.763         34.4167 
        1.28858         217.743         34.0354 
        1.29471         216.431         33.6608 
        1.30084         215.626         33.2922 
        1.30697         213.474         32.9287 
        1.31312         212.408         32.5701 
        1.31925         211.097         32.2179 
        1.32537         210.448         31.8714 
        1.33151         208.884         31.5288 
        1.33765         207.389         31.1914 
        1.34378         206.602         30.8597 
        1.34992         204.802         30.5326 
        1.35606         204.048         30.2095 
         1.3622         202.498         29.8918 
        1.36833          201.51         29.5794 
        1.37445         201.136         29.2716 
        1.38059         198.808         28.9673 
        1.38675         197.624         28.6666 
        1.39288         196.718         28.3714 
        1.39901         195.141         28.0805 
        1.40515           194.6         27.7931 
         1.4113         193.196         27.5098 
        1.41742         191.719         27.2316 
        1.42355         191.526         26.9567 
         1.4297         190.049         26.6849 
        1.43585         189.242         26.4169 
        1.44198         187.459         26.1536 
        1.44809         186.906         25.8944 
        1.45423         185.781         25.6378 
        1.46036         184.619         25.3852 
        1.46649         183.466         25.1359 
        1.47263         182.842         24.8898 
        1.47877         181.477         24.6471 
        1.48491         180.106         24.4073 
        1.49104         178.568         24.1712 
        1.49718          178.28         23.9381 
        1.50333         176.609         23.7077 
        1.50947         176.012         23.4808 
         1.5156         174.957         23.2572 
        1.52172         174.084         23.0366 
        1.52787         173.099         22.8184 
          1.534         172.339         22.6033 
        1.54013         171.017         22.3912 
        1.54627         170.266         22.1815 
        1.55241         169.426         21.9744 
        1.55855         168.528         21.7703 
        1.56467         167.503         21.5694 
         1.5708          166.09         21.3705 
        1.57695         165.548         21.1737 
        1.58308         164.309         20.9799 
        1.58922         163.463         20.7884 
        1.59535         162.311         20.5994 
         1.6015         161.699         20.4125 
        1.60764         160.525          20.228 
        1.61376         159.473         20.0463 
        1.61989         158.833         19.8666 
        1.62604         157.754         19.6888 
        1.63218         157.016         19.5133 
        1.63831         156.215         19.3404 
        1.64444         154.968         19.1695 
        1.65059         154.312         19.0002 
        1.65673         153.369         18.8332 
        1.66285         152.763         18.6687 
        1.66898          151.73         18.5061 
        1.67512         150.733         18.3452 
        1.68127         150.147          18.186 
         1.6874         149.124         18.0291 
        1.69353         148.623         17.8741 
        1.69967         147.423         17.7206 
        1.70581         147.022         17.5689 
        1.71193          145.94         17.4197 
        1.71806         144.678         17.2718 
        1.72421         144.192         17.1254 
        1.73035         143.358         16.9809 
        1.73649         142.369          16.838 
        1.74262         141.902          16.697 
        1.74876         141.098         16.5574 
        1.75489         140.604         16.4198 
        1.76101         139.254         16.2837 
        1.76715         138.512         16.1491 
        1.77329         137.639         16.0158 
        1.77943          136.83         15.8839 
        1.78557         136.254         15.7537 
        1.79171         135.497          15.625 
        1.79785         134.529         15.4977 
        1.80399         133.966         15.3719 
        1.81012          133.22         15.2476 
        1.81625         132.403         15.1248 
        1.82239         131.843         15.0031 
        1.82853         130.871         14.8828 
        1.83466          129.87          14.764 
        1.84078         129.621         14.6466 
        1.84692         129.073         14.5303 
        1.85306         128.083         14.4151 
         1.8592         127.589         14.3014 
        1.86533         126.553         14.1889 
        1.87147         125.982         14.0775 
        1.87761         125.196         13.9673 
        1.88375         124.336         13.8584 
        1.88988         123.852         13.7508 
        1.89601         123.425         13.6443 
        1.90215         122.898         13.5388 
        1.90829         121.633         13.4345 
        1.91442         120.902         13.3313 
        1.92056         120.428         13.2292 
         1.9267         119.762         13.1282 
        1.93284         118.934         13.0281 
        1.93897         118.478         12.9293 
        1.94509         117.765         12.8317 
        1.95123         117.216         12.7349 
        1.95737         116.579          12.639 
        1.96349         115.849         12.5443 
        1.96964         115.129         12.4504 
        1.97578         114.565         12.3574 
        1.98192         114.212         12.2655 
        1.98805         113.542         12.1745 
        1.99419         112.547         12.0845 
        2.00033         112.169         11.9953 
        2.00647         111.687         11.9071 
         2.0126         110.916         11.8199 
        2.01874         110.427         11.7335 
        2.02488         109.661         11.6478 
        2.03101         109.252         11.5632 
        2.03714         108.509         11.4795 
        2.04328          108.19         11.3965 
        2.04941         107.579         11.3144 
        2.05554         107.027         11.2332 
        2.06167         106.157         11.1527 
        2.06781          105.71         11.0729 
        2.07396         105.112         10.9939 
        2.08009         104.368         10.9157 
        2.08622         103.981         10.8384 
        2.09237         103.209         10.7617 
        2.09851         102.871         10.6857 
        2.10464         102.449         10.6106 
        2.11077         101.699         10.5363 
        2.11691         101.273         10.4625 
        2.12305         100.721         10.3895 
        2.12918          100.13         10.3173 
        2.13531         99.5456         10.2458 
        2.14145         99.1294         10.1749 
         2.1476         98.5671         10.1045 
        2.15372         97.9282         10.0351 
        2.15985         97.4948         9.96635 
        2.16599         96.8378         9.89802 
        2.17213         96.3307         9.83041 
        2.17827         95.7849         9.76345 
         2.1844         95.4788         9.69718 
        2.19054         94.8406          9.6315 
        2.19666         94.1384         9.56652 
         2.2028         93.9391         9.50209 
        2.20893         93.5235         9.43822 
        2.21508         92.8632         9.37488 
        2.22122         92.3817         9.31209 
        2.22736         92.0895         9.25001 
        2.23349         91.3986         9.18851 
        2.23962         90.9158         9.12755 
        2.24577         90.4878         9.06708 
         2.2519         89.9359         9.00725 
        2.25802         89.5707         8.94806 
        2.26417         88.9224         8.88923 
        2.27031         88.3623         8.83088 
        2.27644         88.0981         8.77323 
        2.28257         87.6302         8.71609 
        2.28872         87.1718         8.65936 
        2.29486         86.9559         8.60315 
        2.30099         86.1986         8.54755 
        2.30712         85.9093         8.49242 
        2.31326         85.4092         8.43769 
         2.3194         84.9483         8.38347 
        2.32553         84.5158         8.32982 
        2.33166         83.9985         8.27667 
         2.3378         83.5918          8.2239 
        2.34394         83.2372         8.17159 
        2.35007         82.5991          8.1198 
        2.35619         82.3043         8.06853 
        2.36233         81.8039         8.01758 
        2.36848         81.3872         7.96697 
        2.37462         81.1747          7.9169 
        2.38075         80.5591         7.86731 
        2.38689         80.1997         7.81811 
        2.39303          79.852         7.76934 
        2.39916         79.3917         7.72103 
        2.40529         79.0767         7.67315 
        2.41143         78.6099         7.62563 
        2.41757          78.077          7.5785 
         2.4237          77.683         7.53185 
        2.42983         77.2617         7.48561 
        2.43598         77.0072         7.43963 
        2.44211         76.7081         7.39411 
        2.44823         76.2272         7.34908 
        2.45437         75.8591          7.3043 
        2.46052         75.3916         7.25985 
        2.46665         74.7752         7.21586 
        2.47279         74.6635         7.17224 
        2.47892         74.3115         7.12896 
        2.48507         73.8982           7.086 
         2.4912         73.4288         7.04347 
