# k  (h/Mpc)    P(k)  (Mpc/h)^3    P_linear(k)  (Mpc/h)^3
     0.00783031         13801.5         13872.7 
       0.013688         16488.8         16909.2 
       0.019231         16830.2         17082.5 
      0.0249154           15868         15844.9 
      0.0312784         13663.9         13809.7 
      0.0375637           11615         11826.9 
      0.0433917         10248.3         10317.8 
      0.0492413         9054.51         9186.05 
      0.0555754         8261.82         8318.63 
      0.0619321          7396.3          7677.3 
       0.067871         6993.56         7153.75 
      0.0738098         6523.59         6616.66 
      0.0800417         5939.78         6005.67 
      0.0862327         5296.42          5372.2 
      0.0921407         4765.95         4791.19 
      0.0982031         4319.75         4267.46 
       0.104506          3838.3         3831.85 
       0.110769         3549.51         3511.95 
       0.116806         3386.54         3290.31 
       0.122832         3181.58         3122.26 
       0.129052         3016.82          2969.5 
       0.135211         2918.27         2811.44 
       0.141259         2702.31          2637.1 
       0.147318         2495.03         2445.78 
       0.153489         2335.77         2246.79 
       0.159709         2222.76         2058.97 
       0.165845         2022.85         1899.41 
       0.171974         1963.53         1771.46 
       0.178125            1889         1672.83 
       0.184229         1746.18         1597.07 
        0.19034         1717.98         1533.29 
       0.196428         1666.69         1472.29 
       0.202534         1562.44         1407.14 
       0.208729         1531.12         1334.69 
       0.214876         1459.81         1258.34 
       0.220989          1377.8         1182.37 
       0.227147         1338.12         1110.69 
        0.23329         1283.06         1047.68 
       0.239377         1270.33         995.095 
       0.245482         1206.73         951.449 
       0.251667         1162.24         914.184 
       0.257832         1144.56         880.946 
       0.263955         1089.91         848.973 
       0.270079         1057.56         816.206 
        0.27624         1013.65         781.891 
       0.282372         997.934          746.92 
        0.28843         983.095         712.845 
       0.294538         934.832         680.297 
       0.300721          913.75         650.298 
        0.30691         893.554         623.636 
       0.313033         856.471         600.401 
       0.319153         845.571         579.607 
       0.325316         834.028         560.235 
        0.33145         815.198         541.668 
       0.337538          786.74         523.416 
       0.343633          767.18          505.08 
       0.349808         750.727         486.606 
       0.355968         736.596         468.569 
       0.362074         711.579         451.491 
       0.368217         709.156         435.399 
       0.374374         697.973           420.5 
       0.380519         671.394         406.825 
       0.386598         666.228          394.26 
       0.392688         650.217         382.407 
        0.39888         634.506         370.838 
       0.405048         622.329         359.606 
       0.411186         620.879         348.656 
       0.417313         615.811         337.933 
       0.423458         597.063         327.474 
       0.429607         580.373         317.411 
       0.435692         574.021         307.918 
       0.441815         563.306          298.87 
       0.447964         554.364         290.302 
       0.454126         547.804         282.166 
       0.460267         539.197         274.432 
       0.466387         529.864         267.028 
        0.47254         521.779         259.825 
       0.478662         512.828          252.85 
       0.484765         507.004         246.088 
       0.490885         501.779         239.513 
       0.497035         491.386         233.125 
       0.503198         491.192         226.964 
       0.509342         480.895         221.074 
       0.515458         471.731         215.463 
       0.521598         467.706         210.059 
       0.527764         458.601         204.839 
       0.533884         454.949         199.841 
           0.54         450.214         195.012 
       0.546137         442.085         190.314 
       0.552299         440.564         185.731 
       0.558452         433.867         181.291 
       0.564573         430.203         177.012 
       0.570708          425.09         172.864 
       0.576825         416.884         168.869 
       0.582926         415.308          165.02 
       0.589034          408.51         161.294 
       0.595184          405.38         157.666 
       0.601379         399.039         154.132 
       0.607522         391.792         150.735 
       0.613639         390.906         147.453 
       0.619772         389.266         144.256 
       0.625918         381.768         141.142 
       0.632068         379.198         138.116 
       0.638161          375.83         135.206 
         0.6443         371.063         132.361 
       0.650464         367.154         129.591 
       0.656582         363.923         126.923 
       0.662703         361.189          124.33 
       0.668861         355.317         121.797 
       0.675024         353.692         119.332 
       0.681124         348.177         116.961 
       0.687237         346.778         114.649 
       0.693381          341.89         112.389 
       0.699536         340.623         110.186 
       0.705665         336.476         108.051 
       0.711789          334.65         105.976 
       0.717957         330.507          103.94 
        0.72409         326.609          101.97 
       0.730186         328.294         100.063 
       0.736317         322.375         98.1954 
       0.742472          319.56         96.3688 
       0.748622         316.959         94.5909 
        0.75476         315.214         92.8621 
       0.760888         312.076         91.1794 
       0.767043         309.103         89.5321 
       0.773185         307.144         87.9291 
       0.779291         303.265         86.3746 
       0.785407         301.782         84.8556 
       0.791564         299.426         83.3637 
       0.797719         294.647         81.9085 
       0.803834         296.615         80.4975 
       0.809972         291.907         79.1149 
       0.816124         288.755         77.7619 
       0.822261         286.583         76.4443 
       0.828378         285.555         75.1614 
       0.834502         281.377          73.907 
       0.840667         281.657         72.6733 
       0.846816         276.541         71.4714 
       0.852925         276.995         70.3043 
       0.859047         274.346          69.161 
       0.865192         273.342         68.0394 
       0.871341         269.672         66.9421 
       0.877463          267.93          65.874 
       0.883569         266.438         64.8321 
       0.889708         264.038         63.8074 
       0.895864         261.338         62.8023 
       0.902008         259.848         61.8211 
       0.908149         257.635         60.8614 
       0.914301         256.183         59.9207 
       0.920448          254.79         59.0008 
       0.926574         252.777         58.1035 
       0.932687         251.897         57.2268 
       0.938823         249.085         56.3651 
       0.944975         248.521         55.5192 
       0.951105         245.867         54.6938 
       0.957225         243.573         53.8866 
       0.963368         243.792         53.0931 
       0.969511         239.368         52.3156 
       0.975621         238.053         51.5578 
       0.981748         237.441         50.8133 
       0.987916         236.176         50.0787 
        0.99406         234.009         49.3616 
        1.00019         232.319         48.6599 
        1.00632         231.645         47.9726 
        1.01246         229.721         47.2976 
        1.01859          227.25         46.6367 
        1.02471         225.732         45.9893 
        1.03085          224.67          45.352 
        1.03698         223.781         44.7281 
        1.04314         222.929         44.1134 
        1.04929         221.367         43.5117 
        1.05541         219.634         42.9237 
        1.06154         217.859         42.3452 
        1.06769         216.273         41.7764 
        1.07382         215.354           41.22 
        1.07993         213.336          40.675 
        1.08607         212.349         40.1376 
        1.09222         210.653         39.6094 
        1.09836         210.095         39.0914 
        1.10449          208.39         38.5833 
        1.11063         206.903         38.0836 
        1.11677         205.489          37.593 
         1.1229         204.751         37.1119 
        1.12903         202.937         36.6387 
        1.13518         201.727         36.1735 
        1.14131         201.005         35.7166 
        1.14745         198.916         35.2678 
        1.15359         197.563         34.8267 
        1.15973         196.982          34.393 
        1.16584         195.771         33.9686 
        1.17197         194.653         33.5507 
        1.17811         193.022         33.1387 
        1.18424         191.997         32.7347 
        1.19038         191.116         32.3364 
        1.19652         189.013         31.9448 
        1.20267         188.314         31.5597 
        1.20881         186.961         31.1811 
        1.21495         186.822         30.8093 
        1.22108         185.244         30.4436 
         1.2272         183.555         30.0847 
        1.23334         182.881         29.7308 
        1.23949         182.008         29.3818 
        1.24562         180.743         29.0394 
        1.25174         179.819         28.7029 
        1.25789         178.186         28.3708 
        1.26402          177.95         28.0445 
        1.27014         177.159         27.7241 
        1.27628         175.502         27.4078 
        1.28244         174.361         27.0959 
        1.28858         173.374         26.7892 
        1.29471         172.355         26.4879 
        1.30084          171.43         26.1916 
        1.30697         170.055         25.8993 
        1.31312         169.232         25.6111 
        1.31925         168.086         25.3282 
        1.32537         167.606         25.0498 
        1.33151         166.534         24.7747 
        1.33765         165.307         24.5038 
        1.34378         164.793         24.2375 
        1.34992         163.541          23.975 
        1.35606         162.751         23.7158 
         1.3622         161.756         23.4609 
        1.36833         160.482         23.2104 
        1.37445         160.448         22.9636 
        1.38059         158.768         22.7197 
        1.38675         157.929         22.4787 
        1.39288         156.929         22.2422 
        1.39901         155.937         22.0092 
        1.40515         155.495          21.779 
         1.4113         154.292         21.5522 
        1.41742         153.221         21.3295 
        1.42355         153.161         21.1095 
         1.4297         151.754          20.892 
        1.43585         151.201         20.6776 
        1.44198         149.603          20.467 
        1.44809          149.24         20.2598 
        1.45423         148.515         20.0547 
        1.46036         147.401         19.8527 
        1.46649         146.507         19.6535 
        1.47263         146.002         19.4569 
        1.47877         144.862         19.2631 
        1.48491          144.01         19.0715 
        1.49104          142.68          18.883 
        1.49718         142.514         18.6969 
        1.50333         141.471         18.5131 
        1.50947         140.816          18.332 
         1.5156         139.827         18.1537 
        1.52172         139.232         17.9777 
        1.52787         138.539         17.8037 
          1.534         137.738         17.6322 
        1.54013         136.824         17.4632 
        1.54627         136.062         17.2961 
        1.55241         135.567         17.1311 
        1.55855         134.933         16.9685 
        1.56467         134.014         16.8085 
         1.5708         132.859         16.6501 
        1.57695          132.59         16.4935 
        1.58308         131.492         16.3392 
        1.58922         131.025         16.1868 
        1.59535         130.286         16.0365 
         1.6015          129.43         15.8878 
        1.60764         128.603         15.7411 
        1.61376         127.907         15.5966 
        1.61989         127.439         15.4538 
        1.62604         126.336         15.3125 
        1.63218         125.925          15.173 
        1.63831         125.064         15.0356 
        1.64444         124.229         14.8998 
        1.65059         123.769         14.7654 
        1.65673         123.245         14.6328 
        1.66285         122.721         14.5022 
        1.66898         121.714         14.3732 
        1.67512         120.956         14.2454 
        1.68127         120.603         14.1191 
         1.6874         119.608         13.9946 
        1.69353         119.227         13.8717 
        1.69967         118.332           13.75 
        1.70581         118.007         13.6298 
        1.71193          117.16         13.5114 
        1.71806         116.178         13.3943 
        1.72421         115.863         13.2782 
        1.73035         115.235         13.1637 
        1.73649         114.347         13.0506 
        1.74262         114.075         12.9389 
        1.74876         113.248         12.8284 
        1.75489         112.937         12.7194 
        1.76101         112.025         12.6117 
        1.76715         111.276         12.5052 
        1.77329         110.777         12.3997 
        1.77943         110.058         12.2954 
        1.78557         109.759         12.1924 
        1.79171         109.031         12.0906 
        1.79785         108.185           11.99 
        1.80399          107.85         11.8905 
        1.81012         106.945         11.7923 
        1.81625          106.59         11.6952 
        1.82239         106.122         11.5991 
        1.82853         105.347         11.5041 
        1.83466         104.624         11.4102 
        1.84078         104.445         11.3175 
        1.84692         104.113         11.2257 
        1.85306         103.291         11.1348 
         1.8592         102.843          11.045 
        1.86533         102.022         10.9563 
        1.87147         101.754         10.8684 
        1.87761         100.889         10.7815 
        1.88375          100.32         10.6956 
        1.88988         99.7518         10.6107 
        1.89601         99.5314         10.5267 
        1.90215         99.1151         10.4436 
        1.90829         98.1516         10.3614 
        1.91442         97.4959           10.28 
        1.92056         97.1629         10.1996 
         1.9267         96.6535           10.12 
        1.93284         96.0349         10.0412 
        1.93897          95.667         9.96337 
        1.94509         95.1345         9.88653 
        1.95123         94.6624         9.81031 
        1.95737         94.2826         9.73483 
        1.96349         93.7453         9.66035 
        1.96964         93.1206         9.58642 
        1.97578         92.6223         9.51324 
        1.98192         92.3377         9.44097 
        1.98805         91.6484         9.36943 
        1.99419         91.2081         9.29864 
        2.00033         90.6329         9.22854 
        2.00647         90.1975         9.15918 
         2.0126         89.7261         9.09065 
        2.01874         89.5043         9.02272 
        2.02488         88.7282         8.95541 
        2.03101         88.3541         8.88892 
        2.03714         87.8673         8.82317 
        2.04328         87.6459           8.758 
        2.04941         87.1577         8.69355 
        2.05554         86.5958         8.62979 
        2.06167         85.9383         8.56658 
        2.06781         85.5456           8.504 
        2.07396         85.0746         8.44195 
        2.08009         84.4739         8.38063 
        2.08622         84.3113         8.31998 
        2.09237         83.7835         8.25982 
        2.09851         83.2156         8.20023 
        2.10464         83.0823         8.14134 
        2.11077         82.5146         8.08309 
        2.11691         82.2008         8.02528 
        2.12305         81.6937         7.96803 
        2.12918         81.2152         7.91148 
        2.13531         80.7741         7.85547 
        2.14145          80.406         7.79988 
         2.1476          80.085         7.74475 
        2.15372         79.4851         7.69043 
        2.15985         79.1061         7.63658 
        2.16599         78.6829         7.58309 
        2.17213         78.2311         7.53016 
        2.17827         77.7098         7.47776 
         2.1844         77.4776         7.42589 
        2.19054          77.007          7.3745 
        2.19666         76.6587         7.32367 
         2.2028         76.3738         7.27327 
        2.20893           75.98         7.22332 
        2.21508         75.5209         7.17379 
        2.22122         75.0096         7.12469 
        2.22736         74.7678         7.07617 
        2.23349         74.2606          7.0281 
        2.23962         73.9513         6.98045 
        2.24577         73.6351          6.9332 
         2.2519         73.1842         6.88646 
        2.25802         72.7851         6.84022 
        2.26417         72.3645         6.79427 
        2.27031         71.9714          6.7487 
        2.27644         71.6672         6.70369 
        2.28257          71.323         6.65908 
        2.28872          70.885          6.6148 
        2.29486         70.7753         6.57092 
        2.30099         70.1202         6.52754 
        2.30712         69.9381         6.48452 
        2.31326         69.5701         6.44182 
         2.3194         69.1674         6.39953 
        2.32553         68.7591         6.35768 
        2.33166         68.4271         6.31623 
         2.3378         68.1963         6.27509 
        2.34394         67.8769          6.2343 
        2.35007          67.403         6.19393 
        2.35619         67.1528         6.15397 
        2.36233          66.729         6.11426 
        2.36848         66.3853         6.07483 
        2.37462         66.0983         6.03582 
        2.38075         65.7241         5.99719 
        2.38689         65.3517         5.95887 
        2.39303         65.1378         5.92089 
        2.39916          64.719         5.88327 
        2.40529         64.5123         5.84599 
        2.41143         64.1512           5.809 
        2.41757         63.7107         5.77232 
         2.4237          63.434         5.73602 
        2.42983         63.1286         5.70003 
        2.43598         62.8449         5.66426 
        2.44211         62.5109         5.62885 
        2.44823          62.274         5.59382 
        2.45437          61.884           5.559 
        2.46052         61.6159         5.52444 
        2.46665         61.0875         5.49023 
        2.47279         60.9376         5.45633 
        2.47892         60.7212         5.42269 
        2.48507         60.3526          5.3893 
         2.4912         60.0116         5.35625 
