# k  (h/Mpc)    P(k)  (Mpc/h)^3    P_linear(k)  (Mpc/h)^3
     0.00783031         121.476         122.409 
       0.013688         157.656         158.747 
       0.019231         167.031           167.4 
      0.0249154         160.875         161.006 
      0.0312784         145.257         145.266 
      0.0375637         128.057         128.032 
      0.0433917         114.367         114.124 
      0.0492413         103.417          103.31 
      0.0555754         95.0503         94.8148 
      0.0619321         88.2821         88.4324 
       0.067871         83.1755         83.1592 
      0.0738098         77.6924         77.6697 
      0.0800417         71.3903         71.3045 
      0.0862327         64.5929         64.5614 
      0.0921407          58.265         58.2418 
      0.0982031         52.5323         52.4222 
       0.104506         47.4675         47.4768 
       0.110769         43.7729         43.7717 
       0.116806         41.2531         41.1678 
       0.122832         39.1753         39.1884 
       0.129052         37.4409         37.4092 
       0.135211         35.6469         35.5907 
       0.141259         33.5847         33.5867 
       0.147318          31.312         31.3673 
       0.153489         29.0258         29.0241 
       0.159709         26.8058         26.7724 
       0.165845         24.7712         24.8237 
       0.171974         23.2905         23.2336 
       0.178125         22.0353         21.9914 
       0.184229         21.0325         21.0337 
        0.19034         20.2902         20.2353 
       0.196428          19.512         19.4843 
       0.202534         18.6471         18.6906 
       0.208729         17.8191         17.8069 
       0.214876         16.9222          16.866 
       0.220989         15.8947         15.9164 
       0.227147          15.072         15.0063 
        0.23329         14.2678         14.1945 
       0.239377          13.586         13.5092 
       0.245482         13.0075         12.9374 
       0.251667         12.4856         12.4508 
       0.257832         12.0916         12.0216 
       0.263955         11.6546         11.6135 
       0.270079         11.2364         11.1975 
        0.27624          10.771         10.7603 
       0.282372         10.3298         10.3105 
        0.28843         9.92844         9.86686 
       0.294538         9.49263         9.43798 
       0.300721         9.06872          9.0386 
        0.30691         8.74532         8.68137 
       0.313033          8.4238         8.36975 
       0.319153         8.18767          8.0921 
       0.325316         7.86995         7.83539 
        0.33145         7.62688         7.59098 
       0.337538         7.39795         7.35124 
       0.343633         7.16763         7.10961 
       0.349808         6.91345         6.86442 
       0.355968         6.66694         6.62284 
       0.362074         6.45247         6.39215 
       0.368217         6.23088         6.17329 
       0.374374          6.0524         5.96993 
       0.380519         5.83971         5.78327 
       0.386598         5.66058         5.61225 
       0.392688          5.4937         5.45161 
        0.39888         5.34821         5.29533 
       0.405048          5.1993         5.14372 
       0.411186         5.04656         4.99557 
       0.417313         4.90545         4.84977 
       0.423458         4.74881         4.70676 
       0.429607         4.62812         4.56835 
       0.435692         4.50135         4.43719 
       0.441815         4.36586         4.31189 
       0.447964         4.23452          4.1932 
       0.454126         4.13766          4.0806 
       0.460267         4.04335         3.97379 
       0.466387         3.93381         3.87169 
        0.47254         3.83906         3.77234 
       0.478662         3.73804         3.67598 
       0.484765          3.6467          3.5823 
       0.490885         3.54881         3.49089 
       0.497035         3.44975         3.40174 
       0.503198         3.37328         3.31549 
       0.509342         3.28184         3.23289 
       0.515458         3.21201         3.15414 
       0.521598         3.13648          3.0783 
       0.527764         3.07257         3.00505 
       0.533884         2.98587         2.93496 
           0.54         2.92277         2.86721 
       0.546137         2.84941         2.80122 
       0.552299         2.78993         2.73673 
       0.558452         2.72822         2.67411 
       0.564573         2.66949         2.61362 
       0.570708         2.61001         2.55488 
       0.576825         2.55349         2.49822 
       0.582926         2.49386         2.44355 
       0.589034         2.44996          2.3906 
       0.595184         2.40075         2.33904 
       0.601379         2.34389         2.28879 
       0.607522          2.2937         2.24048 
       0.613639         2.24039         2.19375 
       0.619772          2.2035         2.14816 
       0.625918         2.15791         2.10371 
       0.632068         2.11512         2.06044 
       0.638161          2.0721         2.01878 
         0.6443         2.03004           1.978 
       0.650464         1.99078         1.93826 
       0.656582         1.95722         1.89994 
       0.662703         1.91821         1.86269 
       0.668861         1.87347         1.82625 
       0.675024         1.84148         1.79078 
       0.681124         1.81988         1.75662 
       0.687237          1.7781          1.7233 
       0.693381         1.73845          1.6907 
       0.699536         1.71581         1.65888 
       0.705665         1.68346         1.62802 
       0.711789          1.6473         1.59798 
       0.717957         1.61954          1.5685 
        0.72409         1.59043         1.53993 
       0.730186         1.56778         1.51226 
       0.736317         1.53551         1.48513 
       0.742472         1.51227         1.45859 
       0.748622         1.48705         1.43273 
        0.75476         1.45773         1.40757 
       0.760888         1.43777         1.38306 
       0.767043         1.40182         1.35904 
       0.773185         1.38382         1.33566 
       0.779291         1.36673         1.31296 
       0.785407         1.34123         1.29076 
       0.791564         1.31904         1.26894 
       0.797719         1.29658         1.24764 
       0.803834         1.27518         1.22697 
       0.809972         1.25543          1.2067 
       0.816124         1.23506         1.18685 
       0.822261         1.21703         1.16751 
       0.828378         1.19558         1.14866 
       0.834502         1.17738         1.13022 
       0.840667         1.16121         1.11207 
       0.846816         1.14287         1.09437 
       0.852925         1.12249         1.07718 
       0.859047         1.10623         1.06032 
       0.865192         1.09032         1.04377 
       0.871341         1.07522         1.02757 
       0.877463         1.05578          1.0118 
       0.883569         1.04103        0.996393 
       0.889708         1.02769        0.981236 
       0.895864         1.01266        0.966358 
       0.902008         0.99559        0.951824 
       0.908149        0.983263        0.937601 
       0.914301        0.971188        0.923649 
       0.920448         0.95676        0.909997 
       0.926574        0.944937        0.896672 
       0.932687        0.930841        0.883645 
       0.938823        0.914681        0.870833 
       0.944975        0.904374        0.858249 
       0.951105        0.888652        0.845962 
       0.957225        0.876386        0.833939 
       0.963368        0.866687        0.822112 
       0.969511        0.856142        0.810516 
       0.975621        0.842651        0.799209 
       0.981748        0.828542        0.788092 
       0.987916        0.818723        0.777118 
        0.99406         0.80966        0.766397 
        1.00019        0.798249        0.755901 
        1.00632        0.790472        0.745614 
        1.01246        0.779152        0.735506 
        1.01859        0.768986        0.725603 
        1.02471        0.756866        0.715897 
        1.03085        0.746663        0.706337 
        1.03698        0.738883        0.696973 
        1.04314        0.729566        0.687742 
        1.04929          0.7219          0.6787 
        1.05541        0.709749         0.66986 
        1.06154        0.702601        0.661156 
        1.06769        0.694376        0.652596 
        1.07382        0.685466        0.644217 
        1.07993         0.67772        0.636005 
        1.08607        0.668663        0.627905 
        1.09222        0.659915        0.619938 
        1.09836        0.652652        0.612121 
        1.10449        0.643832        0.604448 
        1.11063        0.635898          0.5969 
        1.11677        0.629993        0.589485 
         1.1229        0.620079         0.58221 
        1.12903        0.614491        0.575053 
        1.13518        0.606618         0.56801 
        1.14131        0.600318        0.561091 
        1.14745        0.595095        0.554292 
        1.15359        0.586484        0.547606 
        1.15973        0.580763        0.541028 
        1.16584         0.57297        0.534589 
        1.17197        0.565938        0.528246 
        1.17811        0.559284        0.521988 
        1.18424        0.553284        0.515851 
        1.19038         0.54625        0.509795 
        1.19652        0.542497         0.50384 
        1.20267        0.536239        0.497981 
        1.20881        0.527828        0.492217 
        1.21495        0.523219        0.486555 
        1.22108        0.518003        0.480983 
         1.2272        0.511127        0.475512 
        1.23334        0.506076        0.470115 
        1.23949         0.50191         0.46479 
        1.24562        0.496086        0.459562 
        1.25174        0.490691        0.454424 
        1.25789        0.483955        0.449349 
        1.26402        0.480213        0.444362 
        1.27014        0.473718        0.439463 
        1.27628        0.470056        0.434624 
        1.28244        0.465194         0.42985 
        1.28858        0.459381        0.425153 
        1.29471        0.454875        0.420539 
        1.30084        0.450099        0.415997 
        1.30697        0.446652        0.411516 
        1.31312        0.441908        0.407095 
        1.31925        0.437074        0.402754 
        1.32537        0.432794         0.39848 
        1.33151         0.42822        0.394254 
        1.33765        0.423552        0.390092 
        1.34378        0.418624        0.385999 
        1.34992        0.416375        0.381962 
        1.35606         0.41124        0.377975 
         1.3622        0.407425        0.374052 
        1.36833        0.404187        0.370195 
        1.37445        0.400438        0.366395 
        1.38059        0.395975        0.362637 
        1.38675        0.391536        0.358923 
        1.39288         0.38709        0.355276 
        1.39901        0.384911        0.351682 
        1.40515        0.380587        0.348129 
         1.4113        0.377909        0.344628 
        1.41742        0.374093        0.341189 
        1.42355        0.368952         0.33779 
         1.4297        0.367424        0.334428 
        1.43585        0.362884        0.331114 
        1.44198         0.36003        0.327857 
        1.44809        0.356114        0.324651 
        1.45423        0.353229        0.321476 
        1.46036        0.349796        0.318349 
        1.46649        0.346692        0.315264 
        1.47263        0.342432        0.312217 
        1.47877        0.341422        0.309212 
        1.48491        0.336457        0.306242 
        1.49104        0.335287        0.303318 
        1.49718        0.331376         0.30043 
        1.50333        0.328835        0.297575 
        1.50947        0.326127        0.294763 
         1.5156        0.322605        0.291993 
        1.52172        0.320282        0.289258 
        1.52787        0.316344        0.286553 
          1.534        0.314548        0.283886 
        1.54013        0.311633        0.281256 
        1.54627         0.30919        0.278655 
        1.55241        0.306179        0.276086 
        1.55855          0.3037        0.273554 
        1.56467        0.301289        0.271061 
         1.5708        0.298349        0.268592 
        1.57695        0.295872         0.26615 
        1.58308        0.292317        0.263745 
        1.58922        0.291023        0.261367 
        1.59535        0.288028        0.259021 
         1.6015        0.286108        0.256699 
        1.60764        0.283295        0.254408 
        1.61376         0.28112        0.252151 
        1.61989        0.278486         0.24992 
        1.62604        0.276474        0.247711 
        1.63218          0.2745         0.24553 
        1.63831        0.271869        0.243381 
        1.64444        0.269849        0.241257 
        1.65059        0.267049        0.239153 
        1.65673        0.265256        0.237077 
        1.66285        0.263532        0.235031 
        1.66898        0.260813        0.233009 
        1.67512         0.25877        0.231007 
        1.68127        0.256588        0.229027 
         1.6874         0.25491        0.227075 
        1.69353        0.252773        0.225147 
        1.69967         0.25028        0.223236 
        1.70581        0.249072        0.221349 
        1.71193        0.247327        0.219491 
        1.71806        0.244898        0.217651 
        1.72421        0.242938        0.215828 
        1.73035         0.24107        0.214028 
        1.73649        0.239471         0.21225 
        1.74262        0.237256        0.210493 
        1.74876        0.235973        0.208754 
        1.75489        0.233909         0.20704 
        1.76101        0.232066        0.205345 
        1.76715        0.230508        0.203667 
        1.77329        0.228394        0.202005 
        1.77943        0.226605        0.200362 
        1.78557        0.225631         0.19874 
        1.79171        0.223802        0.197135 
        1.79785        0.221647        0.195548 
        1.80399        0.219681        0.193978 
        1.81012        0.218706        0.192429 
        1.81625        0.217142        0.190896 
        1.82239        0.215863        0.189379 
        1.82853        0.213749        0.187879 
        1.83466        0.212156        0.186396 
        1.84078        0.210741        0.184931 
        1.84692        0.209136         0.18348 
        1.85306        0.207738        0.182043 
         1.8592        0.206351        0.180623 
        1.86533        0.204967        0.179219 
        1.87147        0.203283        0.177829 
        1.87761        0.201727        0.176453 
        1.88375        0.200178        0.175093 
        1.88988        0.198927        0.173749 
        1.89601         0.19709        0.172419 
        1.90215        0.195893        0.171101 
        1.90829        0.194308        0.169798 
        1.91442        0.193454        0.168508 
        1.92056        0.192217        0.167234 
         1.9267         0.19062        0.165971 
        1.93284        0.189013         0.16472 
        1.93897        0.187933        0.163485 
        1.94509        0.186584        0.162265 
        1.95123        0.185292        0.161055 
        1.95737        0.184246        0.159856 
        1.96349        0.182967        0.158673 
        1.96964        0.181472        0.157498 
        1.97578        0.180368        0.156334 
        1.98192        0.179369        0.155185 
        1.98805        0.178164        0.154047 
        1.99419        0.177151        0.152921 
        2.00033        0.175559        0.151806 
        2.00647        0.174478        0.150701 
         2.0126        0.173576         0.14961 
        2.01874        0.172362        0.148528 
        2.02488        0.171204        0.147456 
        2.03101        0.169894        0.146397 
        2.03714         0.16946        0.145349 
        2.04328        0.167474         0.14431 
        2.04941        0.166905        0.143282 
        2.05554          0.1659        0.142265 
        2.06167        0.164681        0.141256 
        2.06781        0.163223        0.140258 
        2.07396        0.162392        0.139267 
        2.08009        0.161534        0.138288 
        2.08622        0.160649        0.137319 
        2.09237        0.159401        0.136358 
        2.09851        0.158303        0.135406 
        2.10464        0.157405        0.134465 
        2.11077         0.15634        0.133534 
        2.11691        0.155599        0.132609 
        2.12305        0.154102        0.131694 
        2.12918        0.153278        0.130789 
        2.13531        0.152471        0.129893 
        2.14145        0.151493        0.129003 
         2.1476        0.150741         0.12812 
        2.15372        0.149712         0.12725 
        2.15985        0.148767        0.126388 
        2.16599        0.147582        0.125531 
        2.17213        0.147088        0.124683 
        2.17827        0.146099        0.123843 
         2.1844        0.145126        0.123011 
        2.19054        0.144413        0.122187 
        2.19666         0.14357        0.121372 
         2.2028        0.142269        0.120563 
        2.20893        0.141821        0.119762 
        2.21508        0.140818        0.118966 
        2.22122        0.140013        0.118178 
        2.22736         0.13914        0.117399 
        2.23349        0.138332        0.116627 
        2.23962        0.137616        0.115861 
        2.24577        0.136874        0.115102 
         2.2519        0.135892        0.114351 
        2.25802        0.135208        0.113607 
        2.26417        0.134559        0.112868 
        2.27031         0.13351        0.112136 
        2.27644        0.133159        0.111411 
        2.28257        0.132093        0.110694 
        2.28872        0.131326        0.109981 
        2.29486        0.130677        0.109274 
        2.30099        0.129797        0.108576 
        2.30712        0.129204        0.107883 
        2.31326        0.128197        0.107195 
         2.3194        0.127664        0.106514 
        2.32553         0.12709        0.105839 
        2.33166        0.126144        0.105171 
         2.3378        0.125466        0.104508 
        2.34394        0.124858         0.10385 
        2.35007        0.124149        0.103199 
        2.35619        0.123759        0.102554 
        2.36233        0.122667        0.101913 
        2.36848        0.122138        0.101276 
        2.37462        0.121626        0.100647 
        2.38075        0.120838        0.100023 
        2.38689        0.120283       0.0994038 
        2.39303        0.119702       0.0987901 
        2.39916        0.118801       0.0981824 
        2.40529        0.118182       0.0975798 
        2.41143        0.117354       0.0969818 
        2.41757        0.116895       0.0963886 
         2.4237        0.116289       0.0958015 
        2.42983        0.115795       0.0952194 
        2.43598        0.114939       0.0946406 
        2.44211        0.114188       0.0940676 
        2.44823        0.113881       0.0935006 
        2.45437        0.113268       0.0929368 
        2.46052        0.112636       0.0923772 
        2.46665        0.112005       0.0918231 
        2.47279         0.11149       0.0912739 
        2.47892        0.111188       0.0907288 
        2.48507        0.110235       0.0901876 
         2.4912        0.109829        0.089652 
