# k  (h/Mpc)    P(k)  (Mpc/h)^3    P_linear(k)  (Mpc/h)^3
     0.00783031         5587.53         5663.94 
       0.013688         7376.28         7356.06 
       0.019231         7825.88         7831.09 
      0.0249154         7521.21         7633.21 
      0.0312784         6944.28         7001.57 
      0.0375637         6251.12         6264.65 
      0.0433917         5562.95         5643.66 
      0.0492413          5102.8         5140.69 
      0.0555754         4621.49         4728.38 
      0.0619321         4403.05         4408.68 
       0.067871         4057.66         4145.23 
      0.0738098         3790.68         3878.49 
      0.0800417         3463.48         3577.19 
      0.0862327         3183.86         3261.37 
      0.0921407         2919.03         2963.94 
      0.0982031          2632.8         2685.48 
       0.104506         2446.97         2442.38 
       0.110769         2257.25         2253.61 
       0.116806         2103.75         2115.78 
       0.122832         2009.58         2008.47 
       0.129052         1884.67         1913.17 
       0.135211         1795.32         1819.91 
       0.141259         1718.03         1721.18 
       0.147318         1623.85         1613.91 
       0.153489          1499.5         1500.68 
       0.159709         1410.78         1390.37 
       0.165845         1343.03          1292.6 
       0.171974         1254.21         1210.38 
       0.178125         1191.21         1144.03 
       0.184229         1144.84          1091.6 
        0.19034         1075.25         1047.86 
       0.196428         1057.11          1007.9 
       0.202534         1025.65         967.311 
       0.208729         977.449         923.362 
       0.214876         926.437             877 
       0.220989         898.822         829.919 
       0.227147         846.665         784.073 
        0.23329         811.312         742.255 
       0.239377         791.469         706.099 
       0.245482         740.785         675.333 
       0.251667         732.849         648.912 
       0.257832         708.258         625.799 
       0.263955         685.569         604.355 
       0.270079         663.671         583.027 
        0.27624         655.115         560.975 
       0.282372         627.654         538.376 
        0.28843         610.462         515.913 
       0.294538         583.184         493.915 
       0.300721         578.475         473.072 
        0.30691         552.048         454.159 
       0.313033         540.426         437.467 
       0.319153         522.439         422.591 
       0.325316         508.397         408.937 
        0.33145         494.134         396.147 
       0.337538         488.545         383.763 
       0.343633         473.124         371.416 
       0.349808         458.932         358.882 
       0.355968         453.395         346.481 
       0.362074         442.999         334.521 
       0.368217         431.513         323.048 
       0.374374         416.717         312.304 
       0.380519         410.787         302.375 
       0.386598         401.487         293.297 
       0.392688          398.01         284.809 
        0.39888         387.211         276.616 
       0.405048         379.838         268.746 
       0.411186         371.995         261.083 
       0.417313         365.399          253.55 
       0.423458             359         246.144 
       0.429607         350.915         238.927 
       0.435692         341.985         232.047 
       0.441815         339.951         225.451 
       0.447964         333.974         219.174 
       0.454126         321.431         213.222 
       0.460267         318.155         207.602 
       0.466387         314.432          202.25 
        0.47254         308.186         197.058 
       0.478662         306.208         192.043 
       0.484765         298.236         187.175 
       0.490885         294.276         182.409 
       0.497035         290.165         177.748 
       0.503198         283.293         173.228 
       0.509342         280.592          168.89 
       0.515458         277.082         164.742 
       0.521598         273.428         160.744 
       0.527764         268.867         156.895 
       0.533884         265.343         153.222 
           0.54         261.852         149.676 
       0.546137         260.614         146.223 
       0.552299         255.905         142.853 
       0.558452         252.213         139.583 
       0.564573         248.014         136.421 
       0.570708         244.363         133.342 
       0.576825          241.41         130.366 
       0.582926         238.526         127.492 
       0.589034         235.018         124.712 
       0.595184         233.106         122.008 
       0.601379         231.059         119.373 
       0.607522         226.141         116.841 
       0.613639         225.576         114.391 
       0.619772         220.459         112.004 
       0.625918         218.825         109.678 
       0.632068         216.371         107.415 
       0.638161         215.098         105.235 
         0.6443         211.731         103.098 
       0.650464         209.754         101.012 
       0.656582         208.112          99.001 
       0.662703         205.023         97.0459 
       0.668861         202.627         95.1356 
       0.675024          200.49         93.2781 
       0.681124         199.403         91.4906 
       0.687237         196.056          89.747 
       0.693381         193.689         88.0404 
       0.699536         192.292         86.3741 
       0.705665         192.571         84.7571 
       0.711789          188.25         83.1824 
       0.717957         187.537         81.6371 
        0.72409         185.174         80.1401 
       0.730186         182.308         78.6907 
       0.736317         181.694         77.2704 
       0.742472         180.448         75.8809 
       0.748622         179.212         74.5276 
        0.75476         177.538         73.2106 
       0.760888         175.194         71.9277 
       0.767043         173.913         70.6705 
       0.773185         172.238         69.4458 
       0.779291         170.121         68.2571 
       0.785407         169.251         67.0946 
       0.791564         167.586         65.9519 
       0.797719          165.63         64.8367 
       0.803834         164.996         63.7546 
       0.809972         162.778         62.6937 
       0.816124         162.641         61.6549 
       0.822261         160.698         60.6428 
       0.828378         159.292         59.6568 
       0.834502         158.684         58.6921 
       0.840667         156.695         57.7427 
       0.846816         155.642         56.8171 
       0.852925         154.072         55.9178 
       0.859047         152.626         55.0363 
       0.865192         152.141         54.1709 
       0.871341         150.497         53.3237 
       0.877463         149.278         52.4985 
       0.883569         148.069         51.6931 
       0.889708         147.315         50.9005 
       0.895864         145.951         50.1226 
       0.902008         145.033         49.3628 
       0.908149         144.228         48.6193 
       0.914301         142.598           47.89 
       0.920448         141.876         47.1765 
       0.926574         141.047         46.4801 
       0.932687         140.129         45.7994 
       0.938823         138.427           45.13 
       0.944975         137.703         44.4725 
       0.951105         136.728         43.8306 
       0.957225         135.073         43.2025 
       0.963368         134.553         42.5847 
       0.969511         133.903         41.9791 
       0.975621         133.367         41.3886 
       0.981748         132.301         40.8079 
       0.987916         131.033         40.2349 
        0.99406          130.56         39.6751 
        1.00019         129.214         39.1271 
        1.00632         128.647           38.59 
        1.01246         127.549         38.0623 
        1.01859         126.124         37.5454 
        1.02471          126.64         37.0388 
        1.03085         125.304         36.5398 
        1.03698         124.085         36.0511 
        1.04314         123.156         35.5693 
        1.04929         122.617         35.0975 
        1.05541         121.816         34.6363 
        1.06154         121.097         34.1822 
        1.06769         120.541         33.7356 
        1.07382         120.042         33.2986 
        1.07993         119.279         32.8703 
        1.08607         118.234         32.4478 
        1.09222         117.623         32.0324 
        1.09836         116.756         31.6247 
        1.10449         116.103         31.2247 
        1.11063         115.406         30.8312 
        1.11677          114.78         30.4447 
         1.1229         113.881         30.0654 
        1.12903         112.833         29.6924 
        1.13518         113.047         29.3254 
        1.14131         112.121         28.9648 
        1.14745         111.015         28.6106 
        1.15359         110.592         28.2622 
        1.15973         110.149         27.9196 
        1.16584         109.327         27.5842 
        1.17197         108.648         27.2538 
        1.17811          108.09         26.9279 
        1.18424         107.132         26.6082 
        1.19038         106.729         26.2929 
        1.19652         106.241         25.9828 
        1.20267          105.41         25.6778 
        1.20881         104.868         25.3777 
        1.21495         104.132          25.083 
        1.22108         103.533          24.793 
         1.2272         102.982         24.5082 
        1.23334         102.466         24.2273 
        1.23949         101.725         23.9502 
        1.24562         101.558         23.6782 
        1.25174         100.812         23.4109 
        1.25789         100.254         23.1468 
        1.26402         99.7515         22.8874 
        1.27014         98.8424         22.6325 
        1.27628         98.6758         22.3808 
        1.28244         97.7739         22.1325 
        1.28858         97.3552         21.8882 
        1.29471          96.932         21.6483 
        1.30084         96.3037         21.4121 
        1.30697         95.6216         21.1791 
        1.31312         95.2635         20.9493 
        1.31925         94.9991         20.7236 
        1.32537         94.4236         20.5015 
        1.33151         93.6466         20.2818 
        1.33765         93.1965         20.0656 
        1.34378         92.6201         19.8529 
        1.34992         92.2042         19.6431 
        1.35606         91.7407          19.436 
         1.3622         90.9653         19.2322 
        1.36833         90.8604         19.0318 
        1.37445         90.1896         18.8344 
        1.38059         89.5915         18.6393 
        1.38675         89.2165         18.4464 
        1.39288         88.6089          18.257 
        1.39901         88.5042         18.0704 
        1.40515         88.0565          17.886 
         1.4113          87.304         17.7042 
        1.41742         86.9669         17.5257 
        1.42355         86.4624         17.3493 
         1.4297         86.0275         17.1748 
        1.43585         85.5039         17.0028 
        1.44198         85.2749         16.8338 
        1.44809         84.5938         16.6675 
        1.45423         84.3506         16.5028 
        1.46036          83.865         16.3406 
        1.46649         83.3987         16.1805 
        1.47263         83.0582         16.0225 
        1.47877         82.7449         15.8666 
        1.48491         82.1951         15.7126 
        1.49104         81.7181         15.5609 
        1.49718         81.2956         15.4112 
        1.50333         80.9089         15.2632 
        1.50947         80.3362         15.1174 
         1.5156         80.1559         14.9738 
        1.52172         79.7236          14.832 
        1.52787          79.406         14.6918 
          1.534         79.1045         14.5536 
        1.54013         78.5217         14.4173 
        1.54627         78.2304         14.2825 
        1.55241         77.6874         14.1494 
        1.55855         77.2318         14.0182 
        1.56467         76.7584         13.8891 
         1.5708         76.6087         13.7612 
        1.57695         76.2451         13.6347 
        1.58308         75.8931         13.5101 
        1.58922         75.5777          13.387 
        1.59535         75.2455         13.2655 
         1.6015         74.6748         13.1453 
        1.60764         74.5617         13.0267 
        1.61376          74.043         12.9098 
        1.61989         73.5479         12.7943 
        1.62604         73.3018           12.68 
        1.63218         73.0858         12.5671 
        1.63831         72.6277         12.4559 
        1.64444         72.4097          12.346 
        1.65059         71.6964         12.2371 
        1.65673         71.5665         12.1297 
        1.66285         71.2581         12.0239 
        1.66898          70.817         11.9193 
        1.67512         70.3986         11.8157 
        1.68127         70.0559         11.7133 
         1.6874         69.8434         11.6123 
        1.69353         69.4488         11.5126 
        1.69967         69.1404         11.4138 
        1.70581         68.9536         11.3163 
        1.71193         68.5329         11.2202 
        1.71806         68.0112         11.1251 
        1.72421         67.9021         11.0308 
        1.73035         67.4237         10.9378 
        1.73649         67.0917         10.8459 
        1.74262         66.8542         10.7551 
        1.74876         66.6704         10.6653 
        1.75489          66.143         10.5766 
        1.76101          65.984         10.4891 
        1.76715         65.5333         10.4024 
        1.77329         65.2736         10.3166 
        1.77943         65.0829         10.2317 
        1.78557         64.8032         10.1479 
        1.79171         64.3599          10.065 
        1.79785          64.116         9.98302 
        1.80399         63.7117         9.90199 
        1.81012         63.5761         9.82196 
        1.81625         63.0213         9.74286 
        1.82239         62.8349         9.66451 
        1.82853         62.4075         9.58706 
        1.83466         62.2439         9.51053 
        1.84078         61.7346         9.43493 
        1.84692         61.5935         9.36002 
        1.85306         61.3275         9.28584 
         1.8592         61.0095         9.21258 
        1.86533         60.6585         9.14015 
        1.87147         60.4556         9.06842 
        1.87761         60.2336         8.99742 
        1.88375         60.0431         8.92728 
        1.88988         59.8536         8.85796 
        1.89601         59.3354         8.78933 
        1.90215         59.1129         8.72139 
        1.90829         58.9029         8.65419 
        1.91442         58.5822          8.5877 
        1.92056          58.352         8.52197 
         1.9267         57.9207         8.45685 
        1.93284         57.6426         8.39239 
        1.93897         57.4791         8.32871 
        1.94509         57.1684         8.26584 
        1.95123          56.976         8.20345 
        1.95737          56.719         8.14167 
        1.96349         56.3939         8.08068 
        1.96964          56.117         8.02014 
        1.97578         55.8839         7.96019 
        1.98192         55.6529         7.90098 
        1.98805         55.4718         7.84237 
        1.99419         55.0738         7.78435 
        2.00033         54.7908         7.72689 
        2.00647         54.6624         7.67002 
         2.0126         54.3431         7.61382 
        2.01874         54.0929         7.55811 
        2.02488         53.9029          7.5029 
        2.03101         53.5827         7.44834 
        2.03714          53.306         7.39439 
        2.04328         53.0478          7.3409 
        2.04941         52.7968         7.28799 
        2.05554          52.518         7.23564 
        2.06167         52.4036         7.18373 
        2.06781         52.0849         7.13233 
        2.07396         51.8173         7.08136 
        2.08009         51.6754         7.03097 
        2.08622         51.3037         6.98113 
        2.09237         51.1366         6.93168 
        2.09851          50.792          6.8827 
        2.10464         50.6347         6.83427 
        2.11077         50.4627         6.78637 
        2.11691         50.1947         6.73882 
        2.12305         49.8766         6.69172 
        2.12918         49.7236         6.64519 
        2.13531         49.5293          6.5991 
        2.14145         49.2926         6.55334 
         2.1476         49.0854         6.50796 
        2.15372         48.7973         6.46324 
        2.15985         48.6857          6.4189 
        2.16599         48.4426         6.37484 
        2.17213         48.4006         6.33125 
        2.17827         47.9078         6.28807 
         2.1844         47.6812         6.24534 
        2.19054         47.5007         6.20299 
        2.19666         47.3159         6.16109 
         2.2028         47.1574         6.11954 
        2.20893         46.9347         6.07836 
        2.21508         46.7301         6.03751 
        2.22122         46.4673         5.99702 
        2.22736         46.1926         5.95699 
        2.23349         46.0606         5.91733 
        2.23962           45.83         5.87802 
        2.24577         45.5803         5.83902 
         2.2519         45.3656         5.80044 
        2.25802         45.3272         5.76226 
        2.26417         44.9831         5.72432 
        2.27031         44.7993         5.68669 
        2.27644         44.5316         5.64951 
        2.28257         44.4096         5.61266 
        2.28872         44.1437         5.57607 
        2.29486         43.9756         5.53982 
        2.30099         43.8216         5.50396 
        2.30712         43.5845          5.4684 
        2.31326         43.4228          5.4331 
         2.3194         43.2344         5.39813 
        2.32553         43.0236         5.36353 
        2.33166         42.8088         5.32924 
         2.3378         42.6561         5.29521 
        2.34394         42.3643         5.26147 
        2.35007         42.2329         5.22806 
        2.35619         42.1656         5.19499 
        2.36233         41.8845         5.16213 
        2.36848         41.6541         5.12948 
        2.37462         41.5566         5.09719 
        2.38075         41.2437          5.0652 
        2.38689         41.1063         5.03346 
        2.39303         40.9716           5.002 
        2.39916          40.772         4.97084 
        2.40529         40.5326         4.93995 
        2.41143         40.4023          4.9093 
        2.41757         40.1943          4.8789 
         2.4237         40.0638         4.84881 
        2.42983         39.8753         4.81897 
        2.43598          39.686         4.78931 
        2.44211          39.592         4.75995 
        2.44823         39.3525          4.7309 
        2.45437         39.1963         4.70201 
        2.46052         38.9952         4.67334 
        2.46665         38.8324         4.64496 
        2.47279         38.6834         4.61682 
        2.47892         38.4246          4.5889 
        2.48507         38.2827         4.56119 
         2.4912         38.0987         4.53375 
