# k  (h/Mpc)    P(k)  (Mpc/h)^3    P_linear(k)  (Mpc/h)^3
     0.00783031         17195.7         17439.2 
       0.013688         21228.9         21016.9 
       0.019231         20737.3         20677.3 
      0.0249154         18062.2         18445.1 
      0.0312784         15122.6         15272.4 
      0.0375637         12508.7         12467.7 
      0.0433917         10394.6         10537.2 
      0.0492413         9231.05          9252.2 
      0.0555754         8177.22         8404.48 
      0.0619321         7891.41          7848.8 
       0.067871         7186.42         7373.03 
      0.0738098         6638.31         6806.88 
      0.0800417         5884.03         6086.63 
      0.0862327         5224.47         5308.81 
      0.0921407         4655.14         4606.65 
      0.0982031         4053.89         4009.21 
       0.104506         3739.45         3560.21 
       0.110769         3441.32         3277.87 
       0.116806         3257.52         3117.29 
       0.122832         3129.32         3009.72 
       0.129052         2930.01         2897.31 
       0.135211         2783.77         2746.32 
       0.141259         2649.88         2550.14 
       0.147318         2466.52         2322.17 
       0.153489         2229.31         2088.12 
       0.159709         2078.19          1880.6 
       0.165845         1975.86         1721.82 
       0.171974         1863.52         1611.95 
       0.178125         1775.76         1541.43 
       0.184229         1703.62         1494.45 
        0.19034         1617.27         1452.36 
       0.196428         1585.82         1401.11 
       0.202534          1525.8         1333.59 
       0.208729         1447.54         1250.32 
       0.214876         1378.39          1161.1 
       0.220989         1321.84         1075.99 
       0.227147         1261.31         1002.16 
        0.23329         1206.96          944.46 
       0.239377         1184.03         902.514 
       0.245482         1109.38         871.804 
       0.251667         1104.12         846.471 
       0.257832         1060.57         821.254 
       0.263955         1025.84         792.401 
       0.270079         987.506         758.421 
        0.27624         974.959          720.38 
       0.282372         934.054         681.589 
        0.28843         921.329         645.399 
       0.294538         873.443         613.474 
       0.300721         867.667          586.74 
        0.30691         832.591         565.261 
       0.313033         816.008          547.65 
       0.319153         797.775         531.812 
       0.325316         773.298          515.81 
        0.33145         753.887         498.814 
       0.337538         740.188          480.54 
       0.343633         721.682         461.437 
       0.349808         695.636         442.127 
       0.355968         690.433         423.952 
       0.362074         682.291         407.699 
       0.368217         661.229         393.367 
       0.374374         634.266          380.88 
       0.380519         633.996         369.725 
       0.386598         615.767         359.404 
       0.392688         613.286         349.213 
        0.39888         594.943         338.635 
       0.405048         585.667         327.875 
       0.411186         577.112         317.048 
       0.417313         565.205         306.441 
       0.423458         553.847         296.333 
       0.429607         546.755         286.921 
       0.435692         533.756         278.385 
       0.441815          528.61         270.539 
       0.447964         517.678         263.202 
       0.454126         510.508         256.191 
       0.460267         498.788         249.393 
       0.466387         492.825         242.687 
        0.47254         487.245         235.952 
       0.478662         483.612         229.339 
       0.484765         467.133         222.923 
       0.490885         463.594          216.74 
       0.497035         454.538         210.829 
       0.503198         450.522         205.254 
       0.509342          446.97         200.031 
       0.515458         442.734         195.088 
       0.521598         430.892         190.312 
       0.527764         424.632         185.651 
       0.533884         421.893         181.138 
           0.54          416.47         176.721 
       0.546137         414.137         172.372 
       0.552299         406.884         168.117 
       0.558452         404.402         164.013 
       0.564573         399.038         160.098 
       0.570708         392.907         156.346 
       0.576825         383.871         152.755 
       0.582926         383.116         149.306 
       0.589034         379.506         145.967 
       0.595184         376.536         142.708 
       0.601379         370.081         139.519 
       0.607522         365.268          136.44 
       0.613639          363.98         133.448 
       0.619772           356.8         130.524 
       0.625918         355.194         127.677 
       0.632068         349.391         124.918 
       0.638161         347.952         122.277 
         0.6443          342.51         119.709 
       0.650464         339.746         117.216 
       0.656582         336.404         114.817 
       0.662703          335.96         112.483 
       0.668861          330.42         110.196 
       0.675024         327.176         107.963 
       0.681124         324.453         105.812 
       0.687237         321.571         103.712 
       0.693381         316.804         101.661 
       0.699536         313.218         99.6639 
       0.705665         311.231         97.7328 
       0.711789         309.942         95.8574 
       0.717957         307.421         94.0203 
        0.72409          304.96         92.2425 
       0.730186         300.888         90.5216 
       0.736317         298.291         88.8345 
       0.742472         296.291         87.1833 
       0.748622         293.722         85.5751 
        0.75476          290.29         84.0107 
       0.760888         287.317         82.4878 
       0.767043         287.434         80.9972 
       0.773185         284.252         79.5472 
       0.779291         279.993         78.1419 
       0.785407         279.449         76.7693 
       0.791564         276.109         75.4217 
       0.797719          273.67         74.1077 
       0.803834         271.001         72.8337 
       0.809972         270.507         71.5853 
       0.816124         269.504         70.3636 
       0.822261         266.622         69.1736 
       0.828378         264.287         68.0147 
       0.834502         261.953         66.8814 
       0.840667         259.959         65.7667 
       0.846816         258.562         64.6806 
       0.852925         257.091          63.626 
       0.859047         254.947         62.5929 
       0.865192         251.762         61.5795 
       0.871341         249.918         60.5882 
       0.877463         249.329         59.6234 
       0.883569         247.784         58.6822 
       0.889708         244.979         57.7568 
       0.895864         243.598         56.8491 
       0.902008         241.645         55.9631 
       0.908149         240.068         55.0966 
       0.914301         237.463         54.2472 
       0.920448         236.315         53.4166 
       0.926574         233.895         52.6065 
       0.932687         234.009          51.815 
       0.938823          231.26         51.0371 
       0.944975         230.444         50.2734 
       0.951105         228.884         49.5283 
       0.957225          227.44         48.7996 
       0.963368         224.252         48.0832 
       0.969511         223.538         47.3813 
       0.975621         221.575         46.6972 
       0.981748         221.098          46.025 
       0.987916         219.556         45.3619 
        0.99406           217.1         44.7144 
        1.00019         216.547         44.0809 
        1.00632         215.131         43.4603 
        1.01246         213.402         42.8508 
        1.01859         213.686         42.2541 
        1.02471          210.12         41.6695 
        1.03085         209.031         41.0941 
        1.03698         208.026         40.5308 
        1.04314         206.089         39.9757 
        1.04929         205.031         39.4324 
        1.05541         205.134         38.9014 
        1.06154          202.25         38.3789 
        1.06769         201.947         37.8653 
        1.07382         200.269         37.3629 
        1.07993         198.989         36.8707 
        1.08607         198.592         36.3854 
        1.09222         196.872         35.9084 
        1.09836         195.424         35.4406 
        1.10449          193.61         34.9817 
        1.11063         192.211         34.5305 
        1.11677         191.692         34.0874 
         1.1229         190.099         33.6529 
        1.12903         189.432         33.2257 
        1.13518         188.164         32.8056 
        1.14131         186.591          32.393 
        1.14745         186.589         31.9877 
        1.15359         184.887         31.5894 
        1.15973         183.361         31.1977 
        1.16584           182.4         30.8145 
        1.17197         182.248         30.4372 
        1.17811         180.045         30.0651 
        1.18424         179.347         29.7003 
        1.19038         178.935         29.3406 
        1.19652         177.316          28.987 
        1.20267         176.796         28.6392 
        1.20881         175.418         28.2972 
        1.21495         174.332         27.9614 
        1.22108         173.247         27.6311 
         1.2272         172.094          27.307 
        1.23334         171.735         26.9873 
        1.23949         170.022          26.672 
        1.24562         169.308         26.3627 
        1.25174         168.519         26.0587 
        1.25789         167.406         25.7586 
        1.26402         165.768         25.4638 
        1.27014         164.748         25.1744 
        1.27628         164.256         24.8886 
        1.28244         164.111         24.6067 
        1.28858         162.327         24.3296 
        1.29471         161.243         24.0574 
        1.30084         160.792         23.7896 
        1.30697         159.227         23.5255 
        1.31312         158.347          23.265 
        1.31925         157.506         23.0093 
        1.32537           157.2         22.7578 
        1.33151         155.715         22.5091 
        1.33765         154.705         22.2642 
        1.34378         154.259         22.0236 
        1.34992          153.51         21.7863 
        1.35606         153.321          21.552 
         1.3622          151.61         21.3216 
        1.36833         150.524         21.0951 
        1.37445         150.073         20.8721 
        1.38059         148.807         20.6516 
        1.38675         148.355         20.4338 
        1.39288         147.569           20.22 
        1.39901         147.238         20.0093 
        1.40515         145.584         19.8013 
         1.4113         145.186         19.5962 
        1.41742         144.012         19.3949 
        1.42355         143.446          19.196 
         1.4297         142.505         18.9993 
        1.43585         141.802         18.8055 
        1.44198         141.144         18.6151 
        1.44809         140.507         18.4277 
        1.45423         139.896         18.2423 
        1.46036         138.676         18.0597 
        1.46649          137.89         17.8795 
        1.47263         137.138         17.7017 
        1.47877         136.219         17.5264 
        1.48491         135.108         17.3532 
        1.49104         135.091         17.1827 
        1.49718         133.926         17.0144 
        1.50333         133.239         16.8481 
        1.50947         132.576         16.6843 
         1.5156         131.978          16.523 
        1.52172         131.243         16.3638 
        1.52787         130.219         16.2064 
          1.534         129.807         16.0512 
        1.54013         129.156         15.8982 
        1.54627          128.44          15.747 
        1.55241         127.549         15.5977 
        1.55855         126.831         15.4506 
        1.56467         126.098         15.3058 
         1.5708         125.215         15.1624 
        1.57695         124.945         15.0206 
        1.58308         124.327          14.881 
        1.58922         123.814         14.7431 
        1.59535         122.925          14.607 
         1.6015         122.541         14.4724 
        1.60764          121.84         14.3396 
        1.61376         121.016         14.2088 
        1.61989         120.341         14.0796 
        1.62604         119.499         13.9517 
        1.63218         119.426         13.8254 
        1.63831         118.483          13.701 
        1.64444         117.824         13.5781 
        1.65059          117.22         13.4565 
        1.65673         116.457         13.3364 
        1.66285          116.08         13.2182 
        1.66898         115.374         13.1013 
        1.67512          114.82         12.9857 
        1.68127         114.176         12.8713 
         1.6874         113.392         12.7586 
        1.69353          113.13         12.6473 
        1.69967         112.501          12.537 
        1.70581         111.715         12.4281 
        1.71193         111.209          12.321 
        1.71806         110.776         12.2148 
        1.72421         110.107         12.1098 
        1.73035         109.825          12.006 
        1.73649         109.062         11.9036 
        1.74262         108.351         11.8023 
        1.74876         107.996         11.7022 
        1.75489         107.219         11.6035 
        1.76101         106.551          11.506 
        1.76715         106.146         11.4094 
        1.77329         105.734         11.3138 
        1.77943         104.993         11.2193 
        1.78557         104.704          11.126 
        1.79171         103.759         11.0337 
        1.79785         103.319         10.9425 
        1.80399         102.693         10.8523 
        1.81012          102.29         10.7633 
        1.81625          101.86         10.6753 
        1.82239         101.388         10.5882 
        1.82853          100.69         10.5021 
        1.83466          100.16          10.417 
        1.84078         99.7284         10.3329 
        1.84692         99.0261         10.2497 
        1.85306         98.7462         10.1673 
         1.8592         98.2016         10.0859 
        1.86533         97.4848         10.0054 
        1.87147          97.053         9.92575 
        1.87761         96.4716         9.84692 
        1.88375         95.9973         9.76904 
        1.88988         95.5903         9.69208 
        1.89601          94.965         9.61592 
        1.90215         94.4252         9.54051 
        1.90829         94.1373         9.46595 
        1.91442         93.6679         9.39218 
        1.92056         92.9769         9.31927 
         1.9267         92.7277         9.24706 
        1.93284         92.2112         9.17557 
        1.93897         91.6369         9.10497 
        1.94509         91.3414         9.03528 
        1.95123         90.7843         8.96613 
        1.95737         90.2693         8.89766 
        1.96349         89.8205         8.83009 
        1.96964         89.1247         8.76302 
        1.97578         88.7777         8.69662 
        1.98192         88.6433         8.63104 
        1.98805         87.9796         8.56614 
        1.99419         87.6622          8.5019 
        2.00033         87.1368         8.43828 
        2.00647         86.8029         8.37534 
         2.0126         86.2542         8.31314 
        2.01874         85.6288         8.25149 
        2.02488         85.4672          8.1904 
        2.03101         84.8034         8.13005 
        2.03714         84.2655         8.07036 
        2.04328         84.0274          8.0112 
        2.04941           83.61         7.95268 
        2.05554         83.1628          7.8948 
        2.06167         82.8138         7.83741 
        2.06781         82.2302         7.78058 
        2.07396         81.9417         7.72424 
        2.08009         81.6117         7.66856 
        2.08622         81.0591         7.61348 
        2.09237         80.7685         7.55885 
        2.09851         80.3877         7.50474 
        2.10464          79.911         7.45125 
        2.11077         79.5006         7.39834 
        2.11691         79.2014         7.34584 
        2.12305         78.6798         7.29384 
        2.12918         78.2744         7.24247 
        2.13531         77.9212         7.19159 
        2.14145         77.4103         7.14108 
         2.1476         76.9904         7.09101 
        2.15372         76.7584         7.04166 
        2.15985         76.3319         6.99273 
        2.16599         75.8613         6.94413 
        2.17213         75.5879         6.89604 
        2.17827         75.1384         6.84842 
         2.1844           74.75          6.8013 
        2.19054           74.53          6.7546 
        2.19666          74.111         6.70841 
         2.2028         73.8259          6.6626 
        2.20893         73.3666         6.61721 
        2.21508         72.9999         6.57218 
        2.22122         72.6171         6.52757 
        2.22736         72.3045         6.48345 
        2.23349         71.8796         6.43976 
        2.23962         71.6174         6.39645 
        2.24577          71.289          6.3535 
         2.2519         70.9559           6.311 
        2.25802         70.5879         6.26897 
        2.26417         70.2011         6.22719 
        2.27031         69.8801         6.18576 
        2.27644         69.3936         6.14483 
        2.28257          69.124         6.10427 
        2.28872         68.8632         6.06401 
        2.29486         68.3832         6.02411 
        2.30099         67.8412         5.98465 
        2.30712         67.7762         5.94554 
        2.31326         67.4064          5.9067 
         2.3194         67.1025         5.86823 
        2.32553         66.8049         5.83018 
        2.33166         66.4676         5.79247 
         2.3378         66.0637         5.75505 
        2.34394         65.6886         5.71795 
        2.35007         65.4623         5.68122 
        2.35619         65.1673         5.64487 
        2.36233         64.7988         5.60874 
        2.36848         64.5251         5.57286 
        2.37462         64.0932         5.53737 
        2.38075         63.9108         5.50222 
        2.38689         63.5495         5.46735 
        2.39303         63.1653         5.43279 
        2.39916         62.8881         5.39856 
        2.40529         62.7652         5.36463 
        2.41143          62.242         5.33097 
        2.41757         62.0201         5.29758 
         2.4237         61.7289         5.26454 
        2.42983         61.4357         5.23178 
        2.43598         61.0682         5.19922 
        2.44211         60.8019         5.16699 
        2.44823         60.5226          5.1351 
        2.45437         60.1831          5.1034 
        2.46052         59.9864         5.07193 
        2.46665         59.7024         5.04079 
        2.47279         59.3013         5.00992 
        2.47892         59.1315         4.97929 
        2.48507         58.7274         4.94889 
         2.4912         58.4445          4.9188 
