# k  (h/Mpc)    Pcb(k)  (Mpc/h)^3    Pcb_linear(k)  (Mpc/h)^3
     0.00783031         2534.34         2561.77 
       0.013688         3094.81          3093.5 
       0.019231         3049.05          3046.3 
      0.0249154         2698.91         2718.91 
      0.0312784         2250.02         2252.07 
      0.0375637         1846.69         1838.93 
      0.0433917         1552.08         1554.43 
      0.0492413         1368.09         1365.02 
      0.0555754         1232.07         1240.07 
      0.0619321         1165.54         1158.16 
       0.067871          1082.1         1088.02 
      0.0738098         998.501         1004.51 
      0.0800417         889.908         898.257 
      0.0862327         781.328         783.489 
      0.0921407         682.189         679.879 
      0.0982031         592.079         591.717 
       0.104506         533.146          525.46 
       0.110769         490.252         483.795 
       0.116806         462.665         460.101 
       0.122832         448.383         444.229 
       0.129052         427.384         427.642 
       0.135211         405.108         405.358 
       0.141259         379.348         376.405 
       0.147318         347.976         342.759 
       0.153489         312.549         308.214 
       0.159709         283.785         277.586 
       0.165845           263.3         254.151 
       0.171974         244.668         237.935 
       0.178125         234.604         227.526 
       0.184229         227.543         220.592 
        0.19034          217.44          214.38 
       0.196428         212.083         206.815 
       0.202534         204.111         196.849 
       0.208729         190.872         184.558 
       0.214876         177.114          171.39 
       0.220989         166.881         158.826 
       0.227147         154.883         147.929 
        0.23329         146.654         139.412 
       0.239377         141.376          133.22 
       0.245482           134.4         128.688 
       0.251667          132.23         124.949 
       0.257832         128.208         121.226 
       0.263955          123.67         116.967 
       0.270079         118.609         111.952 
        0.27624         114.526         106.337 
       0.282372         109.051         100.611 
        0.28843         103.368         95.2687 
       0.294538         98.5444         90.5561 
       0.300721         95.7852         86.6105 
        0.30691         91.5327         83.4398 
       0.313033         88.9171         80.8401 
       0.319153         85.1458         78.5018 
       0.325316          83.944         76.1403 
        0.33145         80.8225         73.6315 
       0.337538         78.6579         70.9341 
       0.343633         75.5578          68.114 
       0.349808         73.0075         65.2638 
       0.355968         70.6513         62.5809 
       0.362074         68.1424         60.1817 
       0.368217         66.0016         58.0666 
       0.374374         63.9729         56.2232 
       0.380519         62.4464         54.5765 
       0.386598         60.8046         53.0532 
       0.392688         59.5569         51.5484 
        0.39888         57.7908         49.9874 
       0.405048         56.3127         48.3988 
       0.411186         54.8475         46.8008 
       0.417313         53.0062          45.235 
       0.423458         51.5586          43.743 
       0.429607         50.1296         42.3538 
       0.435692         48.4938         41.0936 
       0.441815         47.7045         39.9355 
       0.447964         46.8677         38.8523 
       0.454126         44.9638         37.8175 
       0.460267         44.2476          36.814 
       0.466387          42.992         35.8241 
        0.47254           42.27           34.83 
       0.478662         41.5237         33.8538 
       0.484765         40.2205         32.9068 
       0.490885         39.2991          31.994 
       0.497035         38.7711         31.1213 
       0.503198          37.697         30.2987 
       0.509342         36.7212         29.5274 
       0.515458         35.9763         28.7979 
       0.521598         35.3603         28.0928 
       0.527764         34.6198         27.4049 
       0.533884         34.0362         26.7387 
           0.54         33.2577         26.0866 
       0.546137         32.7439         25.4447 
       0.552299         32.1912         24.8166 
       0.558452         31.1997         24.2108 
       0.564573         30.7079         23.6329 
       0.570708         30.2105          23.079 
       0.576825          29.497          22.549 
       0.582926         28.9071         22.0398 
       0.589034         28.1794         21.5469 
       0.595184         27.8192         21.0658 
       0.601379         27.2832         20.5952 
       0.607522         26.7663         20.1406 
       0.613639         26.5052          19.699 
       0.619772         25.8132         19.2673 
       0.625918         25.6564         18.8471 
       0.632068         25.2396         18.4398 
       0.638161            24.7         18.0499 
         0.6443          24.215         17.6709 
       0.650464         23.7808         17.3029 
       0.656582         23.6233         16.9487 
       0.662703         23.1659         16.6042 
       0.668861           22.73         16.2665 
       0.675024         22.3326         15.9371 
       0.681124         21.9426         15.6194 
       0.687237         21.5753         15.3095 
       0.693381          21.384         15.0067 
       0.699536         20.8285         14.7119 
       0.705665         20.7599         14.4269 
       0.711789          20.292           14.15 
       0.717957         20.0096         13.8789 
        0.72409          19.718         13.6164 
       0.730186         19.4361         13.3624 
       0.736317         19.2248         13.1133 
       0.742472         18.8925         12.8696 
       0.748622         18.6919         12.6322 
        0.75476         18.3543         12.4013 
       0.760888         18.0816         12.1765 
       0.767043         17.8615         11.9564 
       0.773185         17.5439         11.7424 
       0.779291         17.4499          11.535 
       0.785407          17.237         11.3323 
       0.791564         16.9287         11.1334 
       0.797719         16.5485         10.9395 
       0.803834         16.5251         10.7514 
       0.809972         16.3659         10.5671 
       0.816124          15.997         10.3868 
       0.822261         15.8244         10.2111 
       0.828378         15.6618           10.04 
       0.834502          15.517         9.87275 
       0.840667         15.2889          9.7082 
       0.846816         15.0112         9.54787 
       0.852925         14.8686          9.3922 
       0.859047         14.7054          9.2397 
       0.865192         14.5635         9.09011 
       0.871341          14.442         8.94377 
       0.877463         14.1816         8.80135 
       0.883569         14.0033         8.66242 
       0.889708         13.7885         8.52581 
       0.895864         13.6711         8.39183 
       0.902008          13.569         8.26103 
       0.908149         13.4188         8.13313 
       0.914301         13.3178         8.00774 
       0.920448          13.071         7.88514 
       0.926574          12.947         7.76555 
       0.932687         12.8034         7.64872 
       0.938823         12.6347         7.53388 
       0.944975         12.4958         7.42116 
       0.951105          12.376         7.31116 
       0.957225         12.2709         7.20359 
       0.963368         12.1568         7.09784 
       0.969511         12.0374         6.99423 
       0.975621         11.9151         6.89325 
       0.981748          11.756         6.79402 
       0.987916         11.6853         6.69613 
        0.99406         11.5152         6.60055 
        1.00019         11.3505         6.50704 
        1.00632         11.3199         6.41543 
        1.01246         11.2053         6.32546 
        1.01859         11.0234         6.23738 
        1.02471         10.9779         6.15109 
        1.03085         10.8627         6.06614 
        1.03698         10.6953         5.98299 
        1.04314         10.6376         5.90105 
        1.04929         10.5027         5.82085 
        1.05541         10.3865         5.74247 
        1.06154          10.319         5.66535 
        1.06769         10.2672         5.58953 
        1.07382         10.1181         5.51535 
        1.07993          10.039          5.4427 
        1.08607         9.94678         5.37107 
        1.09222         9.86846         5.30066 
        1.09836         9.74949          5.2316 
        1.10449          9.6745         5.16386 
        1.11063         9.56724         5.09725 
        1.11677         9.52587         5.03185 
         1.1229         9.46214         4.96771 
        1.12903         9.33506         4.90465 
        1.13518         9.22298         4.84263 
        1.14131         9.17809         4.78172 
        1.14745          9.0909         4.72191 
        1.15359         9.02987         4.66311 
        1.15973         8.94163         4.60529 
        1.16584         8.81468         4.54872 
        1.17197          8.7693         4.49302 
        1.17811         8.72129         4.43809 
        1.18424         8.63824         4.38424 
        1.19038         8.60258         4.33114 
        1.19652         8.50202         4.27894 
        1.20267         8.42105         4.22761 
        1.20881          8.3924         4.17713 
        1.21495         8.32347         4.12756 
        1.22108         8.22108          4.0788 
         1.2272         8.16492         4.03095 
        1.23334         8.08574         3.98376 
        1.23949         8.01435         3.93722 
        1.24562         7.97892         3.89155 
        1.25174          7.9187         3.84668 
        1.25789         7.85535         3.80239 
        1.26402         7.81798         3.75887 
        1.27014         7.74724         3.71614 
        1.27628         7.65233         3.67396 
        1.28244         7.58985         3.63235 
        1.28858         7.58664         3.59144 
        1.29471         7.49677         3.55126 
        1.30084         7.42346         3.51173 
        1.30697         7.41213         3.47274 
        1.31312         7.30349         3.43429 
        1.31925         7.25195         3.39655 
        1.32537         7.21422         3.35941 
        1.33151         7.17873          3.3227 
        1.33765         7.10974         3.28656 
        1.34378         7.05782         3.25103 
        1.34992         7.00531         3.21601 
        1.35606         6.95887         3.18142 
         1.3622          6.9191         3.14741 
        1.36833         6.85247         3.11398 
        1.37445          6.8162         3.08106 
        1.38059         6.78763         3.04851 
        1.38675          6.7229         3.01636 
        1.39288         6.69578          2.9848 
        1.39901         6.61742          2.9537 
        1.40515         6.58928         2.92299 
         1.4113         6.54274         2.89272 
        1.41742         6.49574           2.863 
        1.42355         6.44015         2.83364 
         1.4297         6.41086         2.80461 
        1.43585         6.37935           2.776 
        1.44198         6.34706         2.74789 
        1.44809         6.29216         2.72023 
        1.45423         6.24341         2.69285 
        1.46036         6.19698          2.6659 
        1.46649         6.16881         2.63931 
        1.47263         6.11133         2.61306 
        1.47877         6.07477         2.58719 
        1.48491         6.04434         2.56162 
        1.49104         6.00426         2.53645 
        1.49718         5.97105          2.5116 
        1.50333         5.93645         2.48705 
        1.50947         5.88641         2.46288 
         1.5156         5.85786         2.43906 
        1.52172         5.82809         2.41556 
        1.52787         5.78717         2.39232 
          1.534         5.74206         2.36942 
        1.54013         5.71648         2.34684 
        1.54627         5.66827         2.32452 
        1.55241         5.63895         2.30248 
        1.55855          5.6168         2.28076 
        1.56467         5.57134         2.25938 
         1.5708         5.55253         2.23822 
        1.57695          5.5043         2.21729 
        1.58308         5.46139         2.19669 
        1.58922         5.44972         2.17633 
        1.59535          5.4241         2.15623 
         1.6015         5.37325         2.13637 
        1.60764         5.33562         2.11676 
        1.61376         5.32086         2.09746 
        1.61989         5.28789         2.07838 
        1.62604         5.25405          2.0595 
        1.63218         5.24144         2.04086 
        1.63831         5.20116          2.0225 
        1.64444         5.17543         2.00436 
        1.65059         5.11973         1.98639 
        1.65673         5.12463         1.96867 
        1.66285         5.07015         1.95122 
        1.66898         5.04558         1.93397 
        1.67512         5.02334          1.9169 
        1.68127         4.99121         1.90001 
         1.6874         4.97357         1.88337 
        1.69353         4.92952         1.86694 
        1.69967         4.91559         1.85067 
        1.70581         4.89156          1.8346 
        1.71193         4.85506         1.81878 
        1.71806         4.83869         1.80311 
        1.72421         4.80606          1.7876 
        1.73035         4.79019         1.77229 
        1.73649         4.76146         1.75716 
        1.74262         4.73041         1.74222 
        1.74876         4.71542         1.72744 
        1.75489         4.68967         1.71287 
        1.76101         4.65362         1.69847 
        1.76715         4.63951         1.68421 
        1.77329         4.61068          1.6701 
        1.77943         4.57715         1.65615 
        1.78557          4.5677         1.64238 
        1.79171         4.54128         1.62876 
        1.79785         4.51531         1.61529 
        1.80399         4.48979         1.60198 
        1.81012         4.46922         1.58884 
        1.81625         4.44811         1.57585 
        1.82239         4.42921         1.56299 
        1.82853         4.39927         1.55028 
        1.83466         4.38107         1.53772 
        1.84078         4.36323         1.52531 
        1.84692         4.35167         1.51302 
        1.85306         4.31527         1.50086 
         1.8592         4.28919         1.48884 
        1.86533         4.27277         1.47697 
        1.87147         4.25491         1.46521 
        1.87761         4.23259         1.45357 
        1.88375         4.20754         1.44207 
        1.88988         4.19336         1.43071 
        1.89601         4.17164         1.41947 
        1.90215         4.15086         1.40834 
        1.90829         4.12763         1.39733 
        1.91442         4.11045         1.38644 
        1.92056         4.09408         1.37568 
         1.9267         4.06669         1.36502 
        1.93284         4.05138         1.35447 
        1.93897         4.02982         1.34405 
        1.94509         4.01784         1.33376 
        1.95123         3.99583         1.32355 
        1.95737         3.96902         1.31344 
        1.96349         3.96027         1.30347 
        1.96964         3.94227         1.29357 
        1.97578         3.91438         1.28377 
        1.98192         3.90662         1.27409 
        1.98805         3.88794          1.2645 
        1.99419         3.86581         1.25502 
        2.00033         3.85699         1.24563 
        2.00647         3.83266         1.23634 
         2.0126         3.82235         1.22716 
        2.01874          3.7962         1.21806 
        2.02488         3.78724         1.20904 
        2.03101         3.75961         1.20013 
        2.03714         3.74189         1.19132 
        2.04328         3.72831         1.18259 
        2.04941         3.70672         1.17395 
        2.05554          3.6956          1.1654 
        2.06167         3.67965         1.15693 
        2.06781         3.66438         1.14854 
        2.07396         3.65487         1.14023 
        2.08009         3.63549         1.13201 
        2.08622         3.61557         1.12388 
        2.09237         3.59829         1.11581 
        2.09851         3.59118         1.10782 
        2.10464         3.57489         1.09993 
        2.11077         3.55115         1.09212 
        2.11691         3.53627         1.08437 
        2.12305         3.52743         1.07669 
        2.12918         3.51734         1.06911 
        2.13531         3.50026          1.0616 
        2.14145         3.48416         1.05414 
         2.1476         3.46524         1.04675 
        2.15372         3.44974         1.03947 
        2.15985         3.44964         1.03224 
        2.16599         3.42074         1.02507 
        2.17213         3.40864         1.01797 
        2.17827         3.40099         1.01094 
         2.1844         3.38327         1.00399 
        2.19054          3.3665        0.997092 
        2.19666         3.35247        0.990273 
         2.2028         3.33892        0.983512 
        2.20893         3.32752        0.976811 
        2.21508         3.31198        0.970165 
        2.22122         3.29623        0.963578 
        2.22736         3.28647        0.957067 
        2.23349         3.27763        0.950617 
        2.23962         3.26151        0.944223 
        2.24577         3.24897        0.937883 
         2.2519         3.24132         0.93161 
        2.25802         3.22298        0.925405 
        2.26417         3.21337        0.919238 
        2.27031         3.19719        0.913123 
        2.27644         3.18113         0.90708 
        2.28257         3.16666        0.901093 
        2.28872         3.16503        0.895149 
        2.29486         3.14756         0.88926 
        2.30099         3.13175        0.883436 
        2.30712         3.12088        0.877661 
        2.31326         3.10532        0.871928 
         2.3194         3.09738         0.86625 
        2.32553         3.08902        0.860632 
        2.33166         3.07849        0.855066 
         2.3378         3.06291        0.849542 
        2.34394         3.05241        0.844065 
        2.35007         3.03807        0.838644 
        2.35619         3.03096        0.833277 
        2.36233         3.01763        0.827945 
        2.36848         3.00281        0.822648 
        2.37462         2.99979        0.817409 
        2.38075         2.98327        0.812221 
        2.38689         2.97798        0.807073 
        2.39303         2.96072        0.801971 
        2.39916         2.95089        0.796918 
        2.40529         2.94052         0.79191 
        2.41143         2.92927        0.786941 
        2.41757         2.92311        0.782012 
         2.4237         2.91193        0.777135 
        2.42983         2.89183        0.772299 
        2.43598         2.88582        0.767492 
        2.44211         2.87235        0.762735 
        2.44823         2.86567        0.758028 
        2.45437         2.85343        0.753348 
        2.46052         2.84742        0.748703 
        2.46665         2.83696        0.744106 
        2.47279         2.82287         0.73955 
        2.47892         2.81472        0.735028 
        2.48507         2.80558         0.73054 
         2.4912         2.79085        0.726098 
