# k  (h/Mpc)    P(k)  (Mpc/h)^3    P_linear(k)  (Mpc/h)^3
     0.00783031         4805.07         4868.12 
       0.013688         6137.51         6122.59 
       0.019231         6321.26         6318.49 
      0.0249154         5880.69         5952.64 
      0.0312784         5216.12         5243.14 
      0.0375637         4513.73         4507.69 
      0.0433917         3897.28         3929.23 
      0.0492413         3483.06         3489.42 
      0.0555754         3111.72         3156.76 
      0.0619321         2939.07         2924.17 
       0.067871         2714.01          2747.5 
      0.0738098         2536.43         2570.93 
      0.0800417         2315.78         2363.86 
      0.0862327         2108.94         2136.21 
      0.0921407         1906.12         1914.07 
      0.0982031         1688.49         1702.08 
       0.104506         1536.46         1516.85 
       0.110769         1395.92         1376.52 
       0.116806          1290.4         1280.22 
       0.122832         1229.91         1212.81 
       0.129052          1159.3         1159.86 
       0.135211            1110         1110.72 
       0.141259         1065.39         1056.32 
       0.147318         1006.95         992.136 
       0.153489          927.47         918.865 
       0.159709         862.538         843.069 
       0.165845         808.179         773.344 
       0.171974         745.287         714.022 
       0.178125         702.299         667.189 
       0.184229         670.244         632.605 
        0.19034         629.544         606.904 
       0.196428          618.84         586.102 
       0.202534         602.945         566.027 
       0.208729         575.193         543.454 
       0.214876         544.919         517.636 
       0.220989         525.646         489.164 
       0.227147         492.544         459.516 
        0.23329          467.98         431.212 
       0.239377         451.168         406.257 
       0.245482         420.717         385.311 
       0.251667         413.256         368.278 
       0.257832         399.196         354.662 
       0.263955         386.046          343.19 
       0.270079         373.365         332.396 
        0.27624         367.575         321.144 
       0.282372         353.218         309.024 
        0.28843         340.438         296.149 
       0.294538         325.227         282.754 
       0.300721         319.697         269.463 
        0.30691         304.081         257.109 
       0.313033         295.782         246.251 
       0.319153          283.43         236.885 
       0.325316         276.867         228.785 
        0.33145          267.91         221.676 
       0.337538         263.901         215.117 
       0.343633         255.402         208.667 
       0.349808         247.726         201.981 
       0.355968         243.042         195.107 
       0.362074         236.166          188.16 
       0.368217         229.571         181.251 
       0.374374         222.186         174.616 
       0.380519         217.577         168.459 
       0.386598         211.866          162.92 
       0.392688         208.647         157.894 
        0.39888         203.163         153.246 
       0.405048         198.689          148.93 
       0.411186         194.274           144.8 
       0.417313           189.9         140.747 
       0.423458         185.929         136.681 
       0.429607         181.361         132.617 
       0.435692         175.784         128.649 
       0.441815         174.383         124.763 
       0.447964         171.303         121.032 
       0.454126         163.906         117.518 
       0.460267             162         114.242 
       0.466387         159.499         111.184 
        0.47254         156.444         108.289 
       0.478662         154.688         105.537 
       0.484765         150.382         102.874 
       0.490885         147.883         100.257 
       0.497035          145.93         97.6753 
       0.503198         141.991         95.1343 
       0.509342         139.455         92.6587 
       0.515458         137.486         90.2739 
       0.521598         135.612         87.9788 
       0.527764         133.489         85.7787 
       0.533884         131.234         83.6941 
           0.54          128.99         81.7047 
       0.546137         127.827         79.7914 
       0.552299         125.803         77.9376 
       0.558452         123.026         76.1388 
       0.564573         120.815         74.3898 
       0.570708         119.314         72.6784 
       0.576825         117.538         71.0165 
       0.582926           115.4         69.4056 
       0.589034         113.329         67.8413 
       0.595184         112.076         66.3177 
       0.601379         110.821         64.8374 
       0.607522         108.096         63.4243 
       0.613639         107.914         62.0674 
       0.619772         105.417         60.7511 
       0.625918         104.459         59.4705 
       0.632068         103.196         58.2224 
       0.638161         101.969          57.017 
         0.6443         100.578         55.8341 
       0.650464         99.2813         54.6786 
       0.656582         98.0757         53.5637 
       0.662703         96.2329           52.48 
       0.668861         95.2334         51.4209 
       0.675024         94.1064         50.3915 
       0.681124         92.9373         49.4021 
       0.687237         91.3113          48.439 
       0.693381           90.41         47.4988 
       0.699536          89.202         46.5828 
       0.705665         89.6281         45.6952 
       0.711789         87.1455         44.8313 
       0.717957         86.6365         43.9829 
        0.72409         85.4072         43.1602 
       0.730186          83.988         42.3627 
       0.736317         83.8162         41.5807 
       0.742472         82.7214         40.8156 
       0.748622         82.0124          40.071 
        0.75476         81.0862         39.3473 
       0.760888         79.9296         38.6435 
       0.767043         79.1681         37.9547 
       0.773185         78.2338         37.2847 
       0.779291         77.7094         36.6348 
       0.785407         77.0265         35.9996 
       0.791564         75.9673         35.3754 
       0.797719         74.9088          34.766 
       0.803834         74.6374         34.1747 
       0.809972         73.3586         33.5949 
       0.816124         72.7632         33.0273 
       0.822261         72.2496         32.4743 
       0.828378         71.6357         31.9358 
       0.834502         70.8782         31.4092 
       0.840667         70.2576         30.8913 
       0.846816         69.3759         30.3867 
       0.852925         68.7607         29.8966 
       0.859047         67.8736         29.4166 
       0.865192         67.5798         28.9455 
       0.871341         67.1623         28.4846 
       0.877463         65.9558         28.0359 
       0.883569         65.5655          27.598 
       0.889708         65.2211         27.1673 
       0.895864         64.6039         26.7446 
       0.902008         64.0422         26.3319 
       0.908149         63.5745         25.9282 
       0.914301         63.0215         25.5324 
       0.920448         62.3984         25.1452 
       0.926574          61.908         24.7674 
       0.932687         61.4712         24.3982 
       0.938823         60.5318         24.0353 
       0.944975         60.4075          23.679 
       0.951105         59.7936         23.3312 
       0.957225         59.0607          22.991 
       0.963368         58.9623         22.6566 
       0.969511         58.5244         22.3288 
       0.975621         58.0499         22.0092 
       0.981748         57.3966         21.6952 
       0.987916         57.0797         21.3853 
        0.99406         56.7447         21.0827 
        1.00019         56.0018         20.7866 
        1.00632          55.788         20.4965 
        1.01246         55.2867         20.2115 
        1.01859         54.6259         19.9324 
        1.02471         54.7542          19.659 
        1.03085         54.1264         19.3897 
        1.03698         53.5957         19.1262 
        1.04314          53.086         18.8664 
        1.04929          52.872         18.6121 
        1.05541         52.3079         18.3635 
        1.06154         52.2279         18.1188 
        1.06769         51.7314         17.8783 
        1.07382         51.4254          17.643 
        1.07993         51.2258         17.4124 
        1.08607         50.6474          17.185 
        1.09222         50.4569         16.9615 
        1.09836         50.0435         16.7422 
        1.10449         49.6873         16.5271 
        1.11063         49.1144         16.3155 
        1.11677         48.8844         16.1077 
         1.1229         48.7206         15.9039 
        1.12903         48.0288         15.7035 
        1.13518          48.049         15.5064 
        1.14131         47.8602         15.3128 
        1.14745         47.2297         15.1226 
        1.15359         47.1452         14.9356 
        1.15973         46.6122         14.7517 
        1.16584         46.3035         14.5718 
        1.17197          46.179         14.3946 
        1.17811         45.8078         14.2198 
        1.18424         45.3658         14.0484 
        1.19038         45.3231         13.8794 
        1.19652         45.0503         13.7132 
        1.20267         44.7079         13.5498 
        1.20881         44.3706         13.3891 
        1.21495         44.0613         13.2312 
        1.22108         43.8055          13.076 
         1.2272         43.3441         12.9236 
        1.23334         43.2345         12.7732 
        1.23949          43.091          12.625 
        1.24562         42.7944         12.4795 
        1.25174         42.5831         12.3365 
        1.25789         42.3032         12.1953 
        1.26402         42.0036         12.0566 
        1.27014         41.6372         11.9204 
        1.27628            41.5         11.7859 
        1.28244         41.1847         11.6533 
        1.28858          41.048         11.5228 
        1.29471         40.8672         11.3947 
        1.30084         40.6113         11.2686 
        1.30697         40.2711         11.1443 
        1.31312         39.9576         11.0216 
        1.31925         39.8647         10.9012 
        1.32537         39.6641         10.7827 
        1.33151         39.3751         10.6656 
        1.33765         39.3219         10.5502 
        1.34378         39.0824         10.4368 
        1.34992         38.5653          10.325 
        1.35606         38.4288         10.2146 
         1.3622         38.2232          10.106 
        1.36833         38.0418         9.99925 
        1.37445         38.0166          9.8941 
        1.38059          37.774         9.79014 
        1.38675         37.4259         9.68744 
        1.39288         37.3255         9.58661 
        1.39901         36.9946         9.48728 
        1.40515         36.8544         9.38913 
         1.4113         36.7468         9.29241 
        1.41742         36.3458         9.19742 
        1.42355         36.2986         9.10359 
         1.4297         36.0345         9.01078 
        1.43585         35.9914         8.91931 
        1.44198         35.6692         8.82947 
        1.44809         35.5114         8.74103 
        1.45423         35.3918         8.65348 
        1.46036         35.2444         8.56729 
        1.46649          34.975         8.48225 
        1.47263         34.8171          8.3983 
        1.47877          34.688         8.31552 
        1.48491         34.4857         8.23373 
        1.49104         34.3419         8.15322 
        1.49718         34.0218         8.07373 
        1.50333         33.9693         7.99517 
        1.50947         33.7869         7.91782 
         1.5156         33.5774         7.84161 
        1.52172         33.3524          7.7664 
        1.52787         33.3852         7.69203 
          1.534          33.074         7.61872 
        1.54013         32.8648         7.54645 
        1.54627         32.8215         7.47498 
        1.55241         32.6066         7.40443 
        1.55855         32.4267          7.3349 
        1.56467         32.2359         7.26644 
         1.5708         32.1703         7.19867 
        1.57695         31.8573         7.13167 
        1.58308          31.923         7.06567 
        1.58922         31.7049         7.00046 
        1.59535         31.4848         6.93611 
         1.6015         31.3417         6.87247 
        1.60764         31.2657         6.80966 
        1.61376         31.0501         6.74781 
        1.61989         30.8032         6.68669 
        1.62604         30.7853         6.62618 
        1.63218         30.5603         6.56646 
        1.63831         30.4801         6.50761 
        1.64444         30.3354         6.44947 
        1.65059         30.0985         6.39189 
        1.65673         30.0089         6.33509 
        1.66285           29.88         6.27913 
        1.66898         29.7284         6.22383 
        1.67512         29.6424         6.16909 
        1.68127         29.3984         6.11496 
         1.6874         29.3166          6.0616 
        1.69353         29.2103         6.00892 
        1.69967         29.0244         5.95673 
        1.70581         28.9152         5.90519 
        1.71193         28.7633         5.85445 
        1.71806         28.6353          5.8042 
        1.72421         28.4709         5.75444 
        1.73035         28.3728         5.70532 
        1.73649         28.2485         5.65679 
        1.74262         28.0949         5.60886 
        1.74876         28.0497         5.56146 
        1.75489         27.8499          5.5147 
        1.76101         27.7436         5.46849 
        1.76715         27.6209         5.42275 
        1.77329         27.5369         5.37748 
        1.77943         27.3901          5.3327 
        1.78557         27.2528          5.2885 
        1.79171         27.1422         5.24479 
        1.79785         27.0022         5.20157 
        1.80399         26.8795         5.15885 
        1.81012         26.8298         5.11667 
        1.81625         26.6792         5.07497 
        1.82239         26.6282         5.03368 
        1.82853         26.3776         4.99287 
        1.83466         26.2671         4.95255 
        1.84078         26.0949         4.91272 
        1.84692         26.0911         4.87326 
        1.85306         25.9251         4.83419 
         1.8592         25.8117          4.7956 
        1.86533         25.6861         4.75747 
        1.87147         25.5872          4.7197 
        1.87761         25.5699         4.68232 
        1.88375         25.4005          4.6454 
        1.88988         25.3384         4.60891 
        1.89601         25.1434          4.5728 
        1.90215         25.0846         4.53704 
        1.90829         25.0111         4.50168 
        1.91442         24.8451          4.4667 
        1.92056         24.7759         4.43212 
         1.9267         24.6517         4.39787 
        1.93284         24.5244         4.36396 
        1.93897         24.4616         4.33048 
        1.94509         24.3471         4.29741 
        1.95123         24.1992         4.26461 
        1.95737         24.1255         4.23213 
        1.96349         24.0201         4.20007 
        1.96964         23.8922         4.16825 
        1.97578         23.8605         4.13675 
        1.98192         23.6747         4.10564 
        1.98805         23.6444         4.07484 
        1.99419         23.5124         4.04435 
        2.00033          23.374         4.01417 
        2.00647         23.2959          3.9843 
         2.0126         23.1614         3.95478 
        2.01874         23.1115         3.92552 
        2.02488          23.086         3.89653 
        2.03101         22.9599         3.86789 
        2.03714         22.8287         3.83956 
        2.04328         22.7224         3.81148 
        2.04941         22.6352          3.7837 
        2.05554         22.5841         3.75623 
        2.06167         22.4837         3.72898 
        2.06781         22.3927         3.70201 
        2.07396         22.2933         3.67526 
        2.08009         22.2335         3.64882 
        2.08622         22.1145         3.62268 
        2.09237         22.0305         3.59674 
        2.09851          21.913         3.57104 
        2.10464         21.8633         3.54565 
        2.11077         21.7043         3.52052 
        2.11691         21.7064         3.49559 
        2.12305          21.563          3.4709 
        2.12918         21.5031          3.4465 
        2.13531         21.4216         3.42234 
        2.14145         21.3272         3.39836 
         2.1476         21.2114         3.37457 
        2.15372         21.1482         3.35114 
        2.15985         21.0291          3.3279 
        2.16599         20.9824         3.30481 
        2.17213         20.9144         3.28197 
        2.17827         20.7871         3.25936 
         2.1844         20.6943         3.23697 
        2.19054         20.6338         3.21479 
        2.19666         20.5713         3.19284 
         2.2028         20.5112         3.17108 
        2.20893          20.369         3.14952 
        2.21508         20.3145         3.12813 
        2.22122         20.1837         3.10693 
        2.22736         20.1536         3.08597 
        2.23349         20.0624         3.06521 
        2.23962         19.9807         3.04463 
        2.24577         19.8682         3.02422 
         2.2519         19.8297         3.00403 
        2.25802         19.7783         2.98405 
        2.26417         19.6852          2.9642 
        2.27031           19.61         2.94451 
        2.27644         19.5416         2.92506 
        2.28257         19.4476         2.90579 
        2.28872         19.3417         2.88665 
        2.29486         19.2953         2.86769 
        2.30099         19.2042         2.84893 
        2.30712         19.1921         2.83034 
        2.31326         19.0833         2.81188 
         2.3194         18.9886          2.7936 
        2.32553         18.9166         2.77551 
        2.33166         18.8174         2.75759 
         2.3378         18.7501          2.7398 
        2.34394         18.6926         2.72216 
        2.35007         18.6127          2.7047 
        2.35619         18.5054         2.68742 
        2.36233          18.468         2.67025 
        2.36848         18.3943         2.65319 
        2.37462         18.3595         2.63631 
        2.38075         18.2685          2.6196 
        2.38689         18.2289         2.60302 
        2.39303         18.1152         2.58659 
        2.39916         18.0529         2.57031 
        2.40529         17.9777         2.55418 
        2.41143         17.9302         2.53817 
        2.41757         17.8607         2.52229 
         2.4237         17.7691         2.50658 
        2.42983         17.7199         2.49101 
        2.43598         17.6488         2.47552 
        2.44211         17.5569         2.46019 
        2.44823          17.488         2.44503 
        2.45437         17.4535         2.42995 
        2.46052         17.3873         2.41499 
        2.46665          17.334         2.40018 
        2.47279           17.25         2.38549 
        2.47892         17.1953         2.37092 
        2.48507         17.1336         2.35646 
         2.4912         17.0639         2.34215 
