# k  (h/Mpc)    Pcb(k)  (Mpc/h)^3    Pcb_linear(k)  (Mpc/h)^3
     0.00783031         7670.55         7764.32 
       0.013688         9828.12         9774.25 
       0.019231         10104.1         10091.2 
      0.0249154         9366.48         9509.25 
      0.0312784         8315.45         8377.22 
      0.0375637         7205.79         7202.91 
      0.0433917         6203.17         6278.98 
      0.0492413         5553.39         5576.44 
      0.0555754         4941.43         5045.01 
      0.0619321          4690.1         4673.43 
       0.067871         4310.31         4391.17 
      0.0738098         4028.14         4109.04 
      0.0800417          3669.8         3778.15 
      0.0862327         3348.54         3414.33 
      0.0921407         3037.18         3059.32 
      0.0982031         2690.63         2720.51 
       0.104506          2462.8         2424.46 
       0.110769         2239.71         2200.18 
       0.116806         2073.86         2046.27 
       0.122832         1975.37         1938.53 
       0.129052          1854.7          1853.9 
       0.135211          1776.7         1775.36 
       0.141259         1708.89         1688.42 
       0.147318         1616.79         1585.83 
       0.153489         1487.79         1468.72 
       0.159709         1391.43         1347.57 
       0.165845         1311.56         1236.12 
       0.171974          1215.7          1141.3 
       0.178125         1147.19         1066.44 
       0.184229         1095.58         1011.17 
        0.19034         1027.85         970.087 
       0.196428         1012.87         936.838 
       0.202534         985.091         904.749 
       0.208729         940.611          868.67 
       0.214876         893.683         827.402 
       0.220989         863.883         781.893 
       0.227147         814.588         734.503 
        0.23329         776.783         689.262 
       0.239377         754.431         649.374 
       0.245482         702.563         615.893 
       0.251667         693.947         588.667 
       0.257832         669.396         566.903 
       0.263955         648.157         548.566 
       0.270079         626.313         531.313 
        0.27624         619.085         513.329 
       0.282372         593.901         493.955 
        0.28843         577.828         473.377 
       0.294538         550.119         451.966 
       0.300721         545.034         430.721 
        0.30691         519.138         410.972 
       0.313033         507.643         393.618 
       0.319153         490.503         378.648 
       0.325316         476.738         365.698 
        0.33145         462.923         354.335 
       0.337538         456.919         343.852 
       0.343633          442.43         333.541 
       0.349808         428.433         322.855 
       0.355968         423.453         311.866 
       0.362074         414.088         300.763 
       0.368217         402.733          289.72 
       0.374374         387.537         279.114 
       0.380519         382.823         269.272 
       0.386598         373.421         260.418 
       0.392688         370.062         252.387 
        0.39888         359.778         244.956 
       0.405048         352.238         238.056 
       0.411186          345.02         231.455 
       0.417313         338.752         224.976 
       0.423458         332.383         218.478 
       0.429607          325.16         211.981 
       0.435692          316.81         205.639 
       0.441815         314.416         199.427 
       0.447964         308.308         193.464 
       0.454126         297.244         187.845 
       0.460267         293.614          182.61 
       0.466387         290.211         177.723 
        0.47254         284.064         173.095 
       0.478662         282.646         168.695 
       0.484765         274.176         164.439 
       0.490885         270.691         160.256 
       0.497035         266.495         156.129 
       0.503198         260.529         152.067 
       0.509342         257.975          148.11 
       0.515458         254.615         144.298 
       0.521598         250.338          140.63 
       0.527764         246.359         137.113 
       0.533884         243.313         133.781 
           0.54         239.838         130.601 
       0.546137         238.515         127.542 
       0.552299         233.849          124.58 
       0.558452         230.977         121.703 
       0.564573          227.21         118.909 
       0.570708         223.268         116.173 
       0.576825         220.421         113.516 
       0.582926         217.502         110.941 
       0.589034         214.857         108.441 
       0.595184         212.661         106.005 
       0.601379         210.509         103.639 
       0.607522         206.168         101.381 
       0.613639         205.286         99.2115 
       0.619772         200.747         97.1077 
       0.625918         199.151         95.0606 
       0.632068         196.684         93.0655 
       0.638161         195.517         91.1389 
         0.6443         192.501          89.248 
       0.650464         190.563         87.4011 
       0.656582         188.821          85.619 
       0.662703         186.512         83.8866 
       0.668861         183.696         82.1938 
       0.675024         181.636         80.5483 
       0.681124         180.767         78.9668 
       0.687237         177.757         77.4274 
       0.693381         175.362         75.9244 
       0.699536          174.08         74.4602 
       0.705665         173.931         73.0415 
       0.711789          170.29         71.6606 
       0.717957         169.717         70.3046 
        0.72409          167.46         68.9894 
       0.730186         164.954         67.7147 
       0.736317         163.954         66.4647 
       0.742472         162.928         65.2418 
       0.748622         161.571         64.0515 
        0.75476          160.16         62.8948 
       0.760888         157.889         61.7697 
       0.767043          157.09         60.6688 
       0.773185         155.417         59.5977 
       0.779291         153.127          58.559 
       0.785407         152.419         57.5436 
       0.791564         150.957         56.5458 
       0.797719         148.921         55.5717 
       0.803834         148.232         54.6265 
       0.809972         146.519         53.6998 
       0.816124         146.342         52.7925 
       0.822261         144.503         51.9086 
       0.828378         143.184         51.0478 
       0.834502         142.812         50.2061 
       0.840667         140.705         49.3782 
       0.846816         139.535         48.5716 
       0.852925         138.569         47.7883 
       0.859047         136.972         47.0209 
       0.865192         136.269          46.268 
       0.871341         134.903         45.5313 
       0.877463         133.807          44.814 
       0.883569         132.818         44.1141 
       0.889708         131.911         43.4256 
       0.895864         130.624           42.75 
       0.902008         129.757         42.0903 
       0.908149         129.099          41.445 
       0.914301         127.706         40.8122 
       0.920448         126.871         40.1933 
       0.926574         126.091         39.5895 
       0.932687         125.538         38.9994 
       0.938823         123.744         38.4193 
       0.944975         122.745         37.8497 
       0.951105         122.125         37.2938 
       0.957225         120.677         36.7501 
       0.963368         119.958         36.2154 
       0.969511         119.584         35.6914 
       0.975621         119.029         35.1807 
       0.981748         118.109         34.6787 
       0.987916         116.827         34.1834 
        0.99406           116.2         33.6997 
        1.00019         115.415         33.2264 
        1.00632         114.648         32.7626 
        1.01246         113.782         32.3071 
        1.01859         112.447          31.861 
        1.02471         112.471         31.4239 
        1.03085         111.332         30.9936 
        1.03698         110.591         30.5723 
        1.04314         109.615          30.157 
        1.04929         108.985         29.7505 
        1.05541         108.268         29.3531 
        1.06154         107.663         28.9621 
        1.06769         107.312         28.5776 
        1.07382         106.708         28.2014 
        1.07993         105.886         27.8329 
        1.08607         105.034         27.4694 
        1.09222         104.538         27.1121 
        1.09836         103.706         26.7616 
        1.10449         103.085         26.4177 
        1.11063         102.455         26.0795 
        1.11677         101.943         25.7474 
         1.1229         100.888         25.4217 
        1.12903         100.095         25.1013 
        1.13518          100.31         24.7862 
        1.14131         99.3766         24.4767 
        1.14745         98.5243         24.1727 
        1.15359         98.0209         23.8739 
        1.15973         97.6548         23.5799 
        1.16584         96.8659         23.2923 
        1.17197         96.2997          23.009 
        1.17811         95.6905         22.7297 
        1.18424         95.0482         22.4557 
        1.19038         94.5524         22.1856 
        1.19652         94.0743           21.92 
        1.20267         93.3137         21.6587 
        1.20881         92.8094         21.4018 
        1.21495         92.1684         21.1495 
        1.22108         91.6742         20.9013 
         1.2272         90.9854         20.6577 
        1.23334         90.6222         20.4174 
        1.23949         89.9148         20.1804 
        1.24562         89.6721         19.9478 
        1.25174         89.0146         19.7193 
        1.25789         88.5869         19.4936 
        1.26402         88.1902         19.2719 
        1.27014         87.3764         19.0542 
        1.27628         87.1576         18.8393 
        1.28244         86.3943         18.6272 
        1.28858         86.0465         18.4187 
        1.29471         85.5708         18.2139 
        1.30084         85.0403         18.0124 
        1.30697         84.5387         17.8136 
        1.31312          84.147         17.6175 
        1.31925         83.7285         17.4251 
        1.32537         83.3514         17.2357 
        1.33151         82.5293         17.0484 
        1.33765         82.1322          16.864 
        1.34378         81.6371         16.6828 
        1.34992         81.4247          16.504 
        1.35606         80.9564         16.3275 
         1.3622         80.2104          16.154 
        1.36833         80.0971         15.9833 
        1.37445         79.5332         15.8152 
        1.38059         78.9672         15.6491 
        1.38675           78.54         15.4849 
        1.39288         78.0855         15.3237 
        1.39901         77.9777          15.165 
        1.40515         77.5055         15.0081 
         1.4113         76.9135         14.8535 
        1.41742         76.7767         14.7016 
        1.42355            76.1         14.5516 
         1.4297         75.7735         14.4033 
        1.43585         75.2308         14.2571 
        1.44198         75.0052         14.1135 
        1.44809         74.5517         13.9721 
        1.45423         74.1581         13.8322 
        1.46036         73.8948         13.6944 
        1.46649         73.4225         13.5585 
        1.47263         72.9966         13.4243 
        1.47877         72.7839          13.292 
        1.48491         72.3717         13.1612 
        1.49104          71.892         13.0325 
        1.49718         71.4493         12.9055 
        1.50333         71.1203         12.7799 
        1.50947         70.7012         12.6563 
         1.5156           70.46         12.5344 
        1.52172         70.0777         12.4142 
        1.52787         69.8881         12.2953 
          1.534         69.4485         12.1782 
        1.54013          68.966         12.0626 
        1.54627         68.7149         11.9484 
        1.55241         68.2661         11.8356 
        1.55855         67.9163         11.7245 
        1.56467          67.439         11.6151 
         1.5708         67.3191         11.5067 
        1.57695         67.0458         11.3996 
        1.58308          66.516         11.2941 
        1.58922         66.4162         11.1899 
        1.59535         66.1466          11.087 
         1.6015         65.5258         10.9853 
        1.60764          65.382         10.8849 
        1.61376         64.9436         10.7861 
        1.61989         64.5932         10.6883 
        1.62604         64.4191         10.5916 
        1.63218         64.1806         10.4962 
        1.63831         63.7613         10.4021 
        1.64444         63.4391         10.3092 
        1.65059         62.9542         10.2171 
        1.65673         62.7921         10.1263 
        1.66285           62.46         10.0369 
        1.66898         62.1602          9.9485 
        1.67512          61.765           9.861 
        1.68127         61.4421         9.77448 
         1.6874         61.2564         9.68919 
        1.69353         60.9062         9.60496 
        1.69967            60.6         9.52155 
        1.70581          60.473         9.43916 
        1.71193         60.1758         9.35806 
        1.71806         59.6112         9.27773 
        1.72421         59.5359          9.1982 
        1.73035         59.1518         9.11969 
        1.73649         58.7557         9.04211 
        1.74262         58.6418          8.9655 
        1.74876         58.3543         8.88972 
        1.75489         57.9938         8.81498 
        1.76101         57.8129         8.74112 
        1.76715         57.4167         8.66801 
        1.77329         57.1943         8.59564 
        1.77943         56.8998         8.52407 
        1.78557         56.7253         8.45342 
        1.79171         56.3695         8.38355 
        1.79785         56.1666         8.31447 
        1.80399         55.8688         8.24618 
        1.81012         55.7105         8.17875 
        1.81625         55.1757          8.1121 
        1.82239         55.0094         8.04609 
        1.82853         54.6285         7.98086 
        1.83466         54.5217         7.91641 
        1.84078         54.0799         7.85274 
        1.84692         53.8855         7.78967 
        1.85306         53.6865         7.72722 
         1.8592         53.3389         7.66554 
        1.86533         53.1622         7.60458 
        1.87147         52.8949         7.54421 
        1.87761         52.6957         7.48447 
        1.88375         52.4583         7.42545 
        1.88988         52.3648         7.36712 
        1.89601          51.904         7.30939 
        1.90215         51.7072         7.25224 
        1.90829         51.5566         7.19572 
        1.91442         51.2534          7.1398 
        1.92056         50.9531         7.08453 
         1.9267         50.6638         7.02978 
        1.93284         50.4728         6.97558 
        1.93897         50.2402         6.92206 
        1.94509         49.9116         6.86921 
        1.95123           49.82         6.81678 
        1.95737          49.558         6.76486 
        1.96349         49.2884         6.71362 
        1.96964         49.1707         6.66275 
        1.97578         48.8406          6.6124 
        1.98192         48.6524         6.56266 
        1.98805         48.4736         6.51343 
        1.99419         48.1186         6.46471 
        2.00033         47.9213         6.41646 
        2.00647         47.7449         6.36871 
         2.0126         47.4633         6.32153 
        2.01874         47.2768         6.27476 
        2.02488         47.1375         6.22842 
        2.03101         46.8135         6.18263 
        2.03714         46.6095         6.13735 
        2.04328         46.3591         6.09247 
        2.04941         46.1142         6.04807 
        2.05554         45.8468         6.00415 
        2.06167         45.8134          5.9606 
        2.06781         45.5592         5.91748 
        2.07396         45.2863         5.87473 
        2.08009         45.1291         5.83247 
        2.08622         44.8357         5.79068 
        2.09237         44.6637         5.74921 
        2.09851         44.4352         5.70814 
        2.10464         44.2485         5.66754 
        2.11077          44.107         5.62739 
        2.11691         43.8363         5.58754 
        2.12305         43.5646         5.54807 
        2.12918         43.4191         5.50907 
        2.13531         43.1947         5.47045 
        2.14145         43.0619         5.43211 
         2.1476         42.8357         5.39409 
        2.15372         42.5651         5.35663 
        2.15985         42.4435         5.31949 
        2.16599         42.3485         5.28259 
        2.17213         42.2099         5.24608 
        2.17827         41.8689         5.20992 
         2.1844         41.6434         5.17414 
        2.19054         41.4452         5.13868 
        2.19666         41.2932         5.10361 
         2.2028         41.1131         5.06883 
        2.20893         40.9701         5.03435 
        2.21508         40.7873         5.00016 
        2.22122          40.535         4.96628 
        2.22736         40.3554         4.93278 
        2.23349          40.234         4.89959 
        2.23962         39.9288          4.8667 
        2.24577         39.7763         4.83407 
         2.2519         39.5779          4.8018 
        2.25802         39.5289         4.76986 
        2.26417         39.2749         4.73813 
        2.27031         39.1599         4.70666 
        2.27644         38.8328         4.67557 
        2.28257         38.7513         4.64476 
        2.28872         38.4913         4.61417 
        2.29486         38.4014         4.58386 
        2.30099         38.2407         4.55388 
        2.30712         38.0417         4.52416 
        2.31326         37.9068         4.49466 
         2.3194         37.6973         4.46543 
        2.32553           37.53         4.43652 
        2.33166         37.3606         4.40787 
         2.3378         37.1753         4.37943 
        2.34394         36.9214         4.35124 
        2.35007         36.8101         4.32334 
        2.35619         36.7567         4.29571 
        2.36233         36.5951         4.26826 
        2.36848         36.2971         4.24099 
        2.37462         36.2611         4.21402 
        2.38075         36.0361         4.18731 
        2.38689         35.9726          4.1608 
        2.39303         35.7599         4.13454 
        2.39916         35.5531         4.10852 
        2.40529         35.2969         4.08273 
        2.41143         35.2582         4.05715 
        2.41757         35.1367         4.03177 
         2.4237         34.9436         4.00665 
        2.42983          34.811         3.98175 
        2.43598         34.5812           3.957 
        2.44211         34.4653          3.9325 
        2.44823         34.3118         3.90826 
        2.45437         34.2095         3.88416 
        2.46052         33.9835         3.86024 
        2.46665         33.8849         3.83656 
        2.47279         33.7397          3.8131 
        2.47892         33.5249         3.78981 
        2.48507         33.4014         3.76669 
         2.4912          33.255         3.74381 
