# k  (h/Mpc)    P(k)  (Mpc/h)^3    P_linear(k)  (Mpc/h)^3
     0.00783031         8018.68         8144.89 
       0.013688         10081.5         10045.1 
       0.019231         10207.8         10206.2 
      0.0249154         9344.37         9493.56 
      0.0312784         8217.71         8280.66 
      0.0375637         7089.98         7087.53 
      0.0433917         6104.02         6178.79 
      0.0492413         5478.53         5501.11 
      0.0555754         4884.39         4988.62 
      0.0619321         4633.83         4616.62 
       0.067871         4236.32         4315.37 
      0.0738098         3927.76         4003.26 
      0.0800417         3542.97         3641.71 
      0.0862327         3206.41         3260.48 
      0.0921407         2895.28         2906.61 
      0.0982031         2565.37         2585.35 
       0.104506         2361.47         2317.64 
       0.110769         2163.32         2122.17 
       0.116806         2015.61         1988.95 
       0.122832         1924.64         1890.55 
       0.129052         1802.56         1802.94 
       0.135211         1715.53         1712.02 
       0.141259         1636.32         1609.79 
       0.147318         1535.47         1495.17 
       0.153489         1404.57         1373.81 
       0.159709         1311.73          1257.8 
       0.165845         1240.02         1158.55 
       0.171974         1155.87         1078.97 
       0.178125         1097.01         1018.23 
       0.184229         1052.04         972.587 
        0.19034         988.269         935.196 
       0.196428         971.427         899.968 
       0.202534         940.734         862.118 
       0.208729         893.391          819.25 
       0.214876          845.15         773.149 
       0.220989         814.198         726.496 
       0.227147         768.184         681.952 
        0.23329         733.528         642.554 
       0.239377         714.244         609.722 
       0.245482         666.655         582.766 
       0.251667         659.839         560.166 
       0.257832         636.891         540.402 
       0.263955         615.925           521.6 
       0.270079         593.896         502.258 
        0.27624         585.715         481.757 
       0.282372         561.122         460.544 
        0.28843         545.203          439.58 
       0.294538         518.843         419.365 
       0.300721         514.121         400.632 
        0.30691         490.071         384.026 
       0.313033         479.696         369.652 
       0.319153         463.624         356.961 
       0.325316         450.776         345.271 
        0.33145          437.42         334.159 
       0.337538         431.613         323.217 
       0.343633         417.507         312.165 
       0.349808         403.929         300.908 
       0.355968         399.033         289.818 
       0.362074          390.12         279.242 
       0.368217         379.442         269.231 
       0.374374         365.109         259.983 
       0.380519         360.826         251.521 
       0.386598         351.925          243.81 
       0.392688         348.709         236.585 
        0.39888         339.031         229.559 
       0.405048         331.733         222.752 
       0.411186         324.941         216.089 
       0.417313         318.844         209.529 
       0.423458         312.849           203.1 
       0.429607         306.076          196.88 
       0.435692         297.984         190.994 
       0.441815         295.767         185.393 
       0.447964         290.066         180.093 
       0.454126         279.607         175.075 
       0.460267         276.197          170.33 
       0.466387         272.918         165.799 
        0.47254         267.081         161.388 
       0.478662         265.778         157.115 
       0.484765         257.643         152.967 
       0.490885         254.371         148.917 
       0.497035         250.512         144.969 
       0.503198         244.822         141.157 
       0.509342         242.375         137.515 
       0.515458         239.152         134.043 
       0.521598         235.086         130.702 
       0.527764         231.426         127.483 
       0.533884         228.564         124.408 
           0.54         225.175         121.437 
       0.546137         223.972         118.542 
       0.552299         219.545         115.716 
       0.558452         216.856         112.976 
       0.564573         213.354         110.333 
       0.570708         209.546         107.767 
       0.576825         206.899         105.293 
       0.582926         204.057         102.908 
       0.589034         201.634         100.602 
       0.595184         199.547           98.36 
       0.601379         197.444         96.1764 
       0.607522         193.393         94.0777 
       0.613639         192.528         92.0482 
       0.619772         188.313         90.0699 
       0.625918         186.751         88.1434 
       0.632068         184.482         86.2709 
       0.638161         183.318         84.4694 
         0.6443         180.525         82.7072 
       0.650464          178.72         80.9899 
       0.656582         176.961          79.335 
       0.662703         174.841         77.7272 
       0.668861         172.165         76.1564 
       0.675024         170.252         74.6291 
       0.681124         169.393         73.1599 
       0.687237         166.559         71.7278 
       0.693381         164.285         70.3272 
       0.699536         163.132         68.9609 
       0.705665         162.946         67.6363 
       0.711789         159.533         66.3475 
       0.717957         159.032         65.0834 
        0.72409         156.862         63.8597 
       0.730186         154.545         62.6754 
       0.736317         153.578         61.5156 
       0.742472          152.64         60.3815 
       0.748622           151.3         59.2775 
        0.75476         149.975         58.2039 
       0.760888         147.857         57.1588 
       0.767043         147.123         56.1353 
       0.773185         145.554         55.1389 
       0.779291         143.401         54.1724 
       0.785407          142.71         53.2278 
       0.791564         141.418         52.2998 
       0.797719         139.403         51.3945 
       0.803834         138.788         50.5165 
       0.809972         137.211         49.6562 
       0.816124         136.986         48.8142 
       0.822261         135.323         47.9943 
       0.828378         134.079         47.1958 
       0.834502         133.665          46.415 
       0.840667         131.746          45.647 
       0.846816          130.57         44.8987 
       0.852925         129.718         44.1719 
       0.859047         128.197         43.4598 
       0.865192         127.532         42.7612 
       0.871341         126.292         42.0775 
       0.877463         125.196         41.4119 
       0.883569          124.33         40.7626 
       0.889708         123.456         40.1238 
       0.895864          122.27         39.4972 
       0.902008         121.431         38.8854 
       0.908149         120.831          38.287 
       0.914301         119.536         37.7003 
       0.920448         118.735         37.1264 
       0.926574         117.985         36.5666 
       0.932687         117.569         36.0196 
       0.938823         115.839         35.4819 
       0.944975         114.855          34.954 
       0.951105         114.297         34.4388 
       0.957225         112.963         33.9349 
       0.963368         112.272         33.4395 
       0.969511         111.954          32.954 
       0.975621         111.431         32.4808 
       0.981748         110.537         32.0158 
       0.987916         109.385         31.5569 
        0.99406         108.745         31.1089 
        1.00019         108.026         30.6705 
        1.00632         107.306          30.241 
        1.01246         106.521         29.8191 
        1.01859         105.245         29.4061 
        1.02471         105.265         29.0014 
        1.03085         104.191         28.6029 
        1.03698         103.549         28.2128 
        1.04314         102.606         27.8284 
        1.04929         102.023         27.4521 
        1.05541         101.308         27.0843 
        1.06154         100.816         26.7224 
        1.06769         100.454         26.3665 
        1.07382         99.8908         26.0184 
        1.07993         99.1169         25.6773 
        1.08607         98.3308          25.341 
        1.09222         97.8824         25.0104 
        1.09836         97.0977         24.6861 
        1.10449         96.5392          24.368 
        1.11063         95.9373         24.0551 
        1.11677         95.4613         23.7479 
         1.1229         94.4606         23.4465 
        1.12903         93.7055         23.1502 
        1.13518         93.9302         22.8587 
        1.14131         93.0965         22.5725 
        1.14745         92.2598         22.2913 
        1.15359         91.8154         22.0149 
        1.15973         91.4415         21.7431 
        1.16584         90.7009         21.4771 
        1.17197         90.2032         21.2152 
        1.17811         89.6402         20.9568 
        1.18424         89.0273         20.7036 
        1.19038         88.5429         20.4538 
        1.19652         88.1268         20.2082 
        1.20267         87.3988         19.9667 
        1.20881         86.9549         19.7292 
        1.21495         86.3424          19.496 
        1.22108         85.9006         19.2666 
         1.2272         85.2012         19.0414 
        1.23334         84.9013         18.8193 
        1.23949         84.2839         18.6003 
        1.24562          84.012         18.3853 
        1.25174         83.4304         18.1741 
        1.25789         83.0481         17.9656 
        1.26402         82.6372         17.7608 
        1.27014         81.8742         17.5596 
        1.27628         81.6711          17.361 
        1.28244         80.9751         17.1651 
        1.28858         80.6647         16.9725 
        1.29471         80.2294         16.7832 
        1.30084         79.7394         16.5971 
        1.30697          79.275         16.4134 
        1.31312         78.8741         16.2324 
        1.31925         78.5168         16.0546 
        1.32537         78.1618         15.8797 
        1.33151         77.3912         15.7067 
        1.33765         77.0236         15.5365 
        1.34378         76.5637         15.3691 
        1.34992          76.344          15.204 
        1.35606          75.912         15.0411 
         1.3622         75.2392         14.8808 
        1.36833         75.1121         14.7233 
        1.37445         74.6248         14.5681 
        1.38059         74.0667         14.4146 
        1.38675         73.6757         14.2631 
        1.39288         73.2532         14.1143 
        1.39901         73.1576         13.9677 
        1.40515         72.6941         13.8228 
         1.4113          72.208         13.6801 
        1.41742         72.0593         13.5399 
        1.42355         71.4091         13.4015 
         1.4297         71.1343         13.2646 
        1.43585         70.6113         13.1296 
        1.44198         70.3925          12.997 
        1.44809         70.0027         12.8666 
        1.45423         69.6388         12.7374 
        1.46036         69.3973         12.6103 
        1.46649         68.9535         12.4848 
        1.47263         68.5352          12.361 
        1.47877         68.3476         12.2389 
        1.48491         67.9953         12.1182 
        1.49104         67.5176         11.9995 
        1.49718         67.0778         11.8822 
        1.50333         66.8139         11.7664 
        1.50947          66.443         11.6523 
         1.5156         66.1664         11.5399 
        1.52172         65.8691          11.429 
        1.52787         65.6758         11.3193 
          1.534         65.2487         11.2112 
        1.54013         64.8145         11.1047 
        1.54627         64.5864         10.9993 
        1.55241         64.1598         10.8953 
        1.55855         63.8238         10.7928 
        1.56467         63.3904         10.6918 
         1.5708         63.3132         10.5919 
        1.57695          63.036         10.4931 
        1.58308         62.5478         10.3958 
        1.58922         62.4734         10.2997 
        1.59535         62.2124         10.2048 
         1.6015          61.611          10.111 
        1.60764         61.4791         10.0184 
        1.61376         61.0911         9.92727 
        1.61989         60.7447         9.83716 
        1.62604         60.5995         9.74797 
        1.63218         60.3786         9.65994 
        1.63831          59.991          9.5732 
        1.64444         59.6736          9.4875 
        1.65059         59.2444         9.40265 
        1.65673         59.1007         9.31892 
        1.66285         58.7643         9.23645 
        1.66898         58.4948         9.15496 
        1.67512         58.1288         9.07429 
        1.68127         57.8225         8.99452 
         1.6874         57.6657         8.91589 
        1.69353         57.3391         8.83825 
        1.69967         57.0384         8.76135 
        1.70581         56.9374          8.6854 
        1.71193         56.6591         8.61064 
        1.71806         56.1286          8.5366 
        1.72421         56.0529         8.46329 
        1.73035         55.7114         8.39092 
        1.73649         55.3128         8.31942 
        1.74262         55.2357         8.24881 
        1.74876         54.9645         8.17897 
        1.75489         54.6345         8.11008 
        1.76101         54.4576         8.04201 
        1.76715         54.0901         7.97463 
        1.77329         53.8915         7.90795 
        1.77943         53.5999         7.84199 
        1.78557         53.4462         7.77689 
        1.79171         53.1139         7.71251 
        1.79785         52.9076         7.64885 
        1.80399         52.6619         7.58593 
        1.81012         52.4947          7.5238 
        1.81625         51.9924         7.46239 
        1.82239         51.8538         7.40157 
        1.82853         51.4868         7.34146 
        1.83466         51.3975         7.28208 
        1.84078          50.987         7.22341 
        1.84692         50.7921          7.1653 
        1.85306         50.6103         7.10776 
         1.8592         50.2841         7.05094 
        1.86533         50.1361         6.99477 
        1.87147         49.9013         6.93915 
        1.87761         49.7153         6.88411 
        1.88375         49.4596         6.82973 
        1.88988         49.3935           6.776 
        1.89601         48.9746         6.72282 
        1.90215         48.7866         6.67017 
        1.90829         48.6476         6.61811 
        1.91442         48.3632          6.5666 
        1.92056         48.0776         6.51568 
         1.9267         47.8061         6.46525 
        1.93284         47.6411         6.41533 
        1.93897         47.4261         6.36603 
        1.94509         47.1156         6.31735 
        1.95123         47.0413         6.26906 
        1.95737         46.7727         6.22124 
        1.96349         46.5198         6.17404 
        1.96964         46.4258          6.1272 
        1.97578          46.111         6.08082 
        1.98192         45.9434         6.03502 
        1.98805         45.7617         5.98968 
        1.99419          45.435         5.94481 
        2.00033         45.2594         5.90037 
        2.00647          45.073          5.8564 
         2.0126          44.829         5.81296 
        2.01874         44.6704         5.76989 
        2.02488          44.535         5.72721 
        2.03101         44.2321         5.68505 
        2.03714         44.0438         5.64336 
        2.04328         43.8002         5.60203 
        2.04941         43.5777         5.56115 
        2.05554         43.3329         5.52072 
        2.06167         43.2925         5.48062 
        2.06781         43.0519         5.44092 
        2.07396         42.8108         5.40156 
        2.08009         42.6601         5.36266 
        2.08622         42.3912         5.32418 
        2.09237         42.2254           5.286 
        2.09851         42.0129          5.2482 
        2.10464         41.8482         5.21082 
        2.11077         41.7094         5.17385 
        2.11691         41.4591         5.13717 
        2.12305         41.2092         5.10083 
        2.12918         41.0797         5.06493 
        2.13531         40.8445         5.02938 
        2.14145         40.7463         4.99408 
         2.1476         40.5184         4.95908 
        2.15372         40.2719          4.9246 
        2.15985         40.1486          4.8904 
        2.16599          40.084         4.85644 
        2.17213         39.9365         4.82283 
        2.17827         39.6197         4.78955 
         2.1844          39.429         4.75661 
        2.19054         39.2329         4.72397 
        2.19666         39.0843         4.69169 
         2.2028          38.912         4.65967 
        2.20893          38.792         4.62794 
        2.21508         38.6154         4.59647 
        2.22122         38.3737         4.56529 
        2.22736         38.2211         4.53445 
        2.23349         38.0947         4.50391 
        2.23962          37.813         4.47364 
        2.24577         37.6749         4.44361 
         2.2519         37.4848         4.41391 
        2.25802         37.4238         4.38452 
        2.26417          37.206         4.35532 
        2.27031         37.1066         4.32635 
        2.27644          36.802         4.29774 
        2.28257         36.7129         4.26938 
        2.28872         36.4817         4.24123 
        2.29486         36.4047         4.21334 
        2.30099         36.2413         4.18575 
        2.30712         36.0691          4.1584 
        2.31326         35.9453         4.13125 
         2.3194         35.7557         4.10436 
        2.32553         35.5832         4.07775 
        2.33166         35.4313         4.05139 
         2.3378         35.2487         4.02522 
        2.34394         35.0227         3.99928 
        2.35007         34.9171          3.9736 
        2.35619         34.8545         3.94818 
        2.36233         34.7225         3.92293 
        2.36848          34.444         3.89784 
        2.37462         34.3959         3.87302 
        2.38075         34.1981         3.84844 
        2.38689         34.1365         3.82406 
        2.39303         33.9241         3.79989 
        2.39916         33.7284         3.77596 
        2.40529           33.49         3.75223 
        2.41143         33.4649         3.72869 
        2.41757         33.3536         3.70535 
         2.4237         33.1635         3.68224 
        2.42983         33.0392         3.65933 
        2.43598         32.8287         3.63656 
        2.44211         32.7079         3.61402 
        2.44823         32.5721         3.59172 
        2.45437         32.4792         3.56955 
        2.46052         32.2612         3.54755 
        2.46665         32.1908         3.52577 
        2.47279         32.0431         3.50418 
        2.47892         31.8402         3.48275 
        2.48507         31.7293         3.46149 
         2.4912         31.5897         3.44044 
