# k  (h/Mpc)    Pcb(k)  (Mpc/h)^3    Pcb_linear(k)  (Mpc/h)^3
     0.00783031         15857.3         16088.6 
       0.013688         19170.9         18995.5 
       0.019231         18420.5         18361.7 
      0.0249154         15810.4         16112.5 
      0.0312784         13042.5         13141.8 
      0.0375637         10684.3           10630 
      0.0433917          8868.6         8961.35 
      0.0492413         7880.56         7883.35 
      0.0555754         7016.74         7182.79 
      0.0619321         6756.04         6705.87 
       0.067871         6137.11         6266.48 
      0.0738098         5619.16         5730.87 
      0.0800417         4932.14         5063.61 
      0.0862327          4333.2         4371.08 
      0.0921407         3835.96         3773.49 
      0.0982031         3339.33         3288.76 
       0.104506          3091.6         2942.98 
       0.110769         2863.21         2735.91 
       0.116806         2720.43         2618.18 
       0.122832          2617.5         2527.85 
       0.129052         2442.62         2416.75 
       0.135211         2301.19         2264.54 
       0.141259         2169.23         2077.05 
       0.147318         2002.25         1873.51 
       0.153489         1803.22         1678.59 
       0.159709         1679.57         1517.37 
       0.165845         1597.79         1402.04 
       0.171974         1511.91          1326.5 
       0.178125          1446.1         1277.92 
       0.184229         1390.72         1240.57 
        0.19034         1313.17         1199.46 
       0.196428         1283.28         1146.09 
       0.202534         1230.78         1079.01 
       0.208729         1160.28         1002.66 
       0.214876         1098.24          927.41 
       0.220989         1051.53         860.978 
       0.227147         1002.28         807.202 
        0.23329         959.911         767.285 
       0.239377         940.821         738.446 
       0.245482         880.087         715.516 
       0.251667         874.922         693.417 
       0.257832         840.049         668.753 
       0.263955         811.044         640.147 
       0.270079         778.286         608.258 
        0.27624         766.933         575.129 
       0.282372         734.685         543.813 
        0.28843         720.072         516.516 
       0.294538         682.337         493.542 
       0.300721         677.958         474.686 
        0.30691         648.886         458.956 
       0.313033         635.831         444.947 
       0.319153         618.791         431.009 
       0.325316         600.324         416.188 
        0.33145         583.259         400.412 
       0.337538         572.997          384.22 
       0.343633         556.374         368.191 
       0.349808         535.907         352.927 
       0.355968         531.359         339.219 
       0.362074         523.621         327.253 
       0.368217         508.039         316.683 
       0.374374         486.131         307.088 
       0.380519         484.677         298.039 
       0.386598         471.144         289.196 
       0.392688         468.245          280.21 
        0.39888         454.495         270.974 
       0.405048         445.525           261.8 
       0.411186         438.399         252.936 
       0.417313         429.497         244.591 
       0.423458         420.407         236.825 
       0.429607         414.161         229.675 
       0.435692         403.704         223.156 
       0.441815         399.742          216.98 
       0.447964         391.131         211.015 
       0.454126           383.1         205.177 
       0.460267          375.48         199.436 
       0.466387         370.812         193.772 
        0.47254         364.582         188.204 
       0.478662         362.981         182.863 
       0.484765         349.903         177.777 
       0.490885         346.681         172.936 
       0.497035         340.163         168.345 
       0.503198         335.688         163.992 
       0.509342         333.223         159.839 
       0.515458         329.152          155.84 
       0.521598         320.674         151.931 
       0.527764         316.237         148.105 
       0.533884          313.49         144.401 
           0.54         308.987         140.796 
       0.546137         307.462         137.291 
       0.552299         301.186         133.906 
       0.558452         299.542         130.669 
       0.564573         295.221         127.583 
       0.570708         289.514         124.607 
       0.576825         284.142         121.739 
       0.582926         282.056         118.967 
       0.589034         279.316         116.274 
       0.595184         276.859         113.639 
       0.601379         272.388         111.059 
       0.607522         268.644         108.572 
       0.613639          267.05         106.167 
       0.619772         261.539         103.829 
       0.625918         260.411         101.564 
       0.632068         256.006         99.3748 
       0.638161         254.895          97.277 
         0.6443         250.814         95.2292 
       0.650464         248.304         93.2336 
       0.656582         245.718         91.3068 
       0.662703         245.291         89.4299 
       0.668861         241.044         87.5918 
       0.675024         238.032         85.8024 
       0.681124          236.43         84.0811 
       0.687237         233.891         82.4053 
       0.693381         230.234         80.7699 
       0.699536         228.176         79.1783 
       0.705665         226.162         77.6381 
       0.711789         224.569         76.1412 
       0.717957         223.335         74.6737 
        0.72409         220.887         73.2527 
       0.730186         218.132         71.8768 
       0.736317         215.784         70.5282 
       0.742472          214.33         69.2091 
       0.748622         212.565         67.9251 
        0.75476         210.461         66.6766 
       0.760888         208.105          65.462 
       0.767043         207.898         64.2735 
       0.773185         205.687         63.1175 
       0.779291         201.932         61.9971 
       0.785407         201.552         60.9027 
       0.791564         199.472         59.8282 
       0.797719         196.806         58.7803 
       0.803834         195.568         57.7643 
       0.809972         194.799         56.7687 
       0.816124         193.861         55.7944 
       0.822261         192.062         54.8457 
       0.828378         190.033          53.922 
       0.834502         189.116         53.0189 
       0.840667         186.903         52.1307 
       0.846816         185.426         51.2656 
       0.852925         184.622         50.4257 
       0.859047         183.001          49.603 
       0.865192         180.723         48.7961 
       0.871341         179.369         48.0068 
       0.877463         178.295         47.2387 
       0.883569         177.784         46.4895 
       0.889708         175.617         45.7528 
       0.895864         173.966         45.0304 
       0.902008         172.907         44.3251 
       0.908149         172.332         43.6356 
       0.914301          170.02         42.9596 
       0.920448         169.088         42.2988 
       0.926574         167.803         41.6542 
       0.932687         167.779         41.0245 
       0.938823         165.545         40.4057 
       0.944975         164.525         39.7983 
       0.951105         163.604         39.2057 
       0.957225         162.361         38.6262 
       0.963368         160.096         38.0566 
       0.969511         159.658         37.4985 
       0.975621         158.233         36.9546 
       0.981748         158.153         36.4203 
       0.987916          156.55         35.8932 
        0.99406         155.183         35.3785 
        1.00019         155.033         34.8751 
        1.00632         153.463         34.3819 
        1.01246         152.504         33.8977 
        1.01859         152.237         33.4235 
        1.02471         150.082         32.9591 
        1.03085         148.907          32.502 
        1.03698         148.313         32.0546 
        1.04314          146.81         31.6137 
        1.04929          146.28         31.1821 
        1.05541         145.812         30.7604 
        1.06154         144.474         30.3455 
        1.06769         144.253         29.9377 
        1.07382         142.836         29.5388 
        1.07993         141.833          29.148 
        1.08607         141.181         28.7628 
        1.09222          140.51         28.3842 
        1.09836         139.383         28.0128 
        1.10449         137.893         27.6486 
        1.11063          137.03         27.2905 
        1.11677         136.548         26.9389 
         1.1229         135.528         26.5941 
        1.12903         135.028         26.2551 
        1.13518         134.347         25.9217 
        1.14131         132.993         25.5944 
        1.14745         132.808         25.2729 
        1.15359         131.742         24.9569 
        1.15973         130.963         24.6462 
        1.16584         129.833         24.3423 
        1.17197         129.319          24.043 
        1.17811         128.489         23.7479 
        1.18424         127.981         23.4586 
        1.19038         127.652         23.1734 
        1.19652         126.596          22.893 
        1.20267         125.788         22.6172 
        1.20881          124.96         22.3461 
        1.21495         124.109         22.0799 
        1.22108          123.49         21.8181 
         1.2272         122.476         21.5611 
        1.23334         122.104         21.3078 
        1.23949         121.338         21.0579 
        1.24562         120.577         20.8127 
        1.25174          119.99         20.5719 
        1.25789          119.23         20.3341 
        1.26402         117.997         20.1005 
        1.27014         117.472         19.8712 
        1.27628         117.207         19.6448 
        1.28244         116.842         19.4214 
        1.28858         116.027         19.2019 
        1.29471         114.919         18.9862 
        1.30084         114.884         18.7741 
        1.30697         113.618         18.5649 
        1.31312         113.198         18.3586 
        1.31925         112.413         18.1561 
        1.32537         112.035         17.9569 
        1.33151         111.081         17.7599 
        1.33765         110.547          17.566 
        1.34378         110.106         17.3755 
        1.34992         109.744         17.1876 
        1.35606         109.228         17.0021 
         1.3622         108.162         16.8197 
        1.36833         107.583         16.6404 
        1.37445         107.148         16.4638 
        1.38059         106.333         16.2893 
        1.38675         105.765         16.1169 
        1.39288         105.578         15.9477 
        1.39901          105.04         15.7809 
        1.40515         104.114         15.6163 
         1.4113         103.712          15.454 
        1.41742         103.064         15.2947 
        1.42355         102.495         15.1373 
         1.4297         102.107         14.9817 
        1.43585         101.312         14.8283 
        1.44198         100.865         14.6777 
        1.44809         100.466         14.5294 
        1.45423         100.021         14.3827 
        1.46036          99.423         14.2382 
        1.46649         98.7026         14.0957 
        1.47263          98.056         13.9551 
        1.47877          97.755         13.8164 
        1.48491         96.9393         13.6794 
        1.49104         96.8362         13.5445 
        1.49718         96.1953         13.4114 
        1.50333          95.709         13.2799 
        1.50947         95.1868         13.1503 
         1.5156         94.7142         13.0227 
        1.52172          94.204         12.8969 
        1.52787          93.632         12.7724 
          1.534         93.1356         12.6497 
        1.54013          92.708         12.5288 
        1.54627         92.3228         12.4092 
        1.55241         91.6596         12.2912 
        1.55855         91.1768         12.1749 
        1.56467          90.991         12.0604 
         1.5708          90.206          11.947 
        1.57695         90.0993          11.835 
        1.58308         89.4737         11.7247 
        1.58922          89.191         11.6157 
        1.59535         88.6666         11.5081 
         1.6015         88.1735         11.4017 
        1.60764         87.6947         11.2967 
        1.61376         87.4125         11.1934 
        1.61989         86.8852         11.0913 
        1.62604          86.463         10.9902 
        1.63218         86.2494         10.8904 
        1.63831         85.3273         10.7921 
        1.64444         85.0605          10.695 
        1.65059          84.652         10.5989 
        1.65673         84.0491          10.504 
        1.66285         83.7897         10.4106 
        1.66898         83.5117         10.3183 
        1.67512         82.8133         10.2269 
        1.68127         82.5935         10.1365 
         1.6874          81.961         10.0475 
        1.69353         81.6081         9.95957 
        1.69967         81.3606         9.87249 
        1.70581         80.9186          9.7865 
        1.71193         80.4843         9.70185 
        1.71806         80.1569         9.61802 
        1.72421         79.5906         9.53502 
        1.73035         79.3127          9.4531 
        1.73649         78.9794         9.37216 
        1.74262         78.4006         9.29223 
        1.74876          78.172         9.21318 
        1.75489         77.6225         9.13522 
        1.76101         77.2996         9.05818 
        1.76715         76.7549         8.98193 
        1.77329          76.575         8.90647 
        1.77943         76.0155         8.83184 
        1.78557         75.9361         8.75818 
        1.79171         75.1698         8.68535 
        1.79785         74.8522         8.61333 
        1.80399         74.5841         8.54215 
        1.81012         74.3418         8.47187 
        1.81625         73.9265         8.40241 
        1.82239          73.562         8.33363 
        1.82853          73.278         8.26566 
        1.83466         72.8734         8.19851 
        1.84078         72.4337         8.13217 
        1.84692          72.166         8.06647 
        1.85306         71.7646         8.00141 
         1.8592         71.5348         7.93718 
        1.86533         71.0553         7.87368 
        1.87147         70.5874         7.81081 
        1.87761         70.4086          7.7486 
        1.88375         70.0503         7.68714 
        1.88988         69.6501         7.62641 
        1.89601         69.3295         7.56631 
        1.90215         68.8782         7.50681 
        1.90829         68.5946         7.44798 
        1.91442         68.3223         7.38978 
        1.92056         67.9157         7.33225 
         1.9267          67.649         7.27528 
        1.93284         67.2739         7.21888 
        1.93897         66.9619         7.16318 
        1.94509         66.7463          7.1082 
        1.95123         66.3342         7.05365 
        1.95737         65.9588         6.99964 
        1.96349         65.6153         6.94633 
        1.96964         65.3148         6.89342 
        1.97578         64.9789         6.84104 
        1.98192         64.9428         6.78932 
        1.98805         64.3024         6.73812 
        1.99419         64.0951         6.68745 
        2.00033         63.9118         6.63727 
        2.00647         63.4934         6.58762 
         2.0126         63.1683         6.53857 
        2.01874         62.7242         6.48994 
        2.02488         62.5904         6.44176 
        2.03101         62.2441         6.39417 
        2.03714         61.8392          6.3471 
        2.04328         61.6155         6.30045 
        2.04941         61.3674          6.2543 
        2.05554         61.1678         6.20866 
        2.06167         60.8623         6.16341 
        2.06781         60.3903          6.1186 
        2.07396         60.1402         6.07418 
        2.08009         59.9515         6.03027 
        2.08622         59.6125         5.98685 
        2.09237          59.366         5.94377 
        2.09851         59.1811         5.90111 
        2.10464         58.7619         5.85894 
        2.11077          58.512         5.81724 
        2.11691         58.1822         5.77584 
        2.12305         57.9502         5.73485 
        2.12918         57.7079         5.69436 
        2.13531         57.3032         5.65425 
        2.14145         57.0749         5.61444 
         2.1476         56.7603         5.57496 
        2.15372         56.5992         5.53607 
        2.15985         56.2812          5.4975 
        2.16599         56.0037          5.4592 
        2.17213         55.8097          5.4213 
        2.17827         55.4808         5.38377 
         2.1844         55.1952         5.34662 
        2.19054         54.9853         5.30982 
        2.19666         54.7148         5.27342 
         2.2028         54.6011         5.23732 
        2.20893         54.2215         5.20155 
        2.21508         54.0123         5.16607 
        2.22122         53.7561         5.13091 
        2.22736         53.5021         5.09615 
        2.23349         53.2251         5.06172 
        2.23962         52.9072          5.0276 
        2.24577         52.6225         4.99375 
         2.2519         52.4731         4.96027 
        2.25802         52.2681         4.92715 
        2.26417         51.9159         4.89424 
        2.27031         51.6966         4.86159 
        2.27644         51.4857         4.82935 
        2.28257         51.2507         4.79739 
        2.28872         50.9247         4.76567 
        2.29486         50.6987         4.73424 
        2.30099         50.4709         4.70315 
        2.30712         50.2996         4.67233 
        2.31326         49.9937         4.64174 
         2.3194         49.7468         4.61144 
        2.32553         49.5443         4.58146 
        2.33166         49.2065         4.55175 
         2.3378         49.0208         4.52228 
        2.34394         48.7902         4.49305 
        2.35007         48.6062         4.46412 
        2.35619         48.3822         4.43549 
        2.36233         48.1358         4.40704 
        2.36848         47.9506         4.37877 
        2.37462         47.6646         4.35082 
        2.38075         47.5444         4.32314 
        2.38689         47.3002         4.29567 
        2.39303         47.0331         4.26845 
        2.39916         46.8153          4.2415 
        2.40529         46.6733         4.21478 
        2.41143         46.4535         4.18827 
        2.41757         46.2014         4.16197 
         2.4237          45.985         4.13595 
        2.42983         45.7461         4.11016 
        2.43598         45.5416         4.08452 
        2.44211         45.3442         4.05914 
        2.44823         45.1595         4.03403 
        2.45437         44.9131         4.00906 
        2.46052         44.7373         3.98429 
        2.46665         44.5553         3.95977 
        2.47279         44.2671         3.93546 
        2.47892         44.1338         3.91134 
        2.48507         43.8659         3.88741 
         2.4912         43.7386         3.86371 
