# k  (h/Mpc)    P(k)  (Mpc/h)^3    P_linear(k)  (Mpc/h)^3
     0.00783031         20469.9         20862.8 
       0.013688         24806.1         24587.7 
       0.019231           23791         23748.1 
      0.0249154         20346.7         20829.2 
      0.0312784           16799         16983.3 
      0.0375637         13790.1         13734.4 
      0.0433917         11418.9         11576.9 
      0.0492413           10164         10183.2 
      0.0555754         9014.72          9277.5 
      0.0619321         8713.12         8660.94 
       0.067871         7882.99         8093.07 
      0.0738098         7222.47         7401.06 
      0.0800417         6335.38         6539.12 
      0.0862327         5582.68         5644.64 
      0.0921407         4969.03         4872.83 
      0.0982031         4334.52         4246.81 
       0.104506         4029.67         3800.23 
       0.110769         3731.96          3532.8 
       0.116806         3552.34         3380.73 
       0.122832         3406.82         3264.06 
       0.129052         3170.06         3120.58 
       0.135211          2987.9         2924.01 
       0.141259         2829.75          2681.9 
       0.147318         2624.69         2419.07 
       0.153489         2370.13         2167.38 
       0.159709         2216.36         1959.21 
       0.165845         2119.91         1810.29 
       0.171974         2011.81         1712.75 
       0.178125         1919.97         1650.01 
       0.184229         1838.35         1601.78 
        0.19034         1746.25          1548.7 
       0.196428         1703.23         1479.78 
       0.202534         1631.48         1393.16 
       0.208729         1545.53         1294.59 
       0.214876         1475.83         1197.42 
       0.220989         1415.54         1111.65 
       0.227147         1356.54         1042.21 
        0.23329         1300.19         990.674 
       0.239377         1277.66         953.437 
       0.245482         1198.44         923.829 
       0.251667         1192.21         895.297 
       0.257832         1142.79         863.454 
       0.263955         1103.49         826.514 
       0.270079         1061.97         785.339 
        0.27624         1047.39         742.566 
       0.282372         1004.26         702.134 
        0.28843         993.634          666.89 
       0.294538         942.346         637.223 
       0.300721         935.498         612.878 
        0.30691         899.758         592.567 
       0.313033         881.087         574.482 
       0.319153         862.925         556.484 
       0.325316         836.221         537.349 
        0.33145         815.656         516.979 
       0.337538         799.055         496.074 
       0.343633         781.279         475.378 
       0.349808         752.849          455.67 
       0.355968          747.09         437.973 
       0.362074         739.376         422.518 
       0.368217         715.546         408.874 
       0.374374         687.749         396.485 
       0.380519         688.035         384.801 
       0.386598          667.14         373.388 
       0.392688         664.203         361.782 
        0.39888         644.431         349.859 
       0.405048          635.79         338.012 
       0.411186          626.64         326.569 
       0.417313         613.685         315.794 
       0.423458         600.547         305.766 
       0.429607          594.36         296.536 
       0.435692         579.974         288.118 
       0.441815         573.868         280.145 
       0.447964         562.615         272.443 
       0.454126         556.627         264.906 
       0.460267         542.613         257.493 
       0.466387         535.821          250.18 
        0.47254         532.183         242.992 
       0.478662         526.324         236.095 
       0.484765         508.875         229.529 
       0.490885         505.061         223.279 
       0.497035         495.241         217.352 
       0.503198         491.389         211.731 
       0.509342         487.549          206.37 
       0.515458          483.29         201.206 
       0.521598         469.829         196.159 
       0.527764         463.803          191.22 
       0.533884          460.22         186.437 
           0.54         454.836         181.782 
       0.546137         451.544         177.257 
       0.552299         444.756         172.886 
       0.558452         441.333         168.708 
       0.564573          436.08         164.723 
       0.570708         429.684          160.88 
       0.576825         419.823         157.178 
       0.582926         419.501         153.599 
       0.589034         415.122         150.121 
       0.595184         412.178          146.72 
       0.601379         404.628         143.389 
       0.607522         399.684         140.177 
       0.613639         398.042         137.072 
       0.619772         391.495         134.055 
       0.625918         389.072          131.13 
       0.632068          382.82         128.303 
       0.638161         380.911         125.595 
         0.6443         375.586          122.95 
       0.650464         372.916         120.374 
       0.656582         368.399         117.887 
       0.662703         368.184         115.463 
       0.668861         362.578          113.09 
       0.675024         359.229          110.78 
       0.681124         355.926         108.557 
       0.687237         353.082         106.393 
       0.693381         347.766         104.282 
       0.699536         343.468         102.227 
       0.705665         341.754         100.239 
       0.711789         340.692         98.3059 
       0.717957         337.522         96.4113 
        0.72409          335.48         94.5766 
       0.730186         330.636         92.8001 
       0.736317         328.237         91.0589 
       0.742472         325.658         89.3559 
       0.748622         322.963          87.698 
        0.75476         318.717         86.0862 
       0.760888         315.662         84.5179 
       0.767043         315.522         82.9834 
       0.773185         312.544          81.491 
       0.779291         308.339         80.0444 
       0.785407         307.448         78.6314 
       0.791564         303.986         77.2441 
       0.797719         301.834         75.8912 
       0.803834         298.087         74.5794 
       0.809972         297.736          73.294 
       0.816124         296.488         72.0361 
       0.822261         293.561         70.8112 
       0.828378         291.141         69.6186 
       0.834502         287.885         68.4526 
       0.840667         286.225         67.3059 
       0.846816         284.943         66.1889 
       0.852925         283.265         65.1045 
       0.859047         280.828         64.0423 
       0.865192         277.457         63.0005 
       0.871341         275.226         61.9815 
       0.877463         275.366         60.9898 
       0.883569         272.829         60.0225 
       0.889708         270.103         59.0714 
       0.895864         269.607         58.1386 
       0.902008         266.817         57.2281 
       0.908149         264.288         56.3378 
       0.914301         262.196         55.4651 
       0.920448         260.782         54.6118 
       0.926574         257.823         53.7796 
       0.932687         257.732         52.9667 
       0.938823         254.888         52.1677 
       0.944975         254.539         51.3835 
       0.951105         252.434         50.6184 
       0.957225         251.017         49.8702 
       0.963368         247.403         49.1347 
       0.969511         246.828         48.4142 
       0.975621         245.116          47.712 
       0.981748         243.787         47.0221 
       0.987916         242.589         46.3416 
        0.99406         239.984         45.6771 
        1.00019         238.576         45.0271 
        1.00632         237.654         44.3904 
        1.01246         235.629         43.7652 
        1.01859         235.784          43.153 
        1.02471          232.04         42.5535 
        1.03085         231.221         41.9633 
        1.03698         229.827         41.3855 
        1.04314         228.011         40.8163 
        1.04929         226.642         40.2592 
        1.05541         226.507         39.7147 
        1.06154         223.353          39.179 
        1.06769         222.996         38.6525 
        1.07382         221.144         38.1374 
        1.07993         219.985         37.6329 
        1.08607         219.609         37.1355 
        1.09222          217.24         36.6467 
        1.09836         215.695         36.1673 
        1.10449         214.106          35.697 
        1.11063         212.545         35.2347 
        1.11677         211.974         34.7807 
         1.1229         209.891         34.3356 
        1.12903          209.27         33.8979 
        1.13518         207.919         33.4675 
        1.14131          206.39         33.0448 
        1.14745         206.331         32.6298 
        1.15359         204.316         32.2218 
        1.15973         202.601         31.8207 
        1.16584         201.753         31.4282 
        1.17197         201.751         31.0419 
        1.17811         198.947         30.6608 
        1.18424         198.238         30.2873 
        1.19038         197.621          29.919 
        1.19652         195.699          29.557 
        1.20267          195.58          29.201 
        1.20881         193.794          28.851 
        1.21495         192.724         28.5073 
        1.22108         191.504         28.1692 
         1.2272         190.349         27.8375 
        1.23334         190.078         27.5104 
        1.23949         187.743         27.1878 
        1.24562         187.139         26.8712 
        1.25174         186.463         26.5603 
        1.25789          185.36         26.2533 
        1.26402          183.32         25.9517 
        1.27014         182.566         25.6556 
        1.27628         181.454         25.3633 
        1.28244          181.41         25.0749 
        1.28858         179.559         24.7915 
        1.29471         178.782         24.5131 
        1.30084         177.528         24.2392 
        1.30697         176.233         23.9691 
        1.31312         175.086         23.7027 
        1.31925         174.028         23.4413 
        1.32537         173.951          23.184 
        1.33151         172.349         22.9298 
        1.33765         171.197         22.6795 
        1.34378         170.615         22.4334 
        1.34992          169.79         22.1908 
        1.35606         169.471         21.9513 
         1.3622         167.539         21.7158 
        1.36833         166.686         21.4844 
        1.37445         166.057         21.2564 
        1.38059         164.735          21.031 
        1.38675          164.25         20.8084 
        1.39288         163.236         20.5899 
        1.39901          162.46         20.3747 
        1.40515          161.21         20.1621 
         1.4113         160.635         19.9526 
        1.41742         159.275         19.7469 
        1.42355         158.763         19.5437 
         1.4297         157.509         19.3427 
        1.43585          156.82         19.1447 
        1.44198          156.44         18.9503 
        1.44809         155.399         18.7589 
        1.45423         154.809         18.5694 
        1.46036         153.484         18.3829 
        1.46649         152.667         18.1989 
        1.47263         151.923         18.0173 
        1.47877         150.665         17.8383 
        1.48491         149.598         17.6614 
        1.49104         149.504         17.4873 
        1.49718         148.048         17.3154 
        1.50333         147.347         17.1456 
        1.50947         146.499         16.9783 
         1.5156         145.913         16.8136 
        1.52172         145.255         16.6511 
        1.52787          143.97         16.4904 
          1.534         143.599          16.332 
        1.54013         142.788         16.1758 
        1.54627         141.977         16.0215 
        1.55241         140.983         15.8691 
        1.55855         140.275         15.7189 
        1.56467         139.186         15.5711 
         1.5708         138.412         15.4248 
        1.57695         138.317         15.2801 
        1.58308         137.469         15.1377 
        1.58922         136.713         14.9969 
        1.59535         135.863          14.858 
         1.6015         135.293         14.7207 
        1.60764         134.734         14.5852 
        1.61376         133.789         14.4517 
        1.61989         132.929         14.3199 
        1.62604         132.027         14.1893 
        1.63218         131.859         14.0605 
        1.63831         130.916         13.9336 
        1.64444         130.125         13.8083 
        1.65059         129.387         13.6841 
        1.65673         128.788         13.5617 
        1.66285         128.179         13.4411 
        1.66898          127.46         13.3219 
        1.67512         126.645         13.2039 
        1.68127         126.057         13.0872 
         1.6874         125.429         12.9723 
        1.69353         124.854         12.8588 
        1.69967         123.964         12.7463 
        1.70581         123.212         12.6353 
        1.71193         122.633          12.526 
        1.71806         122.261         12.4178 
        1.72421         121.661         12.3106 
        1.73035         121.145         12.2048 
        1.73649         120.306         12.1003 
        1.74262          119.74         11.9971 
        1.74876          119.08         11.8951 
        1.75489         118.358         11.7944 
        1.76101         117.548          11.695 
        1.76715         117.255         11.5965 
        1.77329         116.518         11.4991 
        1.77943          116.13         11.4027 
        1.78557         115.722         11.3076 
        1.79171         114.637         11.2136 
        1.79785         114.168         11.1206 
        1.80399          113.57         11.0287 
        1.81012         113.103          10.938 
        1.81625         112.613         10.8483 
        1.82239         111.969         10.7595 
        1.82853         111.195         10.6717 
        1.83466         110.764          10.585 
        1.84078         110.197         10.4994 
        1.84692         109.329         10.4146 
        1.85306         109.158         10.3306 
         1.8592         108.371         10.2476 
        1.86533         107.908         10.1657 
        1.87147         107.152         10.0845 
        1.87761         106.424         10.0042 
        1.88375         106.176         9.92482 
        1.88988         105.342         9.84642 
        1.89601         104.898         9.76882 
        1.90215         104.385           9.692 
        1.90829         103.876         9.61605 
        1.91442         103.513          9.5409 
        1.92056         102.704         9.46663 
         1.9267         102.362         9.39307 
        1.93284         101.716         9.32025 
        1.93897         101.143         9.24835 
        1.94509         100.912         9.17735 
        1.95123         100.281         9.10693 
        1.95737         99.6264         9.03719 
        1.96349         99.1738         8.96837 
        1.96964           98.49         8.90006 
        1.97578         97.9387         8.83243 
        1.98192         97.6524         8.76565 
        1.98805         97.2145         8.69955 
        1.99419         96.6034         8.63412 
        2.00033         96.1631         8.56934 
        2.00647          95.756         8.50524 
         2.0126         95.0921         8.44191 
        2.01874          94.588         8.37913 
        2.02488         94.2789         8.31693 
        2.03101         93.5973         8.25547 
        2.03714         93.1761          8.1947 
        2.04328         92.6157         8.13447 
        2.04941         92.2507          8.0749 
        2.05554         91.6851         8.01596 
        2.06167         91.3848         7.95754 
        2.06781         90.6485         7.89969 
        2.07396         90.5578         7.84234 
        2.08009          90.012         7.78565 
        2.08622         89.3443         7.72959 
        2.09237         89.1757         7.67397 
        2.09851         88.5924          7.6189 
        2.10464         88.1571         7.56445 
        2.11077         87.5059          7.5106 
        2.11691         87.3082         7.45716 
        2.12305         86.9151         7.40424 
        2.12918         86.4092         7.35195 
        2.13531          85.864         7.30017 
        2.14145          85.468         7.24877 
         2.1476          85.023          7.1978 
        2.15372         84.6239         7.14758 
        2.15985         84.1921         7.09779 
        2.16599         83.7046         7.04834 
        2.17213         83.3492          6.9994 
        2.17827         82.7269         6.95095 
         2.1844         82.4843           6.903 
        2.19054         82.0872         6.85548 
        2.19666         81.6534         6.80848 
         2.2028         81.2942         6.76188 
        2.20893         80.9059         6.71569 
        2.21508         80.4512         6.66988 
        2.22122         80.1088         6.62449 
        2.22736          79.563         6.57961 
        2.23349         79.2557         6.53516 
        2.23962         78.9483          6.4911 
        2.24577         78.5506         6.44741 
         2.2519         78.2125         6.40418 
        2.25802         77.7973         6.36141 
        2.26417         77.4217         6.31892 
        2.27031         76.9538         6.27678 
        2.27644         76.4195         6.23514 
        2.28257         76.1911         6.19388 
        2.28872         75.9521         6.15292 
        2.29486         75.4283         6.11234 
        2.30099         74.7966         6.07221 
        2.30712         74.6965         6.03242 
        2.31326          74.249         5.99292 
         2.3194         73.9298          5.9538 
        2.32553         73.6902         5.91509 
        2.33166         73.2461         5.87674 
         2.3378         72.7944         5.83868 
        2.34394         72.5312         5.80095 
        2.35007         72.1942          5.7636 
        2.35619         71.7714         5.72663 
        2.36233         71.3866          5.6899 
        2.36848         71.0334         5.65341 
        2.37462         70.7593         5.61732 
        2.38075         70.3363         5.58158 
        2.38689         69.9997         5.54612 
        2.39303         69.6704         5.51098 
        2.39916         69.3131         5.47617 
        2.40529         69.1642         5.44167 
        2.41143         68.5323         5.40745 
        2.41757          68.318          5.3735 
         2.4237          67.984         5.33991 
        2.42983         67.6768          5.3066 
        2.43598         67.3111          5.2735 
        2.44211         66.9763         5.24073 
        2.44823         66.7198         5.20831 
        2.45437         66.3547         5.17608 
        2.46052         66.0673         5.14409 
        2.46665         65.7504         5.11243 
        2.47279         65.3656         5.08105 
        2.47892         65.0103         5.04991 
        2.48507          64.735           5.019 
         2.4912         64.4615         4.98842 
