# k  (h/Mpc)    Pcb(k)  (Mpc/h)^3    Pcb_linear(k)  (Mpc/h)^3
     0.00783031         6934.91         6974.43 
       0.013688         8613.68         8783.34 
       0.019231         8868.28         8961.01 
      0.0249154         8317.33          8303.1 
      0.0312784          7154.4         7193.66 
      0.0375637         6078.28         6144.24 
      0.0433917         5378.05         5387.68 
      0.0492413         4816.72          4856.9 
      0.0555754         4463.18         4472.43 
      0.0619321         4075.16         4180.23 
       0.067871         3855.15         3908.25 
      0.0738098         3564.33         3594.92 
      0.0800417          3210.9         3223.55 
      0.0862327         2830.04         2847.47 
      0.0921407            2519         2523.39 
      0.0982031         2278.96         2255.54 
       0.104506         2051.89         2055.35 
       0.110769         1925.24         1923.17 
       0.116806         1860.43          1834.7 
       0.122832          1759.9         1758.19 
       0.129052         1675.21         1669.91 
       0.135211         1593.69         1563.29 
       0.141259         1462.27         1443.22 
       0.147318         1330.87         1319.39 
       0.153489         1233.82         1203.48 
       0.159709         1162.56         1107.39 
       0.165845         1066.87         1036.29 
       0.171974         1043.87         985.659 
       0.178125         1007.33         947.924 
       0.184229         946.814         914.838 
        0.19034         925.161          879.01 
       0.196428         889.391         837.092 
       0.202534         825.526         789.278 
       0.208729         799.749         738.407 
       0.214876         760.198         690.207 
       0.220989         707.435         648.272 
       0.227147         689.673         613.884 
        0.23329         664.108         587.046 
       0.239377         652.001         565.795 
       0.245482         621.273         547.098 
       0.251667         597.459         528.249 
       0.257832         589.883         507.897 
       0.263955         556.568         485.847 
       0.270079         535.285         462.743 
        0.27624         510.983         439.827 
       0.282372         497.505         418.737 
        0.28843         492.508         400.408 
       0.294538         467.986         384.678 
       0.300721         452.589         371.102 
        0.30691         445.589         359.053 
       0.313033         426.601         347.735 
       0.319153         419.397         336.357 
       0.325316         409.035         324.497 
        0.33145          398.55         312.391 
       0.337538         384.209           300.4 
       0.343633         372.133         288.887 
       0.349808         361.999         278.066 
       0.355968         354.293         268.322 
       0.362074         344.507         259.642 
       0.368217         340.226           251.7 
       0.374374         332.687         244.247 
       0.380519         319.333         237.032 
       0.386598         314.495          229.96 
       0.392688          306.67         222.872 
        0.39888         299.421         215.721 
       0.405048         293.582         208.789 
       0.411186         290.889         202.193 
       0.417313         285.171         196.004 
       0.423458         277.473         190.235 
       0.429607         270.947         184.843 
       0.435692         266.198         179.814 
       0.441815         261.042         174.978 
       0.447964         253.991         170.258 
       0.454126         250.171         165.616 
       0.460267         247.092         161.084 
       0.466387         242.057         156.674 
        0.47254          239.07         152.377 
       0.478662         232.013         148.274 
       0.484765         229.202         144.384 
       0.490885         225.872         140.674 
       0.497035         223.006         137.117 
       0.503198         220.206         133.703 
       0.509342         214.387         130.423 
       0.515458         211.786         127.255 
       0.521598         206.981         124.151 
       0.527764         204.787         121.113 
       0.533884         204.022         118.186 
           0.54         199.197         115.357 
       0.546137         194.737         112.619 
       0.552299         193.112          109.97 
       0.558452         189.735         107.424 
       0.564573         188.633         104.985 
       0.570708         184.209         102.625 
       0.576825         181.766         100.348 
       0.582926         179.867         98.1399 
       0.589034          177.26         95.9874 
       0.595184         175.793         93.8788 
       0.601379         172.063         91.8171 
       0.607522         169.064         89.8354 
       0.613639         167.811         87.9245 
       0.619772         165.848         86.0688 
       0.625918         164.508          84.266 
       0.632068         160.871         82.5162 
       0.638161         159.191         80.8332 
         0.6443         158.363         79.1859 
       0.650464         155.297         77.5791 
       0.656582         154.526         76.0285 
       0.662703         152.872         74.5198 
       0.668861         149.797          73.043 
       0.675024         149.822         71.6048 
       0.681124         147.397         70.2199 
       0.687237         145.312         68.8694 
       0.693381         144.236         67.5489 
       0.699536         142.483         66.2618 
       0.705665         140.728         65.0149 
       0.711789         139.008         63.8023 
       0.717957         137.492         62.6131 
        0.72409         136.383         61.4613 
       0.730186         135.999         60.3459 
       0.736317         133.698         59.2522 
       0.742472         131.918         58.1816 
       0.748622         129.941         57.1386 
        0.75476         130.184         56.1236 
       0.760888         128.929          55.135 
       0.767043          126.63         54.1665 
       0.773185         125.272         53.2237 
       0.779291         123.875          52.309 
       0.785407         122.788         51.4148 
       0.791564         122.174         50.5363 
       0.797719         120.569          49.679 
       0.803834         120.158         48.8474 
       0.809972         119.266         48.0321 
       0.816124         117.598         47.2339 
       0.822261         116.398         46.4562 
       0.828378         116.164         45.6987 
       0.834502         114.379         44.9576 
       0.840667         113.844         44.2283 
       0.846816         112.788         43.5175 
       0.852925         111.536          42.827 
       0.859047         110.884         42.1503 
       0.865192         109.769         41.4861 
       0.871341         108.589          40.836 
       0.877463         107.823          40.203 
       0.883569         107.677         39.5851 
       0.889708         106.678         38.9773 
       0.895864         105.714         38.3808 
       0.902008         104.685         37.7981 
       0.908149          103.38         37.2281 
       0.914301         103.337         36.6691 
       0.920448         102.876         36.1222 
       0.926574         100.875         35.5885 
       0.932687         100.786         35.0668 
       0.938823         99.9757         34.5539 
       0.944975         98.8499         34.0501 
       0.951105           98.06         33.5583 
       0.957225         97.9511         33.0772 
       0.963368         96.8214          32.604 
       0.969511         96.1137         32.1401 
       0.975621         95.2699         31.6879 
       0.981748         94.5023         31.2432 
       0.987916         93.8915         30.8044 
        0.99406         93.5376         30.3758 
        1.00019          92.393         29.9563 
        1.00632         91.8287         29.5451 
        1.01246         91.2555         29.1411 
        1.01859         90.8541         28.7454 
        1.02471         90.0285         28.3577 
        1.03085         89.2335         27.9758 
        1.03698         88.7054         27.6018 
        1.04314         88.0475         27.2332 
        1.04929         87.6589         26.8722 
        1.05541         87.0256         26.5193 
        1.06154         86.5003         26.1719 
        1.06769           85.72         25.8303 
        1.07382         84.9748          25.496 
        1.07993         84.7496         25.1684 
        1.08607         84.0454         24.8453 
        1.09222         83.7778         24.5276 
        1.09836         82.9249         24.2159 
        1.10449         82.4986           23.91 
        1.11063         81.8953         23.6091 
        1.11677         81.4471         23.3136 
         1.1229         80.7575         23.0237 
        1.12903          80.505         22.7385 
        1.13518         80.1524          22.458 
        1.14131         79.4416         22.1824 
        1.14745          78.928         21.9116 
        1.15359         78.0301         21.6454 
        1.15973         77.9853         21.3835 
        1.16584         77.4315         21.1271 
        1.17197         76.8318         20.8747 
        1.17811         76.3682         20.6256 
        1.18424         75.6372         20.3813 
        1.19038         75.5935         20.1404 
        1.19652         75.1134         19.9034 
        1.20267         74.5381         19.6704 
        1.20881         74.0958         19.4411 
        1.21495         73.7059         19.2159 
        1.22108         73.4371         18.9943 
         1.2272          72.682         18.7767 
        1.23334         72.4643         18.5621 
        1.23949         71.9801         18.3504 
        1.24562         71.4482         18.1425 
        1.25174         71.0415         17.9383 
        1.25789         70.9978         17.7366 
        1.26402         70.3683         17.5383 
        1.27014         70.0825         17.3436 
        1.27628         69.4213         17.1513 
        1.28244         69.2905         16.9616 
        1.28858         68.8184         16.7751 
        1.29471         68.4196         16.5917 
        1.30084         67.7794         16.4114 
        1.30697         67.8601         16.2334 
        1.31312         67.2616         16.0579 
        1.31925          66.786         15.8855 
        1.32537         66.4705         15.7159 
        1.33151         66.1905         15.5481 
        1.33765         65.7569         15.3829 
        1.34378         65.4776         15.2205 
        1.34992          65.136         15.0603 
        1.35606         64.6554         14.9021 
         1.3622         64.4122         14.7465 
        1.36833         63.9717         14.5935 
        1.37445         63.4392         14.4427 
        1.38059         63.3679         14.2937 
        1.38675         62.6893         14.1464 
        1.39288         62.6997         14.0018 
        1.39901         62.1256         13.8592 
        1.40515          61.928         13.7184 
         1.4113         61.7342         13.5796 
        1.41742          61.309         13.4433 
        1.42355         60.9763         13.3086 
         1.4297         60.6517         13.1753 
        1.43585         60.2374          13.044 
        1.44198         59.9026         12.9149 
        1.44809         59.5547         12.7878 
        1.45423         59.3281          12.662 
        1.46036         58.9754         12.5382 
        1.46649         58.7962         12.4159 
        1.47263          58.439         12.2952 
        1.47877         58.2201         12.1762 
        1.48491         57.8979         12.0586 
        1.49104         57.4043         11.9428 
        1.49718          57.223         11.8284 
        1.50333         56.9501         11.7154 
        1.50947         56.6812          11.604 
         1.5156         56.4444         11.4943 
        1.52172         56.0242         11.3861 
        1.52787         55.7093          11.279 
          1.534          55.488         11.1734 
        1.54013         55.3585         11.0693 
        1.54627          54.828         10.9664 
        1.55241         54.5741         10.8647 
        1.55855         54.4426         10.7645 
        1.56467         53.9823         10.6659 
         1.5708         53.9129         10.5682 
        1.57695         53.5829         10.4716 
        1.58308         53.2343         10.3764 
        1.58922         53.0163         10.2824 
        1.59535          52.859         10.1896 
         1.6015         52.7683         10.0978 
        1.60764         52.3469         10.0072 
        1.61376         52.0454         9.91791 
        1.61989         51.6955         9.82969 
        1.62604         51.5164         9.74235 
        1.63218         51.2317         9.65613 
        1.63831         51.1018         9.57116 
        1.64444         50.8253         9.48719 
        1.65059          50.573         9.40404 
        1.65673         50.2306         9.32198 
        1.66285         50.1363         9.24113 
        1.66898         49.6729         9.16122 
        1.67512         49.5552         9.08211 
        1.68127         49.3284         9.00387 
         1.6874         49.0568         8.92673 
        1.69353         48.9105         8.85055 
        1.69967         48.7027         8.77508 
        1.70581         48.3446         8.70053 
        1.71193         48.1508         8.62713 
        1.71806         47.9299         8.55443 
        1.72421         47.7376         8.48244 
        1.73035          47.493         8.41135 
        1.73649         47.1664         8.34111 
        1.74262         46.8557         8.27172 
        1.74876         46.8511         8.20309 
        1.75489         46.5034         8.13538 
        1.76101         46.3078         8.06846 
        1.76715         46.2582          8.0022 
        1.77329         45.7674         7.93662 
        1.77943         45.7934         7.87174 
        1.78557         45.5591         7.80769 
        1.79171         45.3025         7.74435 
        1.79785         45.0832          7.6817 
        1.80399         44.8461         7.61976 
        1.81012         44.6993         7.55859 
        1.81625         44.3659         7.49813 
        1.82239         44.1873         7.43824 
        1.82853         44.0487         7.37904 
        1.83466         43.7941         7.32054 
        1.84078           43.61         7.26275 
        1.84692         43.3718         7.20549 
        1.85306         43.1467         7.14878 
         1.8592         43.0322         7.09277 
        1.86533          42.817          7.0374 
        1.87147         42.6006         6.98256 
        1.87761         42.3522         6.92829 
        1.88375          42.231         6.87465 
        1.88988         42.0673         6.82165 
        1.89601         41.8032         6.76918 
        1.90215         41.6193         6.71722 
        1.90829         41.4363         6.66584 
        1.91442          41.213         6.61499 
        1.92056         41.0513         6.56473 
         1.9267         40.9656         6.51493 
        1.93284         40.6842         6.46563 
        1.93897         40.5902         6.41693 
        1.94509          40.266         6.36884 
        1.95123         40.1521         6.32113 
        1.95737          39.898         6.27387 
        1.96349         39.8275         6.22723 
        1.96964         39.5982         6.18092 
        1.97578         39.4064         6.13507 
        1.98192         39.2201         6.08978 
        1.98805         39.0245         6.04494 
        1.99419         38.8955         6.00056 
        2.00033         38.7218          5.9566 
        2.00647         38.6116          5.9131 
         2.0126         38.3667         5.87011 
        2.01874         38.1861         5.82748 
        2.02488         37.9864         5.78524 
        2.03101         37.8433          5.7435 
        2.03714          37.679         5.70222 
        2.04328           37.55         5.66129 
        2.04941         37.3325         5.62081 
        2.05554         37.2005         5.58075 
        2.06167         37.0292         5.54102 
        2.06781         36.8482         5.50169 
        2.07396         36.6938         5.46268 
        2.08009          36.544         5.42411 
        2.08622         36.3681         5.38597 
        2.09237         36.2161         5.34812 
        2.09851          36.042         5.31063 
        2.10464         35.8606         5.27356 
        2.11077         35.7646          5.2369 
        2.11691         35.5077          5.2005 
        2.12305         35.3511         5.16445 
        2.12918         35.2459         5.12883 
        2.13531         35.1014         5.09355 
        2.14145         34.9507         5.05852 
         2.1476         34.7625         5.02378 
        2.15372         34.6828         4.98954 
        2.15985         34.4395         4.95559 
        2.16599         34.2678         4.92186 
        2.17213         34.1596         4.88848 
        2.17827         34.0042         4.85542 
         2.1844         33.8618          4.8227 
        2.19054         33.7221         4.79026 
        2.19666         33.5297         4.75818 
         2.2028         33.4205         4.72636 
        2.20893         33.2979         4.69482 
        2.21508         33.1653         4.66353 
        2.22122         32.9808         4.63252 
        2.22736          32.786         4.60185 
        2.23349         32.6864         4.57148 
        2.23962         32.5623         4.54136 
        2.24577         32.4299         4.51149 
         2.2519          32.247         4.48193 
        2.25802         32.1209         4.45268 
        2.26417         31.9527         4.42362 
        2.27031         31.8767         4.39479 
        2.27644         31.7896          4.3663 
        2.28257         31.5558         4.33807 
        2.28872         31.5032         4.31003 
        2.29486          31.312         4.28225 
        2.30099         31.1285         4.25478 
        2.30712         31.0548         4.22753 
        2.31326         30.8966         4.20048 
         2.3194         30.7628         4.17368 
        2.32553         30.6573         4.14716 
        2.33166         30.5227         4.12088 
         2.3378         30.3994          4.0948 
        2.34394         30.2495         4.06894 
        2.35007         30.1747         4.04333 
        2.35619         30.0417         4.01798 
        2.36233         29.8549         3.99279 
        2.36848         29.7441         3.96776 
        2.37462         29.6603           3.943 
        2.38075          29.483         3.91848 
        2.38689         29.3453         3.89415 
        2.39303         29.3201         3.87003 
        2.39916         29.0804         3.84614 
        2.40529         28.9679         3.82245 
        2.41143         28.8752         3.79895 
        2.41757          28.753         3.77563 
         2.4237         28.6456         3.75256 
        2.42983          28.505         3.72968 
        2.43598         28.3783         3.70693 
        2.44211         28.2789         3.68441 
        2.44823         28.1106         3.66213 
        2.45437         28.1003         3.63998 
        2.46052         27.9094         3.61799 
        2.46665         27.7849         3.59622 
        2.47279         27.6156         3.57463 
        2.47892         27.5546         3.55322 
        2.48507         27.4458         3.53196 
         2.4912         27.3609         3.51091 
