# k  (h/Mpc)    P(k)  (Mpc/h)^3    P_linear(k)  (Mpc/h)^3
     0.00783031         11954.8         12020.4 
       0.013688         14480.4         14827.5 
       0.019231         14758.1         14960.5 
      0.0249154         13800.3         13775.9 
      0.0312784         11780.6         11885.9 
      0.0375637         9951.01         10109.6 
      0.0433917         8771.53         8815.24 
      0.0492413         7789.24         7889.67 
      0.0555754         7169.43         7208.37 
      0.0619321         6470.78         6699.94 
       0.067871          6124.7          6252.1 
      0.0738098         5682.52         5757.38 
      0.0800417         5133.06         5178.31 
      0.0862327         4536.28         4586.33 
      0.0921407         4055.49         4064.74 
      0.0982031         3671.11         3620.14 
       0.104506         3280.82         3274.75 
       0.110769         3061.11         3037.98 
       0.116806         2945.37         2879.05 
       0.122832         2778.48         2750.76 
       0.129052          2638.5         2615.93 
       0.135211         2535.81            2460 
       0.141259         2333.01         2283.68 
       0.147318         2137.02         2096.52 
       0.153489         1991.42          1913.9 
       0.159709         1890.12         1754.74 
       0.165845         1725.73         1630.52 
       0.171974         1684.54         1538.15 
       0.178125         1626.54         1469.39 
       0.184229         1512.12         1413.66 
        0.19034         1485.99         1359.56 
       0.196428         1437.99         1300.08 
       0.202534         1341.81         1232.63 
       0.208729         1310.57         1158.78 
       0.214876         1246.87         1085.48 
       0.220989         1172.08         1018.11 
       0.227147         1140.45         959.669 
        0.23329         1095.27         911.963 
       0.239377         1083.91         873.827 
       0.245482          1030.6          841.73 
       0.251667         993.121         812.001 
       0.257832         979.487         782.252 
       0.263955         929.999         750.999 
       0.270079         899.766         718.021 
        0.27624         861.763         684.262 
       0.282372         846.169         651.705 
        0.28843         835.643         622.048 
       0.294538         793.716         595.476 
       0.300721         774.261         572.119 
        0.30691         758.981         551.644 
       0.313033         726.875         533.302 
       0.319153         717.144         515.837 
       0.325316         706.274         498.408 
        0.33145         690.229         480.843 
       0.337538          665.72         463.318 
       0.343633         648.072         446.004 
       0.349808         633.045         429.199 
       0.355968         621.422         413.525 
       0.362074         600.378          399.27 
       0.368217          597.91          386.17 
       0.374374         587.823         374.063 
       0.380519         564.988          362.72 
       0.386598         559.819         351.918 
       0.392688           546.9         341.334 
        0.39888         532.962         330.734 
       0.405048         523.125         320.351 
       0.411186         521.667         310.315 
       0.417313          516.27         300.705 
       0.423458         500.837         291.554 
       0.429607         487.112         282.943 
       0.435692         480.887         274.922 
       0.441815         472.406         267.274 
       0.447964         463.611         259.943 
       0.454126          458.38         252.863 
       0.460267         450.959         246.001 
       0.466387         443.116         239.339 
        0.47254         436.727          232.83 
       0.478662         428.087         226.556 
       0.484765         423.223         220.527 
       0.490885         418.888         214.731 
       0.497035         410.559         209.167 
       0.503198         410.184         203.831 
       0.509342         400.793         198.726 
       0.515458         393.858         193.834 
       0.521598         388.758         189.089 
       0.527764         382.529         184.469 
       0.533884         380.271         180.012 
           0.54         375.364          175.69 
       0.546137         367.769         171.489 
       0.552299         366.843         167.413 
       0.558452         360.914         163.485 
       0.564573         357.932         159.711 
       0.570708         353.022          156.06 
       0.576825         346.577         152.544 
       0.582926         344.637         149.153 
       0.589034         339.237         145.862 
       0.595184         337.035         142.645 
       0.601379         331.726         139.497 
       0.607522         325.329         136.465 
       0.613639         324.277         133.535 
       0.619772         323.009         130.687 
       0.625918         317.354         127.919 
       0.632068         314.011         125.233 
       0.638161          311.85         122.652 
         0.6443         308.184         120.126 
       0.650464         304.157         117.664 
       0.656582         301.431         115.289 
       0.662703         299.575          112.98 
       0.668861         294.335         110.722 
       0.675024         293.042         108.524 
       0.681124         289.285         106.408 
       0.687237         287.404         104.344 
       0.693381         283.559         102.326 
       0.699536         281.868         100.358 
       0.705665         278.934         98.4514 
       0.711789         276.715         96.5971 
       0.717957          273.74          94.779 
        0.72409          270.38         93.0187 
       0.730186         272.141         91.3146 
       0.736317         267.307         89.6446 
       0.742472         264.517         88.0107 
       0.748622         261.674         86.4194 
        0.75476         261.491         84.8711 
       0.760888         258.299         83.3634 
       0.767043         255.344         81.8868 
       0.773185         253.943         80.4493 
       0.779291         250.489         79.0549 
       0.785407          249.63          77.692 
       0.791564         247.321         76.3531 
       0.797719         243.379         75.0468 
       0.803834          245.25         73.7797 
       0.809972         241.942         72.5378 
       0.816124         238.569         71.3221 
       0.822261           236.9         70.1379 
       0.828378         236.427         68.9845 
       0.834502         233.166         67.8563 
       0.840667         233.284         66.7463 
       0.846816         228.925         65.6646 
       0.852925         228.851         64.6139 
       0.859047         226.716         63.5842 
       0.865192          226.24         62.5739 
       0.871341         223.241          61.585 
       0.877463          221.46         60.6222 
       0.883569          220.98         59.6827 
       0.889708         218.881         58.7585 
       0.895864         216.898         57.8516 
       0.902008         215.112          56.966 
       0.908149         213.428         56.0996 
       0.914301         212.173         55.2501 
       0.920448         211.604         54.4191 
       0.926574         209.353         53.6083 
       0.932687         208.707         52.8159 
       0.938823         206.808         52.0369 
       0.944975         205.975         51.2719 
       0.951105         203.769         50.5252 
       0.957225         202.405         49.7949 
       0.963368          201.92         49.0766 
       0.969511         198.852         48.3727 
       0.975621         197.501         47.6865 
       0.981748         196.819         47.0119 
       0.987916         195.934         46.3464 
        0.99406         194.315         45.6963 
        1.00019         193.174         45.0601 
        1.00632          192.19         44.4368 
        1.01246         190.796         43.8244 
        1.01859         189.109         43.2246 
        1.02471          187.72          42.637 
        1.03085          186.65         42.0583 
        1.03698         185.655         41.4917 
        1.04314         185.258         40.9332 
        1.04929         184.092         40.3864 
        1.05541         182.875         39.8519 
        1.06154         181.157         39.3259 
        1.06769         180.145         38.8086 
        1.07382         179.458         38.3024 
        1.07993         177.651         37.8064 
        1.08607         176.934         37.3173 
        1.09222         175.598         36.8364 
        1.09836         174.937         36.3646 
        1.10449         173.473         35.9016 
        1.11063         172.416         35.4463 
        1.11677         171.615         34.9991 
         1.1229         170.405         34.5605 
        1.12903         169.394          34.129 
        1.13518         168.284         33.7047 
        1.14131         167.597         33.2878 
        1.14745         166.209         32.8783 
        1.15359         164.881         32.4757 
        1.15973         164.494         32.0797 
        1.16584         163.585         31.6921 
        1.17197         162.681         31.3104 
        1.17811         161.263         30.9339 
        1.18424         160.589         30.5648 
        1.19038         159.614         30.2006 
        1.19652         158.486         29.8426 
        1.20267         157.541         29.4905 
        1.20881         156.455         29.1441 
        1.21495         156.268         28.8039 
        1.22108         155.032         28.4692 
         1.2272         153.879         28.1407 
        1.23334         153.303         27.8166 
        1.23949         152.725          27.497 
        1.24562          151.61         27.1832 
        1.25174         150.877         26.8749 
        1.25789         149.625         26.5704 
        1.26402         149.432         26.2713 
        1.27014         148.521         25.9775 
        1.27628         147.123         25.6874 
        1.28244         146.624         25.4012 
        1.28858         145.659         25.1197 
        1.29471         144.817         24.8432 
        1.30084         143.915         24.5712 
        1.30697         143.023         24.3028 
        1.31312         142.271         24.0381 
        1.31925         141.279         23.7781 
        1.32537         140.824         23.5223 
        1.33151         140.253         23.2694 
        1.33765         138.967         23.0204 
        1.34378         138.857         22.7755 
        1.34992         137.988          22.534 
        1.35606         137.181         22.2956 
         1.3622         136.701          22.061 
        1.36833           135.3         21.8304 
        1.37445         135.249         21.6032 
        1.38059         134.216         21.3786 
        1.38675         133.472         21.1567 
        1.39288         132.506         20.9388 
        1.39901         131.901         20.7241 
        1.40515         131.466         20.5119 
         1.4113          130.55         20.3029 
        1.41742         129.831         20.0975 
        1.42355         129.581         19.8947 
         1.4297         128.467          19.694 
        1.43585          127.88         19.4963 
        1.44198         126.712          19.302 
        1.44809         126.277         19.1107 
        1.45423         125.979         18.9213 
        1.46036         124.807         18.7349 
        1.46649         124.199          18.551 
        1.47263         123.707         18.3693 
        1.47877         122.795         18.1902 
        1.48491         122.467         18.0133 
        1.49104         121.124          17.839 
        1.49718         120.955          17.667 
        1.50333         120.528          17.497 
        1.50947          119.77         17.3295 
         1.5156         119.091         17.1646 
        1.52172         118.403         17.0018 
        1.52787         117.932         16.8407 
          1.534         117.276          16.682 
        1.54013         116.628         16.5255 
        1.54627         115.832         16.3707 
        1.55241         115.588         16.2179 
        1.55855         114.835         16.0673 
        1.56467         114.115          15.919 
         1.5708         113.191         15.7722 
        1.57695         113.063          15.627 
        1.58308         112.239          15.484 
        1.58922         112.156         15.3427 
        1.59535         111.666         15.2032 
         1.6015         110.624         15.0652 
        1.60764         109.947         14.9291 
        1.61376         109.564          14.795 
        1.61989         109.087         14.6625 
        1.62604         108.322         14.5313 
        1.63218         107.932         14.4018 
        1.63831         107.276         14.2742 
        1.64444         106.549         14.1481 
        1.65059         106.021         14.0232 
        1.65673         105.893            13.9 
        1.66285         105.285         13.7786 
        1.66898         104.462         13.6586 
        1.67512         103.958         13.5399 
        1.68127         103.588         13.4224 
         1.6874         102.696         13.3066 
        1.69353          102.31         13.1923 
        1.69967         101.777          13.079 
        1.70581          101.53         12.9671 
        1.71193         100.831          12.857 
        1.71806         100.297         12.7479 
        1.72421          99.728         12.6399 
        1.73035          99.299         12.5332 
        1.73649         98.6425         12.4278 
        1.74262         98.3463         12.3238 
        1.74876         97.6222         12.2208 
        1.75489         97.3203         12.1192 
        1.76101         96.7591         12.0189 
        1.76715         96.1676         11.9195 
        1.77329         95.7498         11.8212 
        1.77943         95.2803         11.7239 
        1.78557          94.957         11.6278 
        1.79171         94.4088         11.5328 
        1.79785         93.6262         11.4389 
        1.80399         93.5712         11.3461 
        1.81012         92.7579         11.2544 
        1.81625         92.3295         11.1637 
        1.82239         91.9747         11.0739 
        1.82853         91.4155         10.9852 
        1.83466         90.8046         10.8975 
        1.84078          90.658         10.8109 
        1.84692         90.3398         10.7251 
        1.85306         89.8182         10.6401 
         1.8592         89.3896         10.5562 
        1.86533         88.7825         10.4732 
        1.87147         88.4709          10.391 
        1.87761         87.6352         10.3097 
        1.88375         87.4471         10.2294 
        1.88988         86.7377           10.15 
        1.89601         86.7776         10.0714 
        1.90215         86.0876         9.99357 
        1.90829         85.5647         9.91662 
        1.91442         85.2164         9.84047 
        1.92056         84.9384         9.76519 
         1.9267         84.3708         9.69063 
        1.93284         84.0955          9.6168 
        1.93897         83.6375         9.54389 
        1.94509         83.1582         9.47189 
        1.95123         82.7599         9.40046 
        1.95737         82.4936         9.32972 
        1.96349         82.0868         9.25989 
        1.96964         81.6436         9.19058 
        1.97578         81.1231         9.12195 
        1.98192         80.6794         9.05417 
        1.98805         80.1542         8.98707 
        1.99419         80.1117         8.92065 
        2.00033         79.3987         8.85487 
        2.00647         79.0928         8.78977 
         2.0126         78.7342         8.72545 
        2.01874         78.6013         8.66167 
        2.02488         78.0742         8.59848 
        2.03101         77.5788         8.53603 
        2.03714         77.2924         8.47427 
        2.04328         77.0204         8.41305 
        2.04941         76.5382         8.35249 
        2.05554         76.1335         8.29258 
        2.06167         75.6198         8.23317 
        2.06781         75.2481         8.17433 
        2.07396         75.0025         8.11599 
        2.08009         74.5009         8.05832 
        2.08622         74.3312         8.00128 
        2.09237         73.9716         7.94468 
        2.09851         73.2776         7.88863 
        2.10464         73.1876         7.83321 
        2.11077         72.9526         7.77839 
        2.11691         72.5649         7.72397 
        2.12305         72.0818         7.67008 
        2.12918         71.7917         7.61683 
        2.13531         71.3556         7.56409 
        2.14145         70.9862         7.51172 
         2.1476         70.8408          7.4598 
        2.15372         70.3208         7.40862 
        2.15985         69.9351         7.35788 
        2.16599         69.6882         7.30747 
        2.17213         69.2596         7.25759 
        2.17827         68.8249         7.20819 
         2.1844         68.5907         7.15929 
        2.19054         68.3357         7.11084 
        2.19666         68.1084          7.0629 
         2.2028         67.5938         7.01536 
        2.20893         67.3001         6.96824 
        2.21508         66.8874          6.9215 
        2.22122         66.5634         6.87518 
        2.22736         66.3105         6.82938 
        2.23349         65.9337         6.78401 
        2.23962         65.7716         6.73902 
        2.24577         65.3371         6.69441 
         2.2519         64.9746         6.65027 
        2.25802         64.7004          6.6066 
        2.26417         64.3452         6.56319 
        2.27031         64.0701         6.52014 
        2.27644         63.8091         6.47761 
        2.28257         63.4624         6.43546 
        2.28872         63.1262          6.3936 
        2.29486         62.9582         6.35213 
        2.30099         62.4763         6.31111 
        2.30712         62.3087         6.27044 
        2.31326         62.0603         6.23005 
         2.3194          61.696         6.19005 
        2.32553         61.3579         6.15047 
        2.33166         61.0819         6.11126 
         2.3378          60.809         6.07233 
        2.34394         60.4758         6.03373 
        2.35007         60.2249         5.99552 
        2.35619         59.9506          5.9577 
        2.36233         59.6624         5.92011 
        2.36848         59.3455         5.88276 
        2.37462          59.046         5.84582 
        2.38075         58.7871         5.80924 
        2.38689         58.4056         5.77293 
        2.39303         58.2452         5.73695 
        2.39916         57.9138         5.70131 
        2.40529          57.718         5.66598 
        2.41143         57.4711         5.63092 
        2.41757         57.0473         5.59614 
         2.4237         56.9841         5.56172 
        2.42983         56.6391          5.5276 
        2.43598         56.4081         5.49368 
        2.44211         55.9887         5.46009 
        2.44823         55.8511         5.42686 
        2.45437         55.4732         5.39382 
        2.46052         55.1544         5.36103 
        2.46665         54.9528         5.32857 
        2.47279         54.7132         5.29639 
        2.47892         54.5273         5.26446 
        2.48507         54.2113         5.23276 
         2.4912         53.9889         5.20138 
