#  k  (h/Mpc)          P(k)  (Mpc/h)^3     P_linear(k) (Mpc/h)^3
     0.00783031         6463.24         6491.39 
       0.013688         8323.19         8484.38 
       0.019231         8995.94         9094.51 
      0.0249154         8931.12         8938.08 
      0.0312784         8207.78         8286.87 
      0.0375637         7381.14         7500.38 
      0.0433917         6775.17          6826.3 
      0.0492413         6172.56         6270.41 
      0.0555754         5741.33         5801.07 
      0.0619321         5233.56         5420.48 
       0.067871         4975.66         5094.13 
      0.0738098         4668.66         4759.48 
      0.0800417         4311.75         4386.01 
      0.0862327         3918.87         4003.68 
      0.0921407          3579.7         3652.13 
      0.0982031         3294.49         3329.38 
       0.104506         2985.19         3050.96 
       0.110769         2780.85         2834.17 
       0.116806         2664.37         2671.72 
       0.122832         2500.83         2538.46 
       0.129052         2384.12          2412.9 
       0.135211            2293         2286.45 
       0.141259         2139.26         2154.17 
       0.147318         1980.45         2015.36 
       0.153489         1868.83         1874.74 
       0.159709         1778.86         1742.84 
       0.165845          1630.3         1629.27 
       0.171974         1587.91         1535.06 
       0.178125         1526.99         1458.27 
       0.184229         1423.38         1395.04 
        0.19034          1394.4         1338.75 
       0.196428          1349.6         1284.27 
       0.202534         1266.76         1227.81 
       0.208729         1238.66         1167.78 
       0.214876         1189.37         1106.88 
       0.220989         1114.51         1047.72 
       0.227147         1089.45         992.387 
        0.23329         1048.81         943.359 
       0.239377         1029.51         901.406 
       0.245482         979.943          865.21 
       0.251667         943.313         832.885 
       0.257832          933.61         803.007 
       0.263955         886.054         773.996 
       0.270079         859.547         744.658 
        0.27624         823.182         714.662 
       0.282372         806.866          684.87 
        0.28843         800.074         656.328 
       0.294538         760.565         629.311 
       0.300721         737.693         604.319 
        0.30691         726.246         581.812 
       0.313033         697.207         561.739 
       0.319153         686.227         543.309 
       0.325316         673.176         525.767 
        0.33145         659.528         508.804 
       0.337538         636.846         492.143 
       0.343633         618.493         475.599 
       0.349808         603.671         459.117 
       0.355968         592.416         443.225 
       0.362074          575.97         428.254 
       0.368217         570.989          414.16 
       0.374374         560.448         401.028 
       0.380519         539.183         388.824 
       0.386598         532.736         377.474 
       0.392688           522.5         366.617 
        0.39888         508.674         355.941 
       0.405048         500.941         345.564 
       0.411186          497.77         335.448 
       0.417313         490.679         325.612 
       0.423458         476.556         316.068 
       0.429607         465.791         306.906 
       0.435692         457.732         298.282 
       0.441815         450.928         290.046 
       0.447964         440.845          282.19 
       0.454126         435.062         274.688 
       0.460267         428.876         267.513 
       0.466387         422.319         260.596 
        0.47254         416.514         253.842 
       0.478662         406.252         247.311 
       0.484765         402.273         240.982 
       0.490885         398.123          234.83 
       0.497035         391.677         228.865 
       0.503198         389.493         223.122 
       0.509342         379.359         217.624 
       0.515458         374.872         212.365 
       0.521598         367.795         207.286 
       0.527764         363.055         202.367 
       0.533884         362.443         197.641 
           0.54         355.891         193.058 
       0.546137         348.295         188.588 
       0.552299          347.44         184.231 
       0.558452         341.958         180.014 
       0.564573         338.577         175.948 
       0.570708         333.674         172.002 
       0.576825         328.191         168.197 
       0.582926         324.997         164.528 
       0.589034         321.126         160.974 
       0.595184         319.154         157.508 
       0.601379          313.04          154.12 
       0.607522         308.276         150.856 
       0.613639         306.147         147.697 
       0.619772         304.229         144.618 
       0.625918         300.685          141.62 
       0.632068         295.245         138.706 
       0.638161         292.339         135.901 
         0.6443         291.026         133.155 
       0.650464         286.318         130.477 
       0.656582         284.021         127.894 
       0.662703         281.997         125.383 
       0.668861          277.26         122.926 
       0.675024         276.405         120.535 
       0.681124         272.964         118.232 
       0.687237         269.988         115.984 
       0.693381         267.967         113.783 
       0.699536         264.633         111.635 
       0.705665         261.705         109.551 
       0.711789         259.603         107.524 
       0.717957         256.692         105.534 
        0.72409         254.845         103.607 
       0.730186         254.952         101.741 
       0.736317          250.59         99.9115 
       0.742472         247.355          98.121 
       0.748622         244.201         96.3765 
        0.75476         244.803         94.6784 
       0.760888         242.005         93.0238 
       0.767043         239.005         91.4022 
       0.773185         237.132         89.8227 
       0.779291         233.988         88.2897 
       0.785407         232.759         86.7904 
       0.791564         230.679         85.3169 
       0.797719          227.68         83.8786 
       0.803834         228.252          82.483 
       0.809972         226.546         81.1145 
       0.816124         223.616         79.7745 
       0.822261         221.125         78.4686 
       0.828378         221.353         77.1963 
       0.834502         217.421         75.9513 
       0.840667          216.99         74.7259 
       0.846816         214.661         73.5312 
       0.852925         212.981         72.3704 
       0.859047          210.83         71.2324 
       0.865192         210.259         70.1152 
       0.871341         207.481         69.0215 
       0.877463         205.987         67.9563 
       0.883569         205.681         66.9163 
       0.889708         204.123          65.893 
       0.895864         202.103         64.8887 
       0.902008         200.391         63.9075 
       0.908149         198.199         62.9474 
       0.914301         198.139         62.0055 
       0.920448         196.675          61.084 
       0.926574         194.382         60.1846 
       0.932687         193.611         59.3053 
       0.938823         192.095         58.4405 
       0.944975         190.123         57.5911 
       0.951105         188.908         56.7618 
       0.957225         188.439         55.9503 
       0.963368         186.532          55.152 
       0.969511         184.518         54.3694 
       0.975621         183.493         53.6062 
       0.981748             182         52.8558 
       0.987916         181.152         52.1152 
        0.99406         179.973         51.3916 
        1.00019         178.678         50.6833 
        1.00632         178.019          49.989 
        1.01246         176.484         49.3068 
        1.01859         175.014         48.6385 
        1.02471         173.723         47.9835 
        1.03085         172.674         47.3383 
        1.03698         171.404         46.7064 
        1.04314         170.697         46.0834 
        1.04929         169.911         45.4734 
        1.05541         168.673         44.8769 
        1.06154          167.71         44.2896 
        1.06769         165.926         43.7121 
        1.07382         165.154         43.1468 
        1.07993         164.276         42.5929 
        1.08607         162.739         42.0464 
        1.09222         162.241         41.5091 
        1.09836         160.683         40.9818 
        1.10449         159.578         40.4644 
        1.11063         158.601         39.9553 
        1.11677         157.896         39.4553 
         1.1229         156.579         38.9647 
        1.12903         156.159         38.4821 
        1.13518         155.041         38.0073 
        1.14131         154.129         37.5408 
        1.14745         152.813         37.0824 
        1.15359         151.416         36.6317 
        1.15973         150.903         36.1883 
        1.16584         150.087         35.7543 
        1.17197         149.278         35.3268 
        1.17811         148.061          34.905 
        1.18424         147.127         34.4914 
        1.19038         146.679         34.0832 
        1.19652         145.376         33.6819 
        1.20267         144.532         33.2871 
        1.20881         143.639         32.8987 
        1.21495         143.298         32.5172 
        1.22108         141.981         32.1417 
         1.2272         141.005         31.7732 
        1.23334         140.558         31.4095 
        1.23949         139.942         31.0508 
        1.24562         138.619         30.6986 
        1.25174         137.466         30.3525 
        1.25789         137.436         30.0106 
        1.26402         136.449         29.6747 
        1.27014          135.63         29.3447 
        1.27628         134.146         29.0187 
        1.28244         133.943         28.6972 
        1.28858         132.884         28.3809 
        1.29471         132.102         28.0701 
        1.30084         131.401         27.7643 
        1.30697         131.142         27.4626 
        1.31312         130.052         27.1649 
        1.31925         129.103         26.8727 
        1.32537         128.524          26.585 
        1.33151         128.135         26.3005 
        1.33765         126.756         26.0204 
        1.34378         126.822         25.7449 
        1.34992         126.053         25.4733 
        1.35606         125.035          25.205 
         1.3622         124.674          24.941 
        1.36833         123.377         24.6815 
        1.37445         122.859         24.4258 
        1.38059         122.323          24.173 
        1.38675          121.41         23.9231 
        1.39288         120.956         23.6778 
        1.39901         119.731         23.4361 
        1.40515         119.664         23.1972 
         1.4113         118.931         22.9617 
        1.41742         118.076         22.7305 
        1.42355         117.463         22.5019 
         1.4297          116.78         22.2759 
        1.43585         115.921          22.053 
        1.44198           115.3         21.8341 
        1.44809         114.592         21.6185 
        1.45423         114.069         21.4051 
        1.46036         113.177         21.1949 
        1.46649          112.69         20.9875 
        1.47263          112.28         20.7827 
        1.47877         111.567         20.5807 
        1.48491          110.74         20.3811 
        1.49104         109.819         20.1846 
        1.49718         109.801         19.9905 
        1.50333         109.088         19.7987 
        1.50947         108.666         19.6098 
         1.5156         107.967         19.4236 
        1.52172         107.251         19.2399 
        1.52787         106.527         19.0582 
          1.534         106.334          18.879 
        1.54013          105.72         18.7024 
        1.54627         104.793         18.5277 
        1.55241         104.249         18.3552 
        1.55855         103.866         18.1852 
        1.56467         102.873         18.0177 
         1.5708         102.687          17.852 
        1.57695          102.19          17.688 
        1.58308         101.598         17.5265 
        1.58922         101.184         17.3669 
        1.59535           100.6         17.2094 
         1.6015         100.188         17.0536 
        1.60764         99.5076         16.8998 
        1.61376         98.8583         16.7484 
        1.61989         98.1229         16.5986 
        1.62604         97.7717         16.4504 
        1.63218         97.4299         16.3041 
        1.63831         96.7177         16.1599 
        1.64444         96.2794         16.0174 
        1.65059         95.7526         15.8763 
        1.65673         95.0058          15.737 
        1.66285         94.5435         15.5998 
        1.66898         93.9145         15.4642 
        1.67512         93.7766           15.33 
        1.68127         93.1633         15.1972 
         1.6874         92.5994         15.0663 
        1.69353         92.1132          14.937 
        1.69967         91.8402         14.8089 
        1.70581         91.2592         14.6824 
        1.71193         90.7163         14.5578 
        1.71806         89.9978         14.4344 
        1.72421         89.7118         14.3122 
        1.73035         89.4912         14.1916 
        1.73649         88.8153         14.0724 
        1.74262         88.0748         13.9547 
        1.74876         87.8433         13.8382 
        1.75489         87.1249         13.7233 
        1.76101         86.7393         13.6097 
        1.76715         86.5247         13.4973 
        1.77329         85.8024          13.386 
        1.77943         85.5379         13.2759 
        1.78557            85.2         13.1672 
        1.79171         84.5753         13.0597 
        1.79785          84.123         12.9534 
        1.80399         83.6986         12.8483 
        1.81012         83.1966         12.7446 
        1.81625         82.9923          12.642 
        1.82239         82.6637         12.5403 
        1.82853         81.9903         12.4399 
        1.83466         81.5542         12.3406 
        1.84078         81.1421         12.2426 
        1.84692         80.8132         12.1454 
        1.85306         80.3954         12.0492 
         1.8592         79.9941         11.9542 
        1.86533         79.4123         11.8603 
        1.87147         79.0276         11.7672 
        1.87761           78.54         11.6751 
        1.88375         78.0916         11.5842 
        1.88988         77.7936         11.4943 
        1.89601         77.2862         11.4052 
        1.90215         76.9096         11.3171 
        1.90829         76.6621           11.23 
        1.91442         76.2263         11.1437 
        1.92056         75.7173         11.0584 
         1.9267         75.4234          10.974 
        1.93284         75.1993         10.8904 
        1.93897         74.7526         10.8078 
        1.94509         74.2645         10.7262 
        1.95123         73.9454         10.6453 
        1.95737         73.3312         10.5651 
        1.96349         73.0629          10.486 
        1.96964         72.6961         10.4075 
        1.97578         72.2849         10.3297 
        1.98192         71.9835         10.2529 
        1.98805         71.5532         10.1769 
        1.99419         71.1415         10.1016 
        2.00033         70.7115          10.027 
        2.00647         70.5294         9.95327 
         2.0126          70.077         9.88036 
        2.01874         69.7437         9.80808 
        2.02488         69.4467         9.73645 
        2.03101         69.0682         9.66568 
        2.03714         68.8645         9.59567 
        2.04328         68.4097         9.52628 
        2.04941         67.9221         9.45764 
        2.05554         67.7513         9.38972 
        2.06167         67.5259         9.32237 
        2.06781         66.8414         9.25568 
        2.07396         66.5943         9.18955 
        2.08009         66.4142         9.12417 
        2.08622         65.9665         9.05951 
        2.09237         65.5429         8.99535 
        2.09851         65.2051         8.93179 
        2.10464         64.9506         8.86896 
        2.11077         64.6314         8.80681 
        2.11691         64.2664         8.74512 
        2.12305         63.9027         8.68401 
        2.12918         63.6043         8.62364 
        2.13531         63.3166         8.56383 
        2.14145         62.8904         8.50446 
         2.1476         62.6234         8.44558 
        2.15372         62.3907         8.38755 
        2.15985         61.9946         8.33001 
        2.16599         61.6831         8.27285 
        2.17213         61.4543         8.21628 
        2.17827         61.0823         8.16026 
         2.1844         60.7762         8.10481 
        2.19054         60.4512         8.04986 
        2.19666         60.0299         7.99549 
         2.2028         59.9067         7.94158 
        2.20893          59.458         7.88814 
        2.21508         59.1955         7.83513 
        2.22122         58.8809          7.7826 
        2.22736         58.5776         7.73065 
        2.23349         58.4344         7.67919 
        2.23962         57.9711         7.62817 
        2.24577         57.8573         7.57757 
         2.2519         57.4326          7.5275 
        2.25802         57.2023         7.47796 
        2.26417          56.886         7.42873 
        2.27031         56.6137         7.37989 
        2.27644         56.3216         7.33164 
        2.28257         56.0245         7.28382 
        2.28872         55.8753         7.23634 
        2.29486         55.5872         7.18929 
        2.30099         55.1406         7.14276 
        2.30712         55.0021         7.09662 
        2.31326         54.5998         7.05081 
         2.3194         54.3739         7.00543 
        2.32553         54.2166         6.96052 
        2.33166         53.7273         6.91603 
         2.3378         53.4634         6.87187 
        2.34394         53.2923         6.82808 
        2.35007         52.9343         6.78473 
        2.35619         52.8441         6.74181 
        2.36233         52.4242         6.69916 
        2.36848         52.2056         6.65679 
        2.37462         51.9809         6.61488 
        2.38075         51.7609         6.57337 
        2.38689         51.4926         6.53218 
        2.39303         51.3286         6.49135 
        2.39916         51.0173         6.45091 
        2.40529         50.7156         6.41082 
        2.41143         50.4691         6.37104 
        2.41757         50.1766         6.33158 
         2.4237          50.057         6.29253 
        2.42983         49.6841         6.25381 
        2.43598         49.3923         6.21531 
        2.44211         49.2731         6.17721 
        2.44823         49.0225          6.1395 
        2.45437         48.7825         6.10201 
        2.46052         48.4213          6.0648 
        2.46665         48.2427         6.02796 
        2.47279          48.018         5.99145 
        2.47892         47.7852         5.95521 
        2.48507          47.549         5.91924 
         2.4912         47.2928         5.88363 
