# k  (h/Mpc)    P(k)  (Mpc/h)^3    P_linear(k)  (Mpc/h)^3
     0.00783031         15216.3         15388.5 
       0.013688         15990.6         16411.3 
       0.019231         14263.4         14458.9 
      0.0249154         11583.1         11488.8 
      0.0312784         8380.23         8369.35 
      0.0375637         6120.46         6137.19 
      0.0433917         4914.59         4870.85 
      0.0492413         4208.06         4191.67 
      0.0555754         3899.61         3855.02 
      0.0619321         3605.06         3667.65 
       0.067871         3435.67         3447.32 
      0.0738098         3113.81         3104.56 
      0.0800417         2671.24         2637.09 
      0.0862327         2188.76         2154.85 
      0.0921407          1821.7         1763.69 
      0.0982031         1563.11         1478.44 
       0.104506         1362.33         1308.39 
       0.110769         1291.61         1236.98 
       0.116806          1275.1         1217.45 
       0.122832         1237.52         1202.81 
       0.129052         1184.18         1157.88 
       0.135211          1119.7         1070.25 
       0.141259         994.664         952.669 
       0.147318         874.253         827.039 
       0.153489         774.558         714.866 
       0.159709         710.901         632.393 
       0.165845         645.621         583.521 
       0.171974          634.69         560.455 
       0.178125         617.544         551.695 
       0.184229         587.699         544.709 
        0.19034         576.662         529.488 
       0.196428         552.995         501.835 
       0.202534         503.164         463.534 
       0.208729         481.623         420.245 
       0.214876         447.242         380.099 
       0.220989         410.703          348.03 
       0.227147         395.774         325.503 
        0.23329         378.628         311.705 
       0.239377         374.548          303.59 
       0.245482         356.655         297.273 
       0.251667         343.658         289.356 
       0.257832         337.681         278.074 
       0.263955         316.573         263.476 
       0.270079         300.057         246.883 
        0.27624         285.388         230.306 
       0.282372         275.608         215.697 
        0.28843         270.526         204.136 
       0.294538         255.917         195.429 
       0.300721         247.569         188.942 
        0.30691         242.904         183.691 
       0.313033         231.177         178.593 
       0.319153         227.206          172.83 
       0.325316         221.207         166.061 
        0.33145         213.983         158.607 
       0.337538         204.637         151.011 
       0.343633         198.083         143.787 
       0.349808         191.459         137.322 
       0.355968         187.242         131.869 
       0.362074          180.49         127.401 
       0.368217         177.748         123.534 
       0.374374         173.237         119.964 
       0.380519         165.906         116.407 
       0.386598         163.022         112.698 
       0.392688         157.495         108.811 
        0.39888         154.345         104.754 
       0.405048         149.907         100.787 
       0.411186          148.27         97.0879 
       0.417313         144.876         93.7196 
       0.423458         140.983          90.695 
       0.429607         136.555          87.985 
       0.435692         134.403         85.5038 
       0.441815         131.094          83.108 
       0.447964         127.288         80.7409 
       0.454126          125.19         78.3591 
       0.460267         123.434         75.9721 
       0.466387         119.626         73.6301 
        0.47254         118.413         71.3595 
       0.478662         114.844          69.214 
       0.484765          112.64         67.2069 
       0.490885          110.47         65.3374 
       0.497035          108.85         63.5781 
       0.503198         107.379          61.899 
       0.509342         104.764         60.2772 
       0.515458         102.575         58.7015 
       0.521598         99.8965         57.1522 
       0.527764         99.1194         55.6246 
       0.533884         97.9281          54.144 
           0.54         95.5788         52.7145 
       0.546137          93.236          51.343 
       0.552299         91.5195         50.0344 
       0.558452         90.1889         48.7881 
       0.564573         89.7153         47.5987 
       0.570708         87.0165          46.449 
       0.576825         85.9089         45.3395 
       0.582926         85.0148         44.2658 
       0.589034          83.381         43.2201 
       0.595184         82.1895          42.194 
       0.601379         80.7729         41.1886 
       0.607522         78.5574          40.222 
       0.613639         78.1177         39.2922 
       0.619772         76.7683         38.3948 
       0.625918         76.1957         37.5294 
       0.632068         74.1319         36.6938 
       0.638161         73.6993         35.8923 
         0.6443         72.8407         35.1081 
       0.650464         71.2584         34.3418 
       0.656582         70.6659         33.6014 
       0.662703         69.9964         32.8812 
       0.668861         68.4106         32.1776 
       0.675024         68.1928         31.4945 
       0.681124         66.9908         30.8393 
       0.687237         66.2462         30.2026 
       0.693381         64.8314         29.5818 
       0.699536         64.5359         28.9778 
       0.705665         63.6827         28.3933 
       0.711789         62.6218         27.8252 
       0.717957          61.849         27.2684 
        0.72409           61.04         26.7295 
       0.730186         60.7194         26.2083 
       0.736317         59.9862         25.6981 
       0.742472         58.8206         25.1996 
       0.748622         57.9762         24.7151 
        0.75476         57.9118         24.2447 
       0.760888         57.1724         23.7875 
       0.767043         56.1039         23.3405 
       0.773185         55.2328          22.906 
       0.779291         54.8465         22.4852 
       0.785407         54.4212         22.0743 
       0.791564         53.7782         21.6712 
       0.797719         52.8582         21.2782 
       0.803834         52.6892         20.8974 
       0.809972         52.1599         20.5245 
       0.816124         51.2149         20.1598 
       0.822261         50.6818         19.8051 
       0.828378         50.4285         19.4599 
       0.834502         49.9995         19.1227 
       0.840667         49.4625         18.7913 
       0.846816         48.8188         18.4688 
       0.852925         48.3847         18.1559 
       0.859047          47.861         17.8497 
       0.865192         47.3882         17.5496 
       0.871341         46.9884         17.2562 
       0.877463         46.4223         16.9709 
       0.883569         46.3908         16.6927 
       0.889708          45.798         16.4194 
       0.895864         45.4031         16.1515 
       0.902008         44.7864         15.8902 
       0.908149           44.29         15.6348 
       0.914301         44.0694         15.3847 
       0.920448         43.9496         15.1402 
       0.926574         43.0391         14.9019 
       0.932687         42.8485         14.6693 
       0.938823         42.5403         14.4408 
       0.944975         42.0436         14.2167 
       0.951105         41.6525         13.9981 
       0.957225         41.4003         13.7845 
       0.963368         41.0069         13.5747 
       0.969511         40.7115         13.3692 
       0.975621          40.126         13.1692 
       0.981748         39.9845         12.9727 
       0.987916         39.4951         12.7789 
        0.99406         39.3577         12.5899 
        1.00019         38.8921         12.4051 
        1.00632          38.548         12.2242 
        1.01246         38.3272         12.0466 
        1.01859         38.0423         11.8729 
        1.02471         37.7939         11.7028 
        1.03085         37.3537         11.5354 
        1.03698         37.1449         11.3717 
        1.04314         36.8685         11.2105 
        1.04929         36.6018         11.0527 
        1.05541         36.1976         10.8987 
        1.06154         35.8994         10.7472 
        1.06769         35.6295         10.5984 
        1.07382         35.3327         10.4529 
        1.07993         35.2003         10.3104 
        1.08607         34.8499           10.17 
        1.09222         34.6772         10.0321 
        1.09836          34.388          9.8969 
        1.10449         34.1505         9.76435 
        1.11063         33.8767         9.63408 
        1.11677         33.8393         9.50624 
         1.1229         33.3983         9.38094 
        1.12903         33.1981         9.25779 
        1.13518         32.9079         9.13675 
        1.14131         32.7266         9.01795 
        1.14745         32.5729         8.90132 
        1.15359         32.1756         8.78674 
        1.15973         32.1209         8.67413 
        1.16584          31.885           8.564 
        1.17197         31.6016         8.45563 
        1.17811         31.3984         8.34881 
        1.18424         31.0394         8.24414 
        1.19038         30.8505         8.14096 
        1.19652         30.8016          8.0396 
        1.20267          30.434         7.93996 
        1.20881         30.2418         7.84203 
        1.21495         30.1221         7.74591 
        1.22108         30.0398         7.65142 
         1.2272         29.7608         7.55873 
        1.23334         29.6461         7.46737 
        1.23949          29.336         7.37729 
        1.24562         29.1772         7.28896 
        1.25174         29.0498         7.20221 
        1.25789         28.8588          7.1166 
        1.26402         28.5935         7.03254 
        1.27014         28.4722         6.95004 
        1.27628            28.3         6.86862 
        1.28244         28.2644         6.78834 
        1.28858          27.982         6.70946 
        1.29471         27.7247         6.63201 
        1.30084         27.5731         6.55585 
        1.30697         27.4412         6.48077 
        1.31312          27.324         6.40676 
        1.31925         27.0926         6.33413 
        1.32537         26.8818         6.26271 
        1.33151         26.8176         6.19213 
        1.33765         26.6636         6.12268 
        1.34378         26.5213         6.05443 
        1.34992         26.3002         5.98717 
        1.35606         26.0913         5.92079 
         1.3622          26.007         5.85553 
        1.36833         25.9037         5.79141 
        1.37445         25.6906         5.72829 
        1.38059         25.5016          5.6659 
        1.38675         25.4439          5.6043 
        1.39288         25.3169         5.54386 
        1.39901         25.1064         5.48433 
        1.40515          24.937         5.42555 
         1.4113         24.9265         5.36765 
        1.41742         24.7099         5.31081 
        1.42355         24.5396          5.2547 
         1.4297          24.481         5.19922 
        1.43585         24.3869         5.14457 
        1.44198         24.1579         5.09091 
        1.44809          23.988         5.03812 
        1.45423         23.9677         4.98588 
        1.46036         23.8459         4.93447 
        1.46649         23.6548         4.88378 
        1.47263         23.5246         4.83375 
        1.47877         23.3575         4.78445 
        1.48491         23.2441         4.73576 
        1.49104         23.1957         4.68784 
        1.49718         23.0313         4.64056 
        1.50333         22.9619         4.59385 
        1.50947         22.7679         4.54788 
         1.5156          22.714         4.50261 
        1.52172         22.5518         4.45795 
        1.52787         22.5447         4.41381 
          1.534         22.3173         4.37032 
        1.54013         22.2984         4.32746 
        1.54627         22.1025          4.2851 
        1.55241         22.0501          4.2433 
        1.55855         21.9278         4.20211 
        1.56467         21.7174         4.16158 
         1.5708         21.7253         4.12147 
        1.57695         21.5704         4.08182 
        1.58308         21.4876         4.04279 
        1.58922         21.3474         4.00424 
        1.59535         21.2748         3.96621 
         1.6015         21.2411         3.92861 
        1.60764         21.0563         3.89152 
        1.61376         20.9409         3.85501 
        1.61989          20.838         3.81894 
        1.62604         20.6989         3.78325 
        1.63218         20.5648         3.74804 
        1.63831         20.5084         3.71335 
        1.64444         20.4085         3.67909 
        1.65059         20.3253         3.64518 
        1.65673         20.2523         3.61174 
        1.66285         20.1494         3.57881 
        1.66898         20.0814         3.54628 
        1.67512         19.9082         3.51408 
        1.68127         19.8779         3.48226 
         1.6874         19.8059         3.45091 
        1.69353         19.6425         3.41995 
        1.69967         19.5823         3.38931 
        1.70581         19.5206         3.35905 
        1.71193         19.3691         3.32927 
        1.71806         19.3428          3.2998 
        1.72421         19.2035         3.27062 
        1.73035         19.1785         3.24183 
        1.73649         19.0613         3.21338 
        1.74262         18.9384         3.18531 
        1.74876         18.9306         3.15755 
        1.75489         18.7856         3.13017 
        1.76101          18.755         3.10313 
        1.76715         18.5951         3.07638 
        1.77329         18.5316          3.0499 
        1.77943         18.4473         3.02372 
        1.78557            18.4         2.99789 
        1.79171         18.3247         2.97236 
        1.79785         18.2061         2.94711 
        1.80399         18.1182         2.92217 
        1.81012         18.0331         2.89754 
        1.81625         17.9531         2.87321 
        1.82239         17.8588         2.84913 
        1.82853         17.8007         2.82532 
        1.83466          17.684         2.80182 
        1.84078         17.6655          2.7786 
        1.84692         17.5214         2.75561 
        1.85306         17.4956         2.73285 
         1.8592         17.3927         2.71039 
        1.86533           17.34         2.68818 
        1.87147         17.2338          2.6662 
        1.87761         17.2249         2.64446 
        1.88375         17.1009         2.62299 
        1.88988         16.9534         2.60177 
        1.89601         16.9835         2.58078 
        1.90215         16.9337            2.56 
        1.90829         16.8098         2.53946 
        1.91442         16.7278         2.51915 
        1.92056         16.6718         2.49907 
         1.9267         16.6106         2.47919 
        1.93284         16.5618         2.45952 
        1.93897         16.4943         2.44009 
        1.94509         16.4374         2.42092 
        1.95123         16.3172         2.40191 
        1.95737          16.275         2.38308 
        1.96349         16.1962         2.36451 
        1.96964         16.1369         2.34607 
        1.97578         16.0552         2.32783 
        1.98192         16.0154         2.30982 
        1.98805         15.9305         2.29199 
        1.99419         15.8296         2.27436 
        2.00033         15.7663         2.25689 
        2.00647         15.7145         2.23962 
         2.0126         15.6762         2.22256 
        2.01874         15.5897         2.20565 
        2.02488         15.5067          2.1889 
        2.03101         15.4651         2.17235 
        2.03714         15.4144         2.15599 
        2.04328         15.3272         2.13978 
        2.04941         15.2609         2.12375 
        2.05554         15.2169         2.10789 
        2.06167         15.1653         2.09218 
        2.06781         15.0709         2.07662 
        2.07396         15.0311          2.0612 
        2.08009         14.9595         2.04596 
        2.08622         14.8978         2.03089 
        2.09237         14.8282         2.01594 
        2.09851         14.7966         2.00114 
        2.10464         14.7463         1.98652 
        2.11077         14.6906         1.97206 
        2.11691         14.5859          1.9577 
        2.12305         14.5429         1.94349 
        2.12918         14.5145         1.92946 
        2.13531         14.4251         1.91556 
        2.14145         14.3806         1.90177 
         2.1476         14.3235         1.88809 
        2.15372         14.2766         1.87462 
        2.15985         14.2246         1.86127 
        2.16599         14.1376         1.84801 
        2.17213         14.1302         1.83489 
        2.17827         14.0537          1.8219 
         2.1844         13.9638         1.80905 
        2.19054         13.9232         1.79632 
        2.19666         13.8679         1.78373 
         2.2028         13.8322         1.77124 
        2.20893         13.7863         1.75887 
        2.21508         13.7248         1.74661 
        2.22122          13.683         1.73445 
        2.22736         13.6226         1.72244 
        2.23349         13.5912         1.71055 
        2.23962         13.5316         1.69876 
        2.24577         13.4706         1.68707 
         2.2519         13.4061          1.6755 
        2.25802         13.3573         1.66407 
        2.26417         13.2933          1.6527 
        2.27031         13.2283         1.64144 
        2.27644         13.1955         1.63031 
        2.28257          13.153         1.61928 
        2.28872         13.1004         1.60834 
        2.29486         13.0667         1.59749 
        2.30099         13.0058         1.58677 
        2.30712         12.9601         1.57615 
        2.31326         12.9103          1.5656 
         2.3194          12.858         1.55515 
        2.32553         12.8157         1.54482 
        2.33166         12.7524         1.53459 
         2.3378          12.693         1.52443 
        2.34394         12.6836         1.51437 
        2.35007         12.6127          1.5044 
        2.35619         12.5747         1.49454 
        2.36233         12.5251         1.48475 
        2.36848         12.4776         1.47502 
        2.37462         12.4412          1.4654 
        2.38075         12.3815         1.45587 
        2.38689         12.3484         1.44642 
        2.39303         12.2854         1.43706 
        2.39916         12.2533         1.42778 
        2.40529         12.1906          1.4186 
        2.41143         12.1632         1.40948 
        2.41757         12.0831         1.40044 
         2.4237         12.0458          1.3915 
        2.42983         11.9956         1.38263 
        2.43598         11.9891         1.37382 
        2.44211         11.9251          1.3651 
        2.44823         11.8705         1.35647 
        2.45437         11.8496          1.3479 
        2.46052         11.8029         1.33939 
        2.46665         11.7551         1.33097 
        2.47279         11.6912         1.32262 
        2.47892          11.695         1.31434 
        2.48507         11.6161         1.30613 
         2.4912         11.5857           1.298 
