# k  (h/Mpc)    P(k)  (Mpc/h)^3    P_linear(k)  (Mpc/h)^3
     0.00783031         539.906         545.729 
       0.013688         577.753         583.035 
       0.019231         512.739         514.102 
      0.0249154         409.922         408.698 
      0.0312784         299.311         297.827 
      0.0375637         219.318          218.44 
      0.0433917         174.509         173.391 
      0.0492413         149.752         149.228 
      0.0555754          137.97         137.253 
      0.0619321         130.183          130.59 
       0.067871         122.788          122.75 
      0.0738098         110.602         110.549 
      0.0800417         94.2056         93.9062 
      0.0862327         76.9848         76.7357 
      0.0921407         63.0939         62.8075 
      0.0982031         53.1199         52.6502 
       0.104506         46.7622         46.5952 
       0.110769         44.2074         44.0526 
       0.116806         43.5681         43.3574 
       0.122832          42.872         42.8363 
       0.129052         41.3565         41.2364 
       0.135211         38.3049          38.116 
       0.141259         34.0526         33.9286 
       0.147318         29.5532         29.4546 
       0.153489         25.6504         25.4597 
       0.159709         22.7499         22.5226 
       0.165845         20.8842         20.7821 
       0.171974         20.1952         19.9606 
       0.178125         19.8116         19.6487 
       0.184229         19.5091         19.3999 
        0.19034         19.0203         18.8579 
       0.196428         18.0211         17.8731 
       0.202534         16.5643          16.509 
       0.208729         15.1248         14.9673 
       0.214876         13.7512         13.5375 
       0.220989         12.5512         12.3953 
       0.227147         11.8035         11.5931 
        0.23329         11.3028         11.1016 
       0.239377         11.0097         10.8126 
       0.245482         10.7772         10.5877 
       0.251667         10.4362         10.3057 
       0.257832         10.0924         9.90386 
       0.263955         9.52546         9.38396 
       0.270079         8.93592           8.793 
        0.27624         8.33801         8.20261 
       0.282372         7.82275         7.68229 
        0.28843         7.45194         7.27056 
       0.294538         7.12811         6.96045 
       0.300721         6.86472         6.72941 
        0.30691         6.70344          6.5424 
       0.313033         6.51312         6.36082 
       0.319153         6.33869         6.15554 
       0.325316         6.04725         5.91449 
        0.33145         5.77466           5.649 
       0.337538          5.5146         5.37845 
       0.343633         5.27916         5.12116 
       0.349808         5.03669         4.89093 
       0.355968         4.83367         4.69669 
       0.362074         4.69223         4.53757 
       0.368217         4.54317         4.39984 
       0.374374         4.43062          4.2727 
       0.380519         4.28347         4.14601 
       0.386598         4.13936         4.01391 
       0.392688         3.99107         3.87545 
        0.39888         3.86067         3.73098 
       0.405048         3.72442         3.58969 
       0.411186         3.58738         3.45793 
       0.417313         3.46734         3.33797 
       0.423458          3.3436         3.23024 
       0.429607         3.26551         3.13372 
       0.435692         3.17973         3.04535 
       0.441815         3.08209         2.96002 
       0.447964         2.98552         2.87571 
       0.454126         2.91081         2.79088 
       0.460267         2.83468         2.70587 
       0.466387         2.74462         2.62245 
        0.47254         2.66933         2.54158 
       0.478662         2.58619         2.46517 
       0.484765         2.51653         2.39368 
       0.490885          2.4394          2.3271 
       0.497035         2.36825         2.26444 
       0.503198         2.32054         2.20464 
       0.509342         2.25106         2.14687 
       0.515458         2.19908         2.09075 
       0.521598         2.14563         2.03557 
       0.527764         2.09801         1.98116 
       0.533884         2.02822         1.92843 
           0.54          1.9839         1.87752 
       0.546137         1.92843         1.82867 
       0.552299         1.88338         1.78206 
       0.558452         1.83533         1.73767 
       0.564573         1.79433         1.69531 
       0.570708         1.75447         1.65436 
       0.576825          1.7151         1.61484 
       0.582926         1.67054          1.5766 
       0.589034         1.63792         1.53936 
       0.595184          1.6046         1.50281 
       0.601379         1.56223           1.467 
       0.607522         1.52273         1.43258 
       0.613639          1.4883         1.39946 
       0.619772           1.461          1.3675 
       0.625918         1.42845         1.33668 
       0.632068         1.39785         1.30691 
       0.638161         1.36752         1.27837 
         0.6443         1.33684         1.25044 
       0.650464          1.3105         1.22314 
       0.656582         1.28686         1.19677 
       0.662703         1.25819         1.17112 
       0.668861         1.22702         1.14606 
       0.675024         1.20275         1.12173 
       0.681124         1.18969          1.0984 
       0.687237         1.16044         1.07572 
       0.693381          1.1319         1.05361 
       0.699536          1.1161          1.0321 
       0.705665           1.094         1.01128 
       0.711789         1.06845        0.991046 
       0.717957         1.04906        0.971212 
        0.72409         1.02927        0.952019 
       0.730186         1.01536        0.933455 
       0.736317        0.990358        0.915283 
       0.742472        0.976093        0.897531 
       0.748622        0.959174        0.880274 
        0.75476        0.937082        0.863519 
       0.760888        0.923257        0.847234 
       0.767043        0.898649        0.831313 
       0.773185        0.886966        0.815839 
       0.779291        0.876713        0.800851 
       0.785407        0.858404        0.786218 
       0.791564        0.841989        0.771858 
       0.797719        0.827269        0.757861 
       0.803834        0.813753        0.744298 
       0.809972        0.799408        0.731017 
       0.816124        0.786376         0.71803 
       0.822261        0.773548        0.705393 
       0.828378        0.760624          0.6931 
       0.834502        0.746564        0.681089 
       0.840667        0.736752        0.669288 
       0.846816        0.722686        0.657801 
       0.852925        0.709835        0.646657 
       0.859047        0.698845         0.63575 
       0.865192        0.688087        0.625061 
       0.871341        0.678404        0.614611 
       0.877463        0.664491        0.604449 
       0.883569        0.655452        0.594542 
       0.889708        0.646742        0.584808 
       0.895864        0.636446        0.575267 
       0.902008        0.624741         0.56596 
       0.908149        0.616229        0.556864 
       0.914301         0.60755        0.547953 
       0.920448        0.599549        0.539247 
       0.926574        0.591492         0.53076 
       0.932687         0.58224        0.522475 
       0.938823         0.57029        0.514337 
       0.944975        0.564272        0.506354 
       0.951105        0.552452        0.498569 
       0.957225        0.546698        0.490962 
       0.963368        0.539477        0.483489 
       0.969511        0.532402        0.476171 
       0.975621        0.522883        0.469045 
       0.981748        0.513803        0.462046 
       0.987916         0.50794        0.455147 
        0.99406        0.501745        0.448415 
        1.00019        0.494242        0.441832 
        1.00632         0.48902        0.435388 
        1.01246        0.481901        0.429064 
        1.01859        0.475464        0.422875 
        1.02471        0.467256        0.416817 
        1.03085        0.460095        0.410856 
        1.03698        0.455787        0.405025 
        1.04314        0.448808        0.399283 
        1.04929        0.444712        0.393665 
        1.05541        0.436586        0.388178 
        1.06154        0.431903        0.382783 
        1.06769        0.426561        0.377482 
        1.07382        0.420553        0.372299 
        1.07993        0.415017        0.367225 
        1.08607        0.410181        0.362225 
        1.09222        0.404237        0.357313 
        1.09836        0.399712        0.352497 
        1.10449        0.393479        0.347776 
        1.11063        0.388521        0.343137 
        1.11677        0.384409        0.338583 
         1.1229        0.378473        0.334121 
        1.12903        0.374868        0.329734 
        1.13518        0.369819        0.325423 
        1.14131        0.365958        0.321192 
        1.14745        0.362413        0.317038 
        1.15359        0.356736        0.312957 
        1.15973        0.352838        0.308946 
        1.16584        0.348374        0.305024 
        1.17197        0.343403        0.301164 
        1.17811        0.339139        0.297359 
        1.18424        0.335544        0.293631 
        1.19038        0.330865        0.289957 
        1.19652        0.327926        0.286346 
        1.20267        0.324697        0.282797 
        1.20881        0.319159         0.27931 
        1.21495        0.316113        0.275886 
        1.22108        0.312888        0.272521 
         1.2272        0.308497        0.269219 
        1.23334         0.30539        0.265965 
        1.23949        0.302209        0.262757 
        1.24562        0.298706        0.259611 
        1.25174        0.295777        0.256521 
        1.25789        0.291254        0.253472 
        1.26402        0.288769        0.250478 
        1.27014        0.284491         0.24754 
        1.27628        0.282289         0.24464 
        1.28244        0.278812        0.241781 
        1.28858        0.275339        0.238971 
        1.29471        0.272697        0.236212 
        1.30084        0.269734          0.2335 
        1.30697        0.267602        0.230826 
        1.31312        0.264437         0.22819 
        1.31925        0.261341        0.225603 
        1.32537        0.258737        0.223059 
        1.33151        0.255842        0.220545 
        1.33765         0.25312        0.218072 
        1.34378         0.25026        0.215641 
        1.34992        0.248309        0.213245 
        1.35606        0.245052        0.210881 
         1.3622        0.242894        0.208557 
        1.36833        0.240723        0.206273 
        1.37445        0.237983        0.204025 
        1.38059        0.235672        0.201803 
        1.38675         0.23288        0.199609 
        1.39288        0.230181        0.197456 
        1.39901        0.228255        0.195336 
        1.40515        0.225939        0.193242 
         1.4113        0.224253         0.19118 
        1.41742         0.22181        0.189156 
        1.42355         0.21866        0.187157 
         1.4297        0.217309        0.185181 
        1.43585        0.214745        0.183234 
        1.44198        0.213155        0.181323 
        1.44809        0.210775        0.179443 
        1.45423         0.20865        0.177582 
        1.46036        0.206611        0.175752 
        1.46649        0.204635        0.173946 
        1.47263        0.202149        0.172164 
        1.47877        0.201534        0.170408 
        1.48491        0.198364        0.168674 
        1.49104        0.197544        0.166967 
        1.49718        0.194977        0.165283 
        1.50333        0.193412         0.16362 
        1.50947         0.19162        0.161982 
         1.5156        0.189962         0.16037 
        1.52172        0.188025        0.158779 
        1.52787        0.185835        0.157207 
          1.534        0.184589        0.155658 
        1.54013        0.182859        0.154132 
        1.54627        0.181414        0.152623 
        1.55241        0.179639        0.151134 
        1.55855        0.177885        0.149667 
        1.56467        0.176449        0.148223 
         1.5708        0.174741        0.146795 
        1.57695        0.173107        0.145383 
        1.58308        0.171135        0.143993 
        1.58922        0.170198         0.14262 
        1.59535        0.168326        0.141265 
         1.6015        0.167018        0.139926 
        1.60764        0.165316        0.138605 
        1.61376        0.163977        0.137305 
        1.61989        0.162547         0.13602 
        1.62604        0.160916        0.134749 
        1.63218        0.159849        0.133494 
        1.63831        0.158189        0.132259 
        1.64444        0.157244        0.131039 
        1.65059        0.155335        0.129831 
        1.65673        0.154132         0.12864 
        1.66285        0.152968        0.127467 
        1.66898        0.151628        0.126308 
        1.67512        0.150102        0.125162 
        1.68127        0.148865        0.124028 
         1.6874        0.147874        0.122912 
        1.69353        0.146335        0.121809 
        1.69967        0.145165        0.120718 
        1.70581         0.14424         0.11964 
        1.71193        0.143096        0.118579 
        1.71806        0.141738         0.11753 
        1.72421        0.140444         0.11649 
        1.73035         0.13927        0.115465 
        1.73649        0.138367        0.114452 
        1.74262        0.136956        0.113452 
        1.74876        0.136075        0.112463 
        1.75489        0.135046        0.111488 
        1.76101        0.133854        0.110525 
        1.76715        0.132737        0.109572 
        1.77329        0.131636        0.108629 
        1.77943        0.130525        0.107697 
        1.78557        0.129771        0.106777 
        1.79171        0.128694        0.105867 
        1.79785        0.127485        0.104968 
        1.80399        0.126169         0.10408 
        1.81012        0.125658        0.103203 
        1.81625         0.12484        0.102336 
        1.82239        0.123901        0.101478 
        1.82853        0.122519         0.10063 
        1.83466        0.121559       0.0997931 
        1.84078         0.12074       0.0989662 
        1.84692        0.119864       0.0981474 
        1.85306        0.118955       0.0973368 
         1.8592        0.118163       0.0965366 
        1.86533        0.117273       0.0957458 
        1.87147        0.116149        0.094963 
        1.87761        0.115224       0.0941885 
        1.88375        0.114398       0.0934236 
        1.88988        0.113397        0.092668 
        1.89601        0.112418       0.0919203 
        1.90215        0.111837       0.0911803 
        1.90829         0.11076       0.0904488 
        1.91442        0.110335       0.0897252 
        1.92056        0.109549       0.0890101 
         1.9267        0.108584       0.0883021 
        1.93284         0.10757       0.0876014 
        1.93897        0.106843       0.0869096 
        1.94509        0.106269       0.0862267 
        1.95123        0.105219       0.0855495 
        1.95737        0.104654        0.084879 
        1.96349        0.103801       0.0842174 
        1.96964        0.102946       0.0835609 
        1.97578        0.102247       0.0829111 
        1.98192        0.101725       0.0822696 
        1.98805        0.100937       0.0816347 
        1.99419        0.100399       0.0810065 
        2.00033       0.0993966       0.0803846 
        2.00647       0.0988545       0.0797694 
         2.0126       0.0980869       0.0791617 
        2.01874       0.0974084       0.0785593 
        2.02488       0.0967462       0.0779627 
        2.03101       0.0959392       0.0773734 
        2.03714       0.0956702       0.0767907 
        2.04328       0.0945389       0.0762133 
        2.04941       0.0941878       0.0756423 
        2.05554       0.0934208       0.0750776 
        2.06167        0.092702       0.0745179 
        2.06781       0.0919578       0.0739638 
        2.07396       0.0915748       0.0734145 
        2.08009       0.0907976       0.0728717 
        2.08622       0.0902995        0.072335 
        2.09237       0.0896418       0.0718027 
        2.09851       0.0889242       0.0712756 
        2.10464       0.0885002       0.0707546 
        2.11077       0.0876616       0.0702395 
        2.11691       0.0872199       0.0697283 
        2.12305       0.0865875       0.0692222 
        2.12918       0.0859614       0.0687223 
        2.13531       0.0854136       0.0682273 
        2.14145       0.0848569       0.0677361 
         2.1476       0.0842666       0.0672491 
        2.15372       0.0839513       0.0667693 
        2.15985       0.0831195       0.0662936 
        2.16599       0.0825685       0.0658213 
        2.17213       0.0821359       0.0653541 
        2.17827       0.0815716       0.0648914 
         2.1844       0.0811268       0.0644337 
        2.19054       0.0805487       0.0639802 
        2.19666       0.0800654       0.0635318 
         2.2028        0.079249       0.0630872 
        2.20893       0.0789553       0.0626466 
        2.21508       0.0784982       0.0622098 
        2.22122       0.0779466       0.0617769 
        2.22736       0.0773523       0.0613491 
        2.23349       0.0768546       0.0609254 
        2.23962       0.0764605       0.0605054 
        2.24577        0.076042       0.0600891 
         2.2519       0.0754625       0.0596772 
        2.25802       0.0749745       0.0592699 
        2.26417       0.0746424       0.0588652 
        2.27031       0.0741172       0.0584639 
        2.27644       0.0738294       0.0580675 
        2.28257       0.0731494       0.0576748 
        2.28872       0.0727738       0.0572849 
        2.29486       0.0723598       0.0568988 
        2.30099       0.0717846        0.056517 
        2.30712       0.0714134       0.0561385 
        2.31326       0.0709087       0.0557628 
         2.3194       0.0705459       0.0553908 
        2.32553       0.0701171       0.0550228 
        2.33166       0.0696497       0.0546583 
         2.3378       0.0692366       0.0542965 
        2.34394       0.0688624        0.053938 
        2.35007       0.0684282       0.0535831 
        2.35619       0.0680247       0.0532319 
        2.36233       0.0676703        0.052883 
        2.36848       0.0671516       0.0525365 
        2.37462       0.0668966       0.0521939 
        2.38075       0.0664187       0.0518546 
        2.38689       0.0660947        0.051518 
        2.39303       0.0657064       0.0511845 
        2.39916       0.0652549       0.0508542 
        2.40529       0.0648367       0.0505269 
        2.41143       0.0644186       0.0502023 
        2.41757        0.064079       0.0498803 
         2.4237       0.0636431       0.0495617 
        2.42983       0.0633859        0.049246 
        2.43598        0.062983       0.0489321 
        2.44211       0.0625206       0.0486215 
        2.44823       0.0622851       0.0483143 
        2.45437       0.0619614       0.0480089 
        2.46052       0.0615493       0.0477058 
        2.46665       0.0612339       0.0474059 
        2.47279       0.0608201       0.0471087 
        2.47892       0.0606591       0.0468138 
        2.48507        0.060085       0.0465212 
         2.4912       0.0598528       0.0462316 
