# k  (h/Mpc)    Pcb(k)  (Mpc/h)^3    Pcb_linear(k)  (Mpc/h)^3
     0.00783031         11238.7         11279.3 
       0.013688           14848           15224 
       0.019231         16331.4         16592.4 
      0.0249154         16397.1         16455.8 
      0.0312784         15043.5         15301.6 
      0.0375637         13449.6         13811.2 
      0.0433917         12298.1         12503.9 
      0.0492413         11114.8         11427.8 
      0.0555754         10309.2         10550.1 
      0.0619321         9351.79         9890.04 
       0.067871         8968.13         9365.52 
      0.0738098         8510.07         8839.28 
      0.0800417         7917.44          8230.6 
      0.0862327         7238.97         7566.05 
      0.0921407         6632.13         6913.02 
      0.0982031         6104.59         6277.44 
       0.104506         5489.12         5703.86 
       0.110769         5080.41         5248.87 
       0.116806            4859         4917.36 
       0.122832         4565.12         4668.88 
       0.129052         4352.29          4463.6 
       0.135211         4242.16         4275.03 
       0.141259         3977.88         4077.52 
       0.147318         3715.73         3855.82 
       0.153489         3533.95          3609.3 
       0.159709         3398.94         3355.24 
       0.165845         3106.42         3118.24 
       0.171974         3021.18         2910.72 
       0.178125         2921.56         2739.64 
       0.184229         2698.14         2605.92 
        0.19034         2663.66         2500.35 
       0.196428         2596.59         2411.83 
       0.202534         2457.72         2327.95 
       0.208729         2413.97         2238.61 
       0.214876         2324.95         2141.45 
       0.220989         2213.76         2037.33 
       0.227147         2160.29         1929.73 
        0.23329         2079.84          1826.1 
       0.239377         2064.58         1732.68 
       0.245482         1972.66         1651.52 
       0.251667          1901.4         1582.61 
       0.257832         1876.75         1525.17 
       0.263955         1798.76         1475.49 
       0.270079         1761.17         1429.06 
        0.27624         1689.32         1382.23 
       0.282372         1673.86         1333.52 
        0.28843         1648.19         1283.19 
       0.294538            1577         1231.35 
       0.300721         1548.96         1179.82 
        0.30691         1515.06         1131.19 
       0.313033         1461.64         1087.48 
       0.319153         1447.61         1048.67 
       0.325316         1430.74         1014.16 
        0.33145         1405.05         983.296 
       0.337538         1362.51         954.778 
       0.343633         1332.66         927.046 
       0.349808         1310.56          898.97 
       0.355968         1285.51         870.559 
       0.362074         1252.24          842.25 
       0.368217         1248.59         814.093 
       0.374374          1230.1         786.891 
       0.380519         1190.97          761.33 
       0.386598          1187.1         737.878 
       0.392688         1159.48           716.3 
        0.39888         1136.19         696.011 
       0.405048          1118.1         677.068 
       0.411186         1112.23         659.037 
       0.417313         1112.49          641.44 
       0.423458         1077.66         624.008 
       0.429607         1049.48         606.741 
       0.435692         1042.92         589.897 
       0.441815         1024.31         573.395 
       0.447964         1014.58         557.478 
       0.454126         1000.42         542.297 
       0.460267         989.757         528.006 
       0.466387         976.391         514.581 
        0.47254         957.757         501.763 
       0.478662         948.029         489.545 
       0.484765         940.582         477.775 
       0.490885         929.099         466.274 
       0.497035         914.787         454.939 
       0.503198         913.428         443.817 
       0.509342         897.438          433.01 
       0.515458          880.04         422.576 
       0.521598         877.974         412.461 
       0.527764           858.5         402.701 
       0.533884         851.901          393.43 
           0.54         844.931         384.549 
       0.546137         835.082         375.964 
       0.552299         829.715         367.628 
       0.558452         822.165         359.553 
       0.564573          814.22         351.736 
       0.570708         808.011         344.095 
       0.576825         791.934         336.659 
       0.582926         789.898         329.434 
       0.589034         781.253         322.412 
       0.595184         772.592         315.566 
       0.601379         760.681         308.902 
       0.607522         751.762         302.509 
       0.613639          750.61         296.343 
       0.619772         744.587         290.348 
       0.625918         734.893         284.517 
       0.632068         729.385         278.845 
       0.638161          720.01         273.374 
         0.6443         714.529         267.999 
       0.650464         709.315         262.737 
       0.656582         703.833         257.646 
       0.662703         694.668         252.689 
       0.668861         688.825          247.84 
       0.675024          683.78         243.126 
       0.681124         674.361         238.593 
       0.687237         673.699         234.174 
       0.693381         662.887         229.851 
       0.699536         661.518         225.631 
       0.705665         654.983         221.533 
       0.711789         652.871         217.539 
       0.717957         643.993         213.616 
        0.72409         638.623         209.811 
       0.730186         637.363         206.123 
       0.736317          629.33         202.505 
       0.742472         621.527         198.964 
       0.748622         618.742         195.513 
        0.75476         613.032         192.153 
       0.760888         609.753         188.879 
       0.767043         607.037         185.669 
       0.773185         603.479         182.542 
       0.779291         595.498         179.506 
       0.785407         591.856         176.535 
       0.791564         587.202         173.613 
       0.797719          579.55          170.76 
       0.803834         580.846         167.991 
       0.809972         573.312         165.274 
       0.816124         568.771         162.612 
       0.822261         565.158         160.017 
       0.828378         562.464         157.488 
       0.834502         554.305         155.012 
       0.840667          553.57         152.574 
       0.846816         547.892         150.196 
       0.852925         546.342         147.885 
       0.859047          541.62         145.618 
       0.865192         538.463         143.392 
       0.871341         531.863         141.211 
       0.877463         529.781         139.086 
       0.883569         524.476         137.011 
       0.889708         519.816         134.968 
       0.895864         515.662         132.963 
       0.902008         514.466         131.002 
       0.908149          510.24         129.084 
       0.914301         508.143         127.201 
       0.920448         502.177         125.357 
       0.926574         500.267         123.558 
       0.932687          497.98         121.798 
       0.938823          491.82         120.067 
       0.944975         489.216         118.365 
       0.951105         486.251         116.704 
       0.957225         479.028         115.077 
       0.963368         480.461         113.477 
       0.969511         472.427         111.907 
       0.975621         472.844         110.376 
       0.981748         469.207          108.87 
       0.987916         466.357         107.383 
        0.99406         462.287         105.929 
        1.00019         457.661         104.506 
        1.00632          456.95         103.111 
        1.01246         453.515         101.739 
        1.01859         448.869         100.395 
        1.02471         446.589         99.0774 
        1.03085         444.394          97.779 
        1.03698          441.81         96.5069 
        1.04314         438.846         95.2523 
        1.04929          436.42         94.0232 
        1.05541         430.419         92.8211 
        1.06154         429.805         91.6373 
        1.06769         425.555         90.4726 
        1.07382         423.759         89.3323 
        1.07993         421.362         88.2144 
        1.08607         418.199         87.1113 
        1.09222         415.103         86.0262 
        1.09836         412.616         84.9611 
        1.10449         409.692         83.9155 
        1.11063         406.517         82.8865 
        1.11677         402.723         81.8753 
         1.1229         401.761          80.883 
        1.12903         398.864         79.9065 
        1.13518         396.153         78.9454 
        1.14131          394.91         78.0009 
        1.14745          389.54         77.0726 
        1.15359         387.308         76.1594 
        1.15973         385.926         75.2608 
        1.16584             384         74.3809 
        1.17197         380.883          73.514 
        1.17811          377.14         72.6584 
        1.18424         375.364         71.8191 
        1.19038         373.408         70.9908 
        1.19652         369.466         70.1761 
        1.20267         368.859         69.3742 
        1.20881         366.844         68.5853 
        1.21495          362.99         67.8099 
        1.22108          361.68         67.0469 
         1.2272         356.897         66.2975 
        1.23334         355.985          65.558 
        1.23949         353.948         64.8281 
        1.24562         353.084         64.1116 
        1.25174         349.304          63.407 
        1.25789         346.896          62.711 
        1.26402         345.674         62.0268 
        1.27014         343.724         61.3546 
        1.27628         340.199         60.6905 
        1.28244         338.601          60.035 
        1.28858         336.791         59.3902 
        1.29471         335.124         58.7564 
        1.30084         333.078         58.1325 
        1.30697         329.888         57.5168 
        1.31312         327.682         56.9093 
        1.31925         326.181         56.3125 
        1.32537         324.387          55.725 
        1.33151         321.491         55.1439 
        1.33765         319.568         54.5714 
        1.34378         317.056         54.0084 
        1.34992         314.808         53.4529 
        1.35606          313.25         52.9042 
         1.3622         311.826         52.3642 
        1.36833         310.171         51.8332 
        1.37445         308.338         51.3098 
        1.38059         305.325         50.7921 
        1.38675         303.874         50.2805 
        1.39288         302.794         49.7779 
        1.39901         299.846         49.2826 
        1.40515          298.34         48.7929 
         1.4113         296.134         48.3102 
        1.41742         293.336         47.8359 
        1.42355         293.733         47.3671 
         1.4297         290.888         46.9033 
        1.43585         287.915          46.446 
        1.44198         286.933         45.9965 
        1.44809         285.593         45.5539 
        1.45423         283.451         45.1156 
        1.46036         281.851         44.6839 
        1.46649          280.57         44.2577 
        1.47263         277.669         43.8368 
        1.47877         276.451         43.4216 
        1.48491          274.27         43.0112 
        1.49104         272.683          42.607 
        1.49718         271.104         42.2078 
        1.50333         268.733         41.8131 
        1.50947         268.246         41.4243 
         1.5156         265.838          41.041 
        1.52172         264.106         40.6627 
        1.52787         262.657         40.2884 
          1.534         261.858         39.9194 
        1.54013         259.476         39.5554 
        1.54627         258.412         39.1953 
        1.55241           256.3         38.8397 
        1.55855         255.307          38.489 
        1.56467         253.356         38.1437 
         1.5708         252.096         37.8016 
        1.57695         250.432         37.4633 
        1.58308         249.061           37.13 
        1.58922         247.266         36.8005 
        1.59535         245.197         36.4751 
         1.6015         244.146         36.1533 
        1.60764         242.823         35.8355 
        1.61376         240.579         35.5225 
        1.61989         239.167          35.213 
        1.62604         237.486         34.9065 
        1.63218         236.348         34.6039 
        1.63831         235.879         34.3057 
        1.64444         233.575         34.0108 
        1.65059          232.86         33.7188 
        1.65673         230.538         33.4305 
        1.66285         229.666         33.1464 
        1.66898         228.386         32.8656 
        1.67512         226.455         32.5875 
        1.68127           225.5         32.3124 
         1.6874         223.957         32.0412 
        1.69353         222.719         31.7732 
        1.69967         221.282         31.5077 
        1.70581         220.169         31.2454 
        1.71193         218.516          30.987 
        1.71806         216.962         30.7311 
        1.72421         216.171         30.4776 
        1.73035         214.173         30.2272 
        1.73649         212.821         29.9798 
        1.74262         212.017         29.7353 
        1.74876         210.716         29.4935 
        1.75489         209.586         29.2548 
        1.76101         208.348         29.0189 
        1.76715         206.802         28.7853 
        1.77329         205.191          28.554 
        1.77943         204.112         28.3251 
        1.78557         203.445         28.0991 
        1.79171         202.316         27.8756 
        1.79785         201.037         27.6545 
        1.80399         199.613         27.4358 
        1.81012         198.328         27.2199 
        1.81625         197.158         27.0063 
        1.82239         195.748         26.7948 
        1.82853         195.148         26.5856 
        1.83466           193.6         26.3789 
        1.84078         192.537         26.1746 
        1.84692         191.482         25.9722 
        1.85306         189.946         25.7717 
         1.8592         189.304         25.5736 
        1.86533         187.525         25.3777 
        1.87147         186.808         25.1837 
        1.87761         185.655         24.9917 
        1.88375         184.206         24.8019 
        1.88988         183.593         24.6142 
        1.89601         183.086         24.4285 
        1.90215         181.467         24.2445 
        1.90829          180.26         24.0625 
        1.91442         179.473         23.8824 
        1.92056         177.864         23.7043 
         1.9267         177.306         23.5279 
        1.93284         176.249         23.3532 
        1.93897         175.049         23.1805 
        1.94509         174.171         23.0101 
        1.95123         173.041         22.8409 
        1.95737         172.311         22.6733 
        1.96349          171.05         22.5078 
        1.96964         170.186         22.3435 
        1.97578          169.05         22.1808 
        1.98192         168.093         22.0201 
        1.98805          167.12         21.8609 
        1.99419         165.878         21.7034 
        2.00033         165.332         21.5473 
        2.00647         164.183         21.3928 
         2.0126         163.273         21.2401 
        2.01874         162.243         21.0886 
        2.02488         161.413         20.9386 
        2.03101          160.83         20.7902 
        2.03714          159.61         20.6435 
        2.04328          158.44          20.498 
        2.04941         158.125         20.3541 
        2.05554         157.106         20.2116 
        2.06167         155.829         20.0704 
        2.06781         155.137         19.9304 
        2.07396         154.079         19.7917 
        2.08009         153.566         19.6544 
        2.08622         152.119         19.5187 
        2.09237         151.397          19.384 
        2.09851         150.794         19.2505 
        2.10464         149.998         19.1186 
        2.11077         148.963          18.988 
        2.11691         148.317         18.8584 
        2.12305         147.383           18.73 
        2.12918         146.291         18.6031 
        2.13531         145.535         18.4773 
        2.14145         144.792         18.3525 
         2.1476          143.92         18.2287 
        2.15372         143.259         18.1066 
        2.15985         142.193         17.9855 
        2.16599          141.51         17.8653 
        2.17213         140.717         17.7462 
        2.17827          139.95         17.6283 
         2.1844         139.124         17.5116 
        2.19054         138.297         17.3959 
        2.19666         137.575         17.2814 
         2.2028          136.94         17.1678 
        2.20893           136.3         17.0552 
        2.21508         134.905         16.9435 
        2.22122         134.325         16.8328 
        2.22736         133.673         16.7233 
        2.23349         133.095         16.6148 
        2.23962         132.352         16.5072 
        2.24577         131.671         16.4005 
         2.2519         130.664         16.2949 
        2.25802         130.244         16.1904 
        2.26417          129.25         16.0865 
        2.27031         128.608         15.9835 
        2.27644         127.952         15.8817 
        2.28257         127.413         15.7807 
        2.28872         126.524         15.6805 
        2.29486         125.906         15.5811 
        2.30099         125.058         15.4828 
        2.30712         124.544         15.3853 
        2.31326         123.762         15.2886 
         2.3194          123.23         15.1927 
        2.32553         122.341         15.0978 
        2.33166         122.085         15.0037 
         2.3378         121.175         14.9103 
        2.34394         120.181         14.8177 
        2.35007         119.743         14.7261 
        2.35619         118.965         14.6353 
        2.36233         118.486          14.545 
        2.36848         117.698         14.4554 
        2.37462         117.307         14.3667 
        2.38075         116.615         14.2788 
        2.38689         116.002         14.1916 
        2.39303         115.214         14.1052 
        2.39916         114.816         14.0196 
        2.40529         114.146         13.9347 
        2.41143         113.337         13.8504 
        2.41757         112.595         13.7668 
         2.4237         112.346         13.6841 
        2.42983         111.606          13.602 
        2.43598         111.023         13.5204 
        2.44211          110.46         13.4396 
        2.44823         109.834         13.3597 
        2.45437         109.274         13.2802 
        2.46052         108.633         13.2013 
        2.46665         108.061         13.1231 
        2.47279         107.499         13.0456 
        2.47892          106.89         12.9687 
        2.48507         106.447         12.8924 
         2.4912         105.833         12.8168 
