# k  (h/Mpc)    Pcb(k)  (Mpc/h)^3    Pcb_linear(k)  (Mpc/h)^3
     0.00783031         17184.7         17439.3 
       0.013688         21621.3         21413.1 
       0.019231         21502.4         21459.4 
      0.0249154           19101         19534.4 
      0.0312784         16341.5         16537.9 
      0.0375637           13750           13741 
      0.0433917           11522         11721.9 
      0.0492413         10257.2           10312 
      0.0555754         9051.89         9337.58 
      0.0619321         8716.98         8694.19 
       0.067871         7942.22         8180.32 
      0.0738098         7385.38         7607.92 
      0.0800417         6615.38         6890.27 
      0.0862327          5951.6         6097.72 
      0.0921407         5356.11         5352.59 
      0.0982031         4690.11         4684.82 
       0.104506         4321.89         4149.35 
       0.110769         3954.16         3785.21 
       0.116806         3717.48         3562.87 
       0.122832         3554.56         3417.41 
       0.129052          3327.7          3291.1 
       0.135211         3179.37         3144.15 
       0.141259         3051.45         2956.81 
       0.147318         2866.73         2730.23 
       0.153489         2608.84         2482.47 
       0.159709         2441.54         2245.68 
       0.165845          2323.1         2048.65 
       0.171974         2182.61         1899.28 
       0.178125         2071.81         1795.03 
       0.184229         1980.35          1725.2 
        0.19034         1882.07         1672.33 
       0.196428         1848.95         1620.42 
       0.202534         1783.11         1557.53 
       0.208729         1701.47         1478.38 
       0.214876         1628.93         1387.87 
       0.220989         1566.91         1294.16 
       0.227147         1496.72         1205.36 
        0.23329         1432.36         1129.41 
       0.239377         1405.79         1069.62 
       0.245482         1317.64         1024.18 
       0.251667         1310.95         989.021 
       0.257832         1259.55         959.336 
       0.263955         1219.34          929.97 
       0.270079         1176.72         897.253 
        0.27624         1163.39         859.764 
       0.282372         1115.16         819.106 
        0.28843         1104.84         778.148 
       0.294538         1048.79         738.911 
       0.300721         1041.63         703.578 
        0.30691         1000.86         673.643 
       0.313033         980.867         649.168 
       0.319153         961.868         628.511 
       0.325316         931.588         609.861 
        0.33145         910.103         591.725 
       0.337538         893.509         573.034 
       0.343633          873.27         553.202 
       0.349808         843.019         532.272 
       0.355968         836.952         511.322 
       0.362074          828.23         491.359 
       0.368217         802.261         472.872 
       0.374374         771.377         456.253 
       0.380519         771.917         441.599 
       0.386598         749.765         428.612 
       0.392688         747.262         416.559 
        0.39888         725.071          404.78 
       0.405048         715.475         393.065 
       0.411186         705.337         381.259 
       0.417313         690.613           369.4 
       0.423458         677.754         357.589 
       0.429607          669.42         346.155 
       0.435692          654.51          335.47 
       0.441815         648.453         325.448 
       0.447964         635.334         316.144 
       0.454126         628.492         307.514 
       0.460267         613.198         299.403 
       0.466387          606.05         291.627 
        0.47254         601.197         283.996 
       0.478662         595.645          276.51 
       0.484765         576.783         269.113 
       0.490885         572.905         261.829 
       0.497035         561.459         254.729 
       0.503198         557.484         247.902 
       0.509342         552.456         241.411 
       0.515458         548.321         235.287 
       0.521598         533.971         229.465 
       0.527764         525.609         223.889 
       0.533884         523.052         218.554 
           0.54         517.112          213.37 
       0.546137         513.568         208.297 
       0.552299         505.647         203.323 
       0.558452         502.157         198.472 
       0.564573         495.769         193.769 
       0.570708         489.421         189.203 
       0.576825         477.034         184.818 
       0.582926         477.767         180.623 
       0.589034         473.171         176.586 
       0.595184         469.375         172.667 
       0.601379         461.851         168.848 
       0.607522         455.589         165.172 
       0.613639         454.883         161.614 
       0.619772         445.852         158.145 
       0.625918         443.565          154.76 
       0.632068         436.892          151.46 
       0.638161          435.14         148.279 
         0.6443         428.174         145.166 
       0.650464         425.586         142.137 
       0.656582         421.624         139.228 
       0.662703         420.721          136.41 
       0.668861         413.797         133.663 
       0.675024         410.343         130.992 
       0.681124         406.991          128.42 
       0.687237         403.628         125.907 
       0.693381         397.914         123.445 
       0.699536         392.648          121.04 
       0.705665         391.271         118.709 
       0.711789         389.616         116.441 
       0.717957         386.122          114.22 
        0.72409         383.674         112.073 
       0.730186          378.28         109.997 
       0.736317         375.543         107.965 
       0.742472         373.251         105.977 
       0.748622         369.602         104.042 
        0.75476          364.84         102.159 
       0.760888         361.263         100.324 
       0.767043         361.679         98.5268 
       0.773185         357.788         96.7768 
       0.779291         353.187         95.0794 
       0.785407         351.949         93.4206 
       0.791564         347.753         91.7915 
       0.797719         345.549          90.203 
       0.803834         341.688          88.663 
       0.809972         341.215         87.1543 
       0.816124         340.137         85.6781 
       0.822261         335.899         84.2406 
       0.828378         333.748         82.8408 
       0.834502          330.09         81.4718 
       0.840667         327.853         80.1251 
       0.846816         326.471         78.8127 
       0.852925         324.354          77.538 
       0.859047         322.059         76.2889 
       0.865192         318.161         75.0633 
       0.871341         315.706          73.864 
       0.877463         315.383         72.6965 
       0.883569         312.861         71.5574 
       0.889708         309.951         70.4371 
       0.895864         308.637         69.3381 
       0.902008         305.856         68.2651 
       0.908149         303.101         67.2157 
       0.914301         300.608         66.1868 
       0.920448         299.068         65.1807 
       0.926574         295.422         64.1992 
       0.932687         295.491         63.2401 
       0.938823         292.344         62.2974 
       0.944975         291.873         61.3719 
       0.951105         289.298         60.4686 
       0.957225         287.491         59.5853 
       0.963368         283.747         58.7167 
       0.969511         282.946         57.8656 
       0.975621         280.895          57.036 
       0.981748          279.76         56.2207 
       0.987916         278.222         55.4164 
        0.99406         274.335         54.6309 
        1.00019         273.431         53.8623 
        1.00632         272.211         53.1094 
        1.01246         269.857         52.3698 
        1.01859         270.369         51.6455 
        1.02471         265.789          50.936 
        1.03085         264.783         50.2375 
        1.03698         263.605         49.5536 
        1.04314         261.122         48.8796 
        1.04929         259.278         48.2199 
        1.05541         259.878          47.575 
        1.06154         255.593         46.9405 
        1.06769         255.245         46.3166 
        1.07382         253.236         45.7062 
        1.07993         251.823         45.1083 
        1.08607         251.212         44.5186 
        1.09222         248.677          43.939 
        1.09836         246.987         43.3704 
        1.10449         244.944         42.8126 
        1.11063         242.932          42.264 
        1.11677         242.583         41.7253 
         1.1229         240.514          41.197 
        1.12903          239.45         40.6775 
        1.13518         237.679         40.1665 
        1.14131         236.006         39.6646 
        1.14745         235.694         39.1717 
        1.15359         233.648         38.6871 
        1.15973         231.831         38.2105 
        1.16584         230.453         37.7442 
        1.17197         230.624          37.285 
        1.17811          227.49         36.8321 
        1.18424         226.451         36.3881 
        1.19038         225.886         35.9501 
        1.19652         223.808         35.5196 
        1.20267         223.346         35.0962 
        1.20881         221.503         34.6798 
        1.21495         220.136         34.2709 
        1.22108         218.817         33.8687 
         1.2272         217.495         33.4739 
        1.23334         216.708         33.0845 
        1.23949         214.615         32.7005 
        1.24562         213.909         32.3236 
        1.25174         212.832         31.9533 
        1.25789         211.375         31.5876 
        1.26402         209.251         31.2284 
        1.27014         208.267         30.8757 
        1.27628         207.196         30.5274 
        1.28244         207.146         30.1838 
        1.28858         204.863          29.846 
        1.29471         203.717         29.5142 
        1.30084         202.531         29.1877 
        1.30697          201.16         28.8657 
        1.31312          199.54         28.5481 
        1.31925         198.652         28.2364 
        1.32537         198.273         27.9296 
        1.33151         196.378         27.6263 
        1.33765         195.076         27.3277 
        1.34378         194.475         27.0341 
        1.34992         193.402         26.7446 
        1.35606         193.312         26.4588 
         1.3622         191.152         26.1776 
        1.36833         189.684         25.9013 
        1.37445         189.114         25.6291 
        1.38059         187.467           25.36 
        1.38675           186.9         25.0941 
        1.39288         185.902         24.8331 
        1.39901         185.179          24.576 
        1.40515         183.431         24.3219 
         1.4113         182.767         24.0716 
        1.41742         181.366         23.8257 
        1.42355         180.582         23.5829 
         1.4297         179.082         23.3427 
        1.43585         178.433          23.106 
        1.44198         177.699         22.8734 
        1.44809         176.667         22.6446 
        1.45423         175.867          22.418 
        1.46036         174.517         22.1949 
        1.46649         173.454         21.9749 
        1.47263         172.568         21.7576 
        1.47877         171.262         21.5434 
        1.48491         169.868         21.3317 
        1.49104          169.71         21.1234 
        1.49718         168.139         20.9177 
        1.50333          167.44         20.7144 
        1.50947         166.434         20.5143 
         1.5156         165.469         20.3171 
        1.52172         164.851         20.1225 
        1.52787         163.285           19.93 
          1.534         163.001         19.7404 
        1.54013         161.917         19.5534 
        1.54627         160.911         19.3685 
        1.55241         159.846         19.1859 
        1.55855         158.996          19.006 
        1.56467         157.841         18.8289 
         1.5708         157.053         18.6535 
        1.57695         156.629         18.4801 
        1.58308         155.671         18.3094 
        1.58922         154.826         18.1407 
        1.59535         153.681         17.9741 
         1.6015         153.119         17.8095 
        1.60764         152.268          17.647 
        1.61376         151.361          17.487 
        1.61989         150.533         17.3288 
        1.62604         149.395         17.1722 
        1.63218         149.026         17.0177 
        1.63831         147.904         16.8655 
        1.64444         147.197          16.715 
        1.65059         146.338         16.5661 
        1.65673         145.376         16.4191 
        1.66285         144.767         16.2744 
        1.66898           143.8         16.1313 
        1.67512         143.407         15.9897 
        1.68127         142.206         15.8497 
         1.6874         141.384         15.7116 
        1.69353         140.814         15.5753 
        1.69967         139.866         15.4403 
        1.70581          139.18          15.307 
        1.71193         138.403         15.1757 
        1.71806         137.767         15.0457 
        1.72421         137.041          14.917 
        1.73035          136.61         14.7899 
        1.73649         135.657         14.6644 
        1.74262         134.759         14.5404 
        1.74876         134.077         14.4178 
        1.75489         133.338         14.2968 
        1.76101         132.309         14.1773 
        1.76715          132.01          14.059 
        1.77329         131.316         13.9418 
        1.77943         130.594          13.826 
        1.78557         130.086         13.7117 
        1.79171         129.106         13.5986 
        1.79785         128.405         13.4868 
        1.80399         127.694         13.3763 
        1.81012         127.122         13.2671 
        1.81625         126.591         13.1593 
        1.82239         125.892         13.0524 
        1.82853          125.11         12.9469 
        1.83466         124.406         12.8425 
        1.84078         123.818         12.7395 
        1.84692         122.798         12.6374 
        1.85306         122.647         12.5363 
         1.8592         121.747         12.4365 
        1.86533         121.053         12.3378 
        1.87147         120.266         12.2401 
        1.87761         119.525         12.1434 
        1.88375         118.964         12.0479 
        1.88988         118.258         11.9535 
        1.89601         117.725         11.8601 
        1.90215         117.057         11.7676 
        1.90829         116.504         11.6761 
        1.91442         116.012         11.5856 
        1.92056         115.147         11.4961 
         1.9267         114.799         11.4075 
        1.93284         114.034         11.3198 
        1.93897         113.406         11.2332 
        1.94509         113.032         11.1476 
        1.95123         112.348         11.0628 
        1.95737         111.722         10.9787 
        1.96349          111.18         10.8958 
        1.96964         110.251         10.8135 
        1.97578         109.659          10.732 
        1.98192          109.34         10.6515 
        1.98805         108.728         10.5718 
        1.99419          108.22         10.4929 
        2.00033         107.508         10.4148 
        2.00647          107.13         10.3375 
         2.0126         106.252         10.2612 
        2.01874         105.723         10.1855 
        2.02488         105.436         10.1105 
        2.03101          104.59         10.0364 
        2.03714         104.092         9.96307 
        2.04328         103.519         9.89043 
        2.04941         103.064         9.81857 
        2.05554         102.379         9.74748 
        2.06167         102.109         9.67699 
        2.06781         101.279          9.6072 
        2.07396          101.03         9.53799 
        2.08009         100.401         9.46959 
        2.08622         99.7116         9.40193 
        2.09237         99.3838         9.33481 
        2.09851         98.8549         9.26833 
        2.10464         98.3472         9.20261 
        2.11077         97.7249         9.13761 
        2.11691         97.4151          9.0731 
        2.12305         96.7808          9.0092 
        2.12918          96.161         8.94607 
        2.13531          95.708         8.88355 
        2.14145         95.1005         8.82148 
         2.1476         94.6206         8.75994 
        2.15372         94.2722         8.69929 
        2.15985          93.772         8.63915 
        2.16599         93.0992         8.57941 
        2.17213         92.8022         8.52031 
        2.17827         92.2345         8.46178 
         2.1844         91.6482         8.40385 
        2.19054         91.3691         8.34644 
        2.19666         90.9257         8.28965 
         2.2028         90.3612         8.23334 
        2.20893         89.9939         8.17753 
        2.21508          89.436         8.12217 
        2.22122         89.0167         8.06731 
        2.22736         88.4793         8.01307 
        2.23349         88.1066         7.95934 
        2.23962         87.7104         7.90608 
        2.24577         87.2533         7.85326 
         2.2519         86.9066           7.801 
        2.25802         86.2579         7.74929 
        2.26417         85.9426         7.69791 
        2.27031         85.4276         7.64695 
        2.27644         84.8871         7.59661 
        2.28257         84.4571         7.54672 
        2.28872         84.2837         7.49718 
        2.29486         83.6258          7.4481 
        2.30099         83.0232         7.39956 
        2.30712         82.8207         7.35144 
        2.31326         82.3497         7.30366 
         2.3194         81.9243         7.25633 
        2.32553         81.6274         7.20951 
        2.33166         81.1882         7.16311 
         2.3378         80.6224         7.11707 
        2.34394         80.2799         7.07141 
        2.35007         79.9408         7.02622 
        2.35619         79.5417         6.98149 
        2.36233         79.0265         6.93703 
        2.36848          78.631         6.89287 
        2.37462         78.2374         6.84919 
        2.38075         77.8702         6.80593 
        2.38689          77.448         6.76301 
        2.39303         76.9756         6.72047 
        2.39916         76.7246         6.67834 
        2.40529         76.4649         6.63657 
        2.41143         75.7999         6.59513 
        2.41757         75.5678         6.55403 
         2.4237         75.2246         6.51335 
        2.42983         74.7691         6.47302 
        2.43598         74.3374         6.43293 
        2.44211         74.1605         6.39325 
        2.44823         73.7056         6.35399 
        2.45437         73.2061         6.31495 
        2.46052         72.9073         6.27621 
        2.46665         72.6512         6.23786 
        2.47279         72.1325         6.19984 
        2.47892         71.8247         6.16212 
        2.48507         71.4345         6.12468 
         2.4912         71.1256         6.08762 
