# k  (h/Mpc)    Pcb(k)  (Mpc/h)^3    Pcb_linear(k)  (Mpc/h)^3
     0.00783031         16775.8         17022.8 
       0.013688         21101.8         20901.8 
       0.019231         20989.4         20947.1 
      0.0249154         18651.4         19068.2 
      0.0312784         15955.9         16143.2 
      0.0375637         13423.4         13413.1 
      0.0433917           11251         11442.1 
      0.0492413         10014.4         10065.9 
      0.0555754         8840.85         9114.75 
      0.0619321         8510.75         8486.71 
       0.067871         7757.37         7985.11 
      0.0738098         7213.25         7426.37 
      0.0800417         6462.05         6725.85 
      0.0862327          5812.4         5952.21 
      0.0921407         5228.58         5224.87 
      0.0982031         4577.55         4573.03 
       0.104506         4216.31         4050.34 
       0.110769          3857.1         3694.89 
       0.116806         3625.27         3477.85 
       0.122832         3467.26         3335.86 
       0.129052          3246.9         3212.57 
       0.135211         3102.39         3069.12 
       0.141259         2976.78         2886.25 
       0.147318         2795.76         2665.08 
       0.153489         2543.86         2423.23 
       0.159709         2379.85         2192.09 
       0.165845         2262.93         1999.77 
       0.171974         2125.26         1853.96 
       0.178125         2017.32          1752.2 
       0.184229         1928.92         1684.03 
        0.19034         1832.03         1632.43 
       0.196428         1800.34         1581.75 
       0.202534         1736.79         1520.37 
       0.208729         1656.73          1443.1 
       0.214876         1584.97         1354.75 
       0.220989         1524.49         1263.28 
       0.227147         1455.36          1176.6 
        0.23329          1392.5         1102.46 
       0.239377         1366.16          1044.1 
       0.245482         1280.03         999.737 
       0.251667         1273.43         965.421 
       0.257832         1223.64         936.445 
       0.263955         1184.68          907.78 
       0.270079         1143.07         875.843 
        0.27624          1130.2         839.249 
       0.282372         1083.22          799.56 
        0.28843         1072.29          759.58 
       0.294538         1017.68         721.279 
       0.300721         1010.89          686.79 
        0.30691         970.784         657.568 
       0.313033         951.463         633.678 
       0.319153         932.445         613.514 
       0.325316         903.178         595.309 
        0.33145         882.092         577.606 
       0.337538         866.279          559.36 
       0.343633         846.118         540.002 
       0.349808         816.683         519.571 
       0.355968         810.855          499.12 
       0.362074         802.103         479.634 
       0.368217         777.132         461.588 
       0.374374          746.78         445.366 
       0.380519         747.099         431.061 
       0.386598          725.82         418.384 
       0.392688         723.394         406.619 
        0.39888         701.847         395.121 
       0.405048         692.185         383.685 
       0.411186         682.317         372.162 
       0.417313         668.121         360.585 
       0.423458         655.661         349.056 
       0.429607         647.354         337.895 
       0.435692         632.817         327.465 
       0.441815          627.01         317.683 
       0.447964         614.223           308.6 
       0.454126         607.103         300.177 
       0.460267          592.62         292.259 
       0.466387         585.763         284.668 
        0.47254         580.433         277.219 
       0.478662         575.502         269.912 
       0.484765          557.04         262.691 
       0.490885         553.225         255.581 
       0.497035         542.196         248.651 
       0.503198          538.17         241.987 
       0.509342         533.418         235.651 
       0.515458         529.232         229.673 
       0.521598         515.406         223.989 
       0.527764         507.281         218.547 
       0.533884         504.814         213.339 
           0.54         498.884         208.279 
       0.546137         495.681         203.327 
       0.552299         487.738         198.472 
       0.558452         484.531         193.736 
       0.564573          478.25         189.146 
       0.570708         471.958         184.688 
       0.576825         460.105         180.408 
       0.582926         460.554         176.313 
       0.589034         456.207         172.373 
       0.595184         452.525         168.547 
       0.601379          445.26         164.819 
       0.607522         439.237          161.23 
       0.613639         438.446         157.758 
       0.619772         429.566         154.371 
       0.625918         427.503         151.067 
       0.632068         420.971         147.846 
       0.638161         419.316         144.741 
         0.6443         412.547         141.702 
       0.650464          409.88         138.746 
       0.656582         406.207         135.905 
       0.662703         405.309         133.155 
       0.668861         398.573         130.473 
       0.675024         395.178         127.866 
       0.681124         391.959         125.356 
       0.687237         388.652         122.903 
       0.693381         383.128         120.499 
       0.699536         378.217         118.152 
       0.705665         376.677         115.876 
       0.711789         375.041         113.663 
       0.717957         371.752         111.495 
        0.72409         369.233         109.399 
       0.730186         364.154         107.373 
       0.736317         361.373         105.389 
       0.742472         359.211         103.448 
       0.748622         355.719         101.559 
        0.75476          351.27         99.7211 
       0.760888         347.761         97.9303 
       0.767043         348.191         96.1757 
       0.773185         344.321         94.4676 
       0.779291          339.75         92.8107 
       0.785407         338.688         91.1914 
       0.791564           334.6         89.6012 
       0.797719         332.312         88.0506 
       0.803834         328.759         86.5474 
       0.809972         328.255         85.0747 
       0.816124         327.255         83.6337 
       0.822261         323.184         82.2305 
       0.828378         321.007          80.864 
       0.834502         317.659         79.5278 
       0.840667         315.406         78.2132 
       0.846816         314.016         76.9321 
       0.852925         311.997         75.6878 
       0.859047         309.733         74.4685 
       0.865192         305.981         73.2722 
       0.871341         303.657         72.1015 
       0.877463         303.189         70.9619 
       0.883569          300.95         69.8499 
       0.889708         298.013         68.7564 
       0.895864         296.525         67.6836 
       0.902008         294.002         66.6362 
       0.908149         291.569         65.6118 
       0.914301         288.945         64.6075 
       0.920448         287.464         63.6254 
       0.926574         284.097         62.6673 
       0.932687         284.216         61.7311 
       0.938823         281.114         60.8109 
       0.944975         280.522         59.9074 
       0.951105         278.182         59.0258 
       0.957225         276.422         58.1635 
       0.963368         272.799         57.3156 
       0.969511         271.954         56.4848 
       0.975621         269.881          55.675 
       0.981748         268.967         54.8792 
       0.987916         267.377          54.094 
        0.99406          263.71         53.3273 
        1.00019          262.97         52.5771 
        1.00632         261.672         51.8421 
        1.01246         259.426         51.1201 
        1.01859         259.933         50.4132 
        1.02471         255.493         49.7206 
        1.03085          254.43         49.0387 
        1.03698         253.332         48.3712 
        1.04314         250.883         47.7133 
        1.04929         249.211         47.0693 
        1.05541         249.759         46.4398 
        1.06154         245.709         45.8204 
        1.06769         245.361         45.2114 
        1.07382         243.452         44.6156 
        1.07993         242.023         44.0319 
        1.08607         241.438         43.4563 
        1.09222         239.115         42.8905 
        1.09836         237.459         42.3355 
        1.10449         235.395          41.791 
        1.11063         233.518         41.2555 
        1.11677         233.124         40.7297 
         1.1229         231.164          40.214 
        1.12903         230.164         39.7068 
        1.13518         228.507          39.208 
        1.14131          226.81         38.7181 
        1.14745         226.603          38.237 
        1.15359         224.586         37.7639 
        1.15973         222.818         37.2987 
        1.16584         221.513         36.8435 
        1.17197         221.635         36.3953 
        1.17811         218.677         35.9532 
        1.18424         217.703         35.5198 
        1.19038         217.154         35.0923 
        1.19652         215.192         34.6721 
        1.20267          214.71         34.2587 
        1.20881         212.938         33.8523 
        1.21495         211.651         33.4531 
        1.22108         210.366         33.0605 
         1.2272         209.044         32.6751 
        1.23334         208.321         32.2951 
        1.23949         206.363         31.9202 
        1.24562         205.634         31.5523 
        1.25174         204.554         31.1908 
        1.25789         203.163         30.8339 
        1.26402         201.158         30.4833 
        1.27014         200.142         30.1389 
        1.27628          199.21          29.799 
        1.28244         199.154         29.4636 
        1.28858         196.907         29.1338 
        1.29471         195.731         28.8099 
        1.30084         194.772         28.4912 
        1.30697         193.314         28.1769 
        1.31312         191.834         27.8669 
        1.31925         191.021         27.5626 
        1.32537         190.594         27.2631 
        1.33151         188.738          26.967 
        1.33765         187.539         26.6756 
        1.34378         186.956          26.389 
        1.34992         185.937         26.1064 
        1.35606         185.874         25.8274 
         1.3622           183.8          25.553 
        1.36833         182.331         25.2832 
        1.37445           181.8         25.0175 
        1.38059         180.209         24.7548 
        1.38675         179.681         24.4953 
        1.39288           178.7         24.2406 
        1.39901         178.128         23.9896 
        1.40515         176.318         23.7416 
         1.4113         175.709         23.4972 
        1.41742         174.354         23.2572 
        1.42355         173.603         23.0202 
         1.4297         172.213         22.7857 
        1.43585         171.578         22.5546 
        1.44198         170.785         22.3276 
        1.44809         169.891         22.1042 
        1.45423         169.084         21.8831 
        1.46036         167.774         21.6653 
        1.46649         166.751         21.4505 
        1.47263         165.861         21.2384 
        1.47877         164.662         21.0293 
        1.48491         163.298         20.8227 
        1.49104         163.187         20.6194 
        1.49718         161.668         20.4186 
        1.50333         160.971         20.2201 
        1.50947         160.061         20.0247 
         1.5156         159.148         19.8323 
        1.52172         158.495         19.6423 
        1.52787         157.032         19.4545 
          1.534         156.697         19.2693 
        1.54013         155.719         19.0868 
        1.54627          154.76         18.9063 
        1.55241         153.732         18.7281 
        1.55855         152.919         18.5525 
        1.56467         151.817         18.3796 
         1.5708         151.016         18.2084 
        1.57695         150.605         18.0392 
        1.58308         149.732         17.8725 
        1.58922         148.957         17.7078 
        1.59535         147.856         17.5452 
         1.6015         147.337         17.3845 
        1.60764         146.506         17.2259 
        1.61376         145.577         17.0697 
        1.61989          144.79         16.9153 
        1.62604         143.696         16.7625 
        1.63218         143.395         16.6117 
        1.63831         142.317          16.463 
        1.64444         141.626         16.3162 
        1.65059         140.804         16.1708 
        1.65673         139.841         16.0273 
        1.66285          139.34          15.886 
        1.66898          138.35         15.7464 
        1.67512          138.02         15.6082 
        1.68127         136.878         15.4715 
         1.6874         136.011         15.3367 
        1.69353          135.57         15.2037 
        1.69967         134.677         15.0719 
        1.70581         133.948         14.9417 
        1.71193         133.234         14.8136 
        1.71806         132.623         14.6867 
        1.72421         131.908          14.561 
        1.73035         131.558          14.437 
        1.73649         130.612         14.3145 
        1.74262         129.721         14.1934 
        1.74876         129.147         14.0737 
        1.75489         128.353         13.9557 
        1.76101         127.425          13.839 
        1.76715         127.074         13.7235 
        1.77329         126.502         13.6092 
        1.77943         125.695         13.4961 
        1.78557         125.251         13.3845 
        1.79171         124.281         13.2741 
        1.79785         123.632          13.165 
        1.80399         122.917         13.0571 
        1.81012         122.397         12.9506 
        1.81625         121.853         12.8453 
        1.82239         121.258          12.741 
        1.82853         120.451         12.6379 
        1.83466         119.764         12.5361 
        1.84078         119.243         12.4355 
        1.84692         118.255         12.3359 
        1.85306         118.092         12.2372 
         1.8592         117.241         12.1398 
        1.86533         116.482         12.0434 
        1.87147         115.842         11.9481 
        1.87761         115.119         11.8537 
        1.88375         114.542         11.7604 
        1.88988         113.943         11.6683 
        1.89601         113.326         11.5771 
        1.90215         112.722         11.4868 
        1.90829         112.226         11.3975 
        1.91442         111.705         11.3091 
        1.92056         110.879         11.2218 
         1.9267         110.588         11.1353 
        1.93284         109.891         11.0497 
        1.93897         109.211         10.9651 
        1.94509         108.847         10.8816 
        1.95123          108.19         10.7988 
        1.95737         107.618         10.7168 
        1.96349         107.076         10.6358 
        1.96964         106.164         10.5554 
        1.97578         105.632         10.4759 
        1.98192         105.375         10.3973 
        1.98805         104.702         10.3195 
        1.99419         104.292         10.2425 
        2.00033         103.551         10.1663 
        2.00647         103.227         10.0909 
         2.0126         102.396         10.0163 
        2.01874         101.847         9.94244 
        2.02488         101.556         9.86922 
        2.03101         100.773         9.79688 
        2.03714         100.232         9.72533 
        2.04328         99.7674         9.65442 
        2.04941         99.3114         9.58428 
        2.05554         98.6529         9.51488 
        2.06167         98.3773         9.44608 
        2.06781         97.6019         9.37795 
        2.07396          97.328          9.3104 
        2.08009         96.7782         9.24363 
        2.08622         96.1103         9.17759 
        2.09237         95.7521         9.11207 
        2.09851         95.2754         9.04717 
        2.10464         94.7793         8.98302 
        2.11077         94.2007         8.91957 
        2.11691         93.8974          8.8566 
        2.12305          93.253         8.79422 
        2.12918         92.6806         8.73261 
        2.13531         92.2888         8.67157 
        2.14145         91.6336         8.61099 
         2.1476          91.192         8.55091 
        2.15372         90.8646         8.49171 
        2.15985         90.4023         8.43301 
        2.16599          89.743         8.37469 
        2.17213         89.4525           8.317 
        2.17827         88.9194         8.25986 
         2.1844         88.3632         8.20331 
        2.19054         88.0951         8.14728 
        2.19666         87.6506         8.09185 
         2.2028         87.1339         8.03688 
        2.20893         86.7552          7.9824 
        2.21508         86.2163         7.92836 
        2.22122         85.8141         7.87481 
        2.22736         85.3376         7.82186 
        2.23349         84.9453         7.76942 
        2.23962          84.565         7.71743 
        2.24577         84.1685         7.66587 
         2.2519         83.8117         7.61485 
        2.25802         83.2115         7.56438 
        2.26417          82.869         7.51423 
        2.27031         82.3963         7.46449 
        2.27644         81.8639         7.41534 
        2.28257         81.4524         7.36664 
        2.28872         81.2754         7.31829 
        2.29486         80.6497         7.27038 
        2.30099         80.0683           7.223 
        2.30712         79.8936         7.17602 
        2.31326         79.4395         7.12938 
         2.3194         79.0271         7.08318 
        2.32553         78.7403         7.03747 
        2.33166         78.3168         6.99219 
         2.3378         77.7568         6.94724 
        2.34394         77.4195         6.90268 
        2.35007         77.1013         6.85857 
        2.35619         76.7262         6.81489 
        2.36233         76.2409          6.7715 
        2.36848         75.8689          6.7284 
        2.37462         75.4398         6.68576 
        2.38075         75.1475         6.64353 
        2.38689         74.7233         6.60164 
        2.39303         74.2609         6.56011 
        2.39916         74.0042         6.51898 
        2.40529         73.7697         6.47821 
        2.41143         73.1266         6.43776 
        2.41757         72.9196         6.39764 
         2.4237         72.5887         6.35793 
        2.42983         72.1396         6.31857 
        2.43598         71.7343         6.27943 
        2.44211         71.5484         6.24069 
        2.44823         71.1235         6.20237 
        2.45437         70.6404         6.16426 
        2.46052         70.3644         6.12645 
        2.46665          70.103         6.08901 
        2.47279         69.6266         6.05191 
        2.47892         69.3361         6.01508 
        2.48507         68.9134         5.97853 
         2.4912         68.6158         5.94236 
