# k  (h/Mpc)    P(k)  (Mpc/h)^3    P_linear(k)  (Mpc/h)^3
     0.00783031         401.708         405.931 
       0.013688         496.756         498.593 
       0.019231         499.375         499.755 
      0.0249154         453.202         454.971 
      0.0312784         385.253         385.206 
      0.0375637         320.978         320.075 
      0.0433917         273.296         273.051 
      0.0492413           240.8         240.214 
      0.0555754         217.272         217.519 
      0.0619321         203.283         202.534 
       0.067871         190.267         190.565 
      0.0738098         176.865         177.232 
      0.0800417         159.948         160.515 
      0.0862327         141.965         142.053 
      0.0921407         124.831         124.695 
      0.0982031         109.148         109.139 
       0.104506         97.2043         96.6645 
       0.110769          88.628         88.1815 
       0.116806         83.0701          83.002 
       0.122832         79.8587         79.6134 
       0.129052         76.5996         76.6709 
       0.135211         73.1248         73.2477 
       0.141259         68.9693         68.8833 
       0.147318         63.8806          63.605 
       0.153489         58.0164         57.8331 
       0.159709         52.5644         52.3167 
       0.165845         48.2432         47.7267 
       0.171974          44.498         44.2468 
       0.178125         42.1321         41.8183 
       0.184229         40.5416         40.1915 
        0.19034         39.0522         38.9599 
       0.196428         37.9752         37.7504 
       0.202534         36.6838         36.2854 
       0.208729         34.7113         34.4415 
       0.214876         32.5196         32.3328 
       0.220989         30.5354         30.1498 
       0.227147         28.3123         28.0809 
        0.23329         26.5624         26.3115 
       0.239377         25.2243         24.9187 
       0.245482         24.0631           23.86 
       0.251667         23.3805          23.041 
       0.257832         22.6267         22.3495 
       0.263955         21.9588         21.6653 
       0.270079         21.1905         20.9032 
        0.27624         20.4126         20.0298 
       0.282372         19.4711         19.0825 
        0.28843         18.4506         18.1284 
       0.294538         17.5494         17.2143 
       0.300721         16.8146         16.3911 
        0.30691         16.0301         15.6936 
       0.313033         15.4707         15.1236 
       0.319153         14.8693         14.6423 
       0.325316         14.5897         14.2078 
        0.33145         14.1333         13.7853 
       0.337538         13.6913         13.3499 
       0.343633         13.1899         12.8879 
       0.349808         12.7444         12.4003 
       0.355968         12.2627         11.9122 
       0.362074         11.7821         11.4471 
       0.368217         11.3653         11.0164 
       0.374374         10.9358         10.6292 
       0.380519         10.6332         10.2879 
       0.386598         10.3456          9.9853 
       0.392688         10.0863         9.70455 
        0.39888          9.7869         9.43007 
       0.405048         9.52264          9.1572 
       0.411186         9.25322         8.88215 
       0.417313         8.94528         8.60586 
       0.423458          8.6908         8.33072 
       0.429607         8.40174          8.0643 
       0.435692         8.14888         7.81543 
       0.441815         7.92305         7.58193 
       0.447964         7.74176         7.36519 
       0.454126         7.49292         7.16413 
       0.460267         7.31185         6.97519 
       0.466387         7.10309           6.794 
        0.47254         6.94545         6.61622 
       0.478662         6.78492         6.44183 
       0.484765          6.5857         6.26949 
       0.490885         6.41822          6.0998 
       0.497035         6.29969         5.93439 
       0.503198         6.11556         5.77536 
       0.509342         5.96711         5.62415 
       0.515458          5.8125         5.48143 
       0.521598         5.68131         5.34584 
       0.527764         5.53272         5.21592 
       0.533884         5.43418         5.09164 
           0.54         5.30167         4.97087 
       0.546137         5.18876         4.85267 
       0.552299         5.07396         4.73681 
       0.558452         4.93418         4.62379 
       0.564573         4.84228         4.51423 
       0.570708         4.73397         4.40784 
       0.576825          4.6157         4.30568 
       0.582926         4.53075         4.20795 
       0.589034         4.40424         4.11391 
       0.595184         4.32319         4.02261 
       0.601379         4.22842         3.93363 
       0.607522         4.15954         3.84799 
       0.613639         4.09005         3.76512 
       0.619772         3.97911         3.68429 
       0.625918         3.91554         3.60542 
       0.632068         3.84861         3.52855 
       0.638161         3.75684         3.45445 
         0.6443         3.67959         3.38193 
       0.650464         3.59716         3.31136 
       0.656582         3.54621         3.24358 
       0.662703         3.47736         3.17794 
       0.668861         3.42055         3.11393 
       0.675024         3.34575         3.05171 
       0.681124         3.27717         2.99179 
       0.687237         3.22855         2.93325 
       0.693381         3.17071         2.87588 
       0.699536          3.0895         2.81986 
       0.705665         3.04127         2.76555 
       0.711789         2.99224         2.71273 
       0.717957         2.93329         2.66099 
        0.72409         2.88315         2.61097 
       0.730186         2.83161          2.5626 
       0.736317         2.80079         2.51525 
       0.742472         2.75012         2.46895 
       0.748622         2.69537         2.42386 
        0.75476         2.64224         2.37999 
       0.760888         2.59888         2.33725 
       0.767043         2.56965         2.29537 
       0.773185         2.51504          2.2546 
       0.779291         2.48061         2.21506 
       0.785407         2.43805         2.17641 
       0.791564         2.40156         2.13846 
       0.797719         2.36628         2.10145 
       0.803834         2.33247         2.06558 
       0.809972         2.29464         2.03043 
       0.816124         2.25215         1.99604 
       0.822261         2.21141         1.96255 
       0.828378         2.18331         1.92994 
       0.834502         2.15815         1.89804 
       0.840667         2.11142         1.86667 
       0.846816         2.08007         1.83609 
       0.852925         2.05989          1.8064 
       0.859047         2.02829          1.7773 
       0.865192         1.99595         1.74875 
       0.871341         1.96859         1.72081 
       0.877463         1.94442         1.69361 
       0.883569         1.90858         1.66707 
       0.889708         1.88056         1.64097 
       0.895864         1.85493         1.61537 
       0.902008         1.82461         1.59037 
       0.908149          1.8024         1.56592 
       0.914301         1.76756         1.54195 
       0.920448         1.74653         1.51851 
       0.926574         1.72107         1.49564 
       0.932687         1.69782          1.4733 
       0.938823         1.68173         1.45134 
       0.944975         1.65668         1.42978 
       0.951105         1.63625         1.40874 
       0.957225         1.62019         1.38816 
       0.963368         1.59577         1.36792 
       0.969511         1.57095         1.34809 
       0.975621         1.54662         1.32877 
       0.981748         1.53304         1.30977 
       0.987916         1.51049         1.29103 
        0.99406         1.48727         1.27273 
        1.00019         1.47396         1.25483 
        1.00632         1.45037         1.23729 
        1.01246         1.43288         1.22006 
        1.01859           1.417         1.20318 
        1.02471         1.39662         1.18665 
        1.03085         1.38339         1.17038 
        1.03698         1.36255         1.15445 
        1.04314         1.34829         1.13875 
        1.04929         1.32927         1.12338 
        1.05541         1.31564         1.10835 
        1.06154         1.29778         1.09357 
        1.06769         1.28247         1.07904 
        1.07382         1.26722         1.06482 
        1.07993         1.24788         1.05089 
        1.08607         1.24052         1.03715 
        1.09222         1.22193         1.02364 
        1.09836         1.21269          1.0104 
        1.10449         1.19783        0.997403 
        1.11063         1.17944        0.984624 
        1.11677         1.16491        0.972074 
         1.1229         1.15329        0.959766 
        1.12903         1.13862        0.947661 
        1.13518         1.12878        0.935757 
        1.14131         1.11311        0.924065 
        1.14745          1.0943        0.912581 
        1.15359         1.08787        0.901291 
        1.15973         1.07125        0.890189 
        1.16584         1.06668        0.879324 
        1.17197          1.0527        0.868627 
        1.17811         1.04232        0.858076 
        1.18424         1.03353        0.847732 
        1.19038         1.01861        0.837529 
        1.19652         1.00598          0.8275 
        1.20267        0.999518        0.817635 
        1.20881        0.984812        0.807935 
        1.21495        0.977748        0.798408 
        1.22108        0.967007        0.789037 
         1.2272        0.959221         0.77984 
        1.23334        0.946548        0.770769 
        1.23949        0.936252        0.761822 
        1.24562        0.927904        0.753042 
        1.25174        0.918497        0.744415 
        1.25789        0.909629        0.735897 
        1.26402        0.897064        0.727528 
        1.27014         0.88856        0.719311 
        1.27628        0.883642        0.711196 
        1.28244        0.870091        0.703192 
        1.28858        0.862699        0.695322 
        1.29471        0.855515        0.687591 
        1.30084        0.845238        0.679986 
        1.30697        0.837189        0.672484 
        1.31312        0.825516        0.665085 
        1.31925         0.82047        0.657822 
        1.32537        0.813308        0.650675 
        1.33151        0.806482        0.643609 
        1.33765        0.797453        0.636652 
        1.34378        0.787461        0.629812 
        1.34992        0.782985        0.623069 
        1.35606        0.773431         0.61641 
         1.3622        0.767413         0.60986 
        1.36833         0.75933        0.603422 
        1.37445        0.749981        0.597081 
        1.38059        0.743941        0.590811 
        1.38675        0.742002        0.584617 
        1.39288        0.731589        0.578537 
        1.39901        0.725149        0.572547 
        1.40515        0.719057        0.566628 
         1.4113        0.711177        0.560796 
        1.41742        0.704732        0.555068 
        1.42355        0.701926         0.54941 
         1.4297        0.692103        0.543815 
        1.43585        0.686458          0.5383 
        1.44198        0.683539        0.532882 
        1.44809        0.674099         0.52755 
        1.45423        0.668744        0.522272 
        1.46036        0.662964        0.517075 
        1.46649        0.657425        0.511948 
        1.47263         0.65096        0.506887 
        1.47877        0.644592        0.501896 
        1.48491        0.639405        0.496966 
        1.49104        0.632768        0.492112 
        1.49718        0.629134        0.487319 
        1.50333        0.623112        0.482584 
        1.50947        0.618347        0.477921 
         1.5156        0.612205        0.473327 
        1.52172        0.607185        0.468793 
        1.52787        0.601489         0.46431 
          1.534        0.597404        0.459891 
        1.54013        0.590734        0.455535 
        1.54627        0.586303        0.451227 
        1.55241        0.580943        0.446974 
        1.55855        0.575872        0.442783 
        1.56467         0.57351        0.438657 
         1.5708        0.566741        0.434571 
        1.57695        0.563427        0.430532 
        1.58308        0.558417        0.426554 
        1.58922        0.553731        0.422623 
        1.59535        0.549079        0.418744 
         1.6015          0.5448        0.414908 
        1.60764        0.540892        0.411122 
        1.61376        0.535022        0.407394 
        1.61989        0.532072        0.403709 
        1.62604        0.527269        0.400062 
        1.63218        0.524214        0.396462 
        1.63831        0.519364        0.392915 
        1.64444        0.514935        0.389411 
        1.65059        0.511427        0.385941 
        1.65673        0.506884        0.382517 
        1.66285        0.503294        0.379144 
        1.66898        0.500453        0.375811 
        1.67512        0.494858        0.372512 
        1.68127        0.490878         0.36925 
         1.6874        0.488906        0.366034 
        1.69353        0.483945        0.362858 
        1.69967          0.4806        0.359713 
        1.70581        0.476845        0.356607 
        1.71193         0.47329        0.353549 
        1.71806        0.469641         0.35052 
        1.72421         0.46629        0.347522 
        1.73035        0.462098        0.344561 
        1.73649        0.459808        0.341637 
        1.74262        0.456206        0.338748 
        1.74876         0.45224        0.335891 
        1.75489         0.44886        0.333073 
        1.76101        0.445271        0.330288 
        1.76715        0.442187        0.327532 
        1.77329        0.439104        0.324803 
        1.77943        0.435462        0.322105 
        1.78557        0.432758        0.319441 
        1.79171        0.429974        0.316807 
        1.79785        0.426509        0.314202 
        1.80399        0.423377        0.311628 
        1.81012        0.420818        0.309085 
        1.81625        0.417523        0.306572 
        1.82239        0.415143        0.304083 
        1.82853        0.410561        0.301623 
        1.83466        0.408564        0.299193 
        1.84078        0.404988        0.296793 
        1.84692        0.402958        0.294414 
        1.85306         0.40047        0.292059 
         1.8592        0.397654        0.289734 
        1.86533         0.39504        0.287435 
        1.87147        0.392075        0.285159 
        1.87761        0.389715        0.282906 
        1.88375        0.385762        0.280681 
        1.88988        0.384072        0.278482 
        1.89601        0.380913        0.276305 
        1.90215        0.378796         0.27415 
        1.90829        0.375787        0.272019 
        1.91442        0.373477         0.26991 
        1.92056        0.370987        0.267826 
         1.9267         0.36809        0.265762 
        1.93284        0.365922        0.263718 
        1.93897        0.363534          0.2617 
        1.94509        0.361394        0.259707 
        1.95123        0.358332         0.25773 
        1.95737        0.356566        0.255772 
        1.96349        0.353743         0.25384 
        1.96964        0.351582        0.251922 
        1.97578        0.349014        0.250023 
        1.98192         0.34752        0.248148 
        1.98805        0.345093        0.246292 
        1.99419        0.342503        0.244454 
        2.00033        0.340775        0.242635 
        2.00647        0.338556        0.240834 
         2.0126        0.335886        0.239055 
        2.01874        0.334132        0.237292 
        2.02488        0.332305        0.235544 
        2.03101        0.329473        0.233818 
        2.03714        0.327274         0.23211 
        2.04328        0.325803        0.230418 
        2.04941         0.32362        0.228744 
        2.05554        0.321468        0.227088 
        2.06167        0.319802        0.225446 
        2.06781        0.316682         0.22382 
        2.07396        0.314898        0.222207 
        2.08009         0.31309        0.220614 
        2.08622        0.311383        0.219038 
        2.09237        0.310256        0.217474 
        2.09851        0.308161        0.215925 
        2.10464         0.30608        0.214394 
        2.11077        0.304051         0.21288 
        2.11691        0.301975        0.211377 
        2.12305        0.300242        0.209888 
        2.12918        0.298636        0.208417 
        2.13531        0.296528        0.206961 
        2.14145        0.294995        0.205515 
         2.1476        0.293239        0.204081 
        2.15372        0.291999        0.202668 
        2.15985        0.289588        0.201267 
        2.16599        0.287534        0.199875 
        2.17213        0.286421        0.198498 
        2.17827        0.284902        0.197135 
         2.1844        0.283381        0.195785 
        2.19054        0.281358        0.194448 
        2.19666        0.279237        0.193125 
         2.2028        0.278204        0.191813 
        2.20893        0.276677        0.190513 
        2.21508        0.274589        0.189223 
        2.22122        0.272689        0.187945 
        2.22736        0.271547        0.186681 
        2.23349        0.270169         0.18543 
        2.23962        0.268838        0.184189 
        2.24577         0.26648        0.182958 
         2.2519        0.265727        0.181741 
        2.25802        0.263712        0.180536 
        2.26417        0.262302        0.179339 
        2.27031        0.260665        0.178152 
        2.27644        0.259525        0.176979 
        2.28257        0.257909        0.175817 
        2.28872        0.256509        0.174663 
        2.29486        0.254979        0.173519 
        2.30099         0.25366        0.172388 
        2.30712        0.252517        0.171267 
        2.31326        0.250611        0.170154 
         2.3194        0.250391        0.169052 
        2.32553        0.248831        0.167961 
        2.33166        0.247395         0.16688 
         2.3378        0.246009        0.165807 
        2.34394        0.243896        0.164743 
        2.35007        0.242898        0.163691 
        2.35619         0.24149        0.162648 
        2.36233         0.23974        0.161613 
        2.36848        0.238963        0.160584 
        2.37462        0.237419        0.159566 
        2.38075        0.236797        0.158559 
        2.38689         0.23509        0.157559 
        2.39303        0.234358        0.156568 
        2.39916        0.232307        0.155586 
        2.40529        0.231359        0.154613 
        2.41143        0.230334        0.153648 
        2.41757        0.228968         0.15269 
         2.4237        0.227839        0.151742 
        2.42983        0.226594        0.150803 
        2.43598        0.225912        0.149869 
        2.44211        0.224502        0.148944 
        2.44823        0.223662         0.14803 
        2.45437         0.22167         0.14712 
        2.46052        0.221129        0.146218 
        2.46665        0.219689        0.145324 
        2.47279        0.218546        0.144439 
        2.47892        0.217464         0.14356 
        2.48507        0.216286        0.142687 
         2.4912        0.215418        0.141824 
