# k  (h/Mpc)    Pcb(k)  (Mpc/h)^3    Pcb_linear(k)  (Mpc/h)^3
     0.00783031         339.451         341.584 
       0.013688         447.577         451.148 
       0.019231         486.092         487.669 
      0.0249154         482.654         483.161 
      0.0312784         451.103         451.781 
      0.0375637         411.145         411.976 
      0.0433917         377.401         377.089 
      0.0492413         347.475         347.855 
      0.0555754         323.207         322.812 
      0.0619321         300.704         302.258 
       0.067871         284.071         284.533 
      0.0738098         266.054         266.354 
      0.0800417         246.174         246.089 
      0.0862327         225.076         225.337 
      0.0921407         205.883         206.206 
      0.0982031         188.685         188.556 
       0.104506          172.66          173.22 
       0.110769         160.709         161.165 
       0.116806         152.231         152.039 
       0.122832         144.107         144.501 
       0.129052          137.34         137.395 
       0.135211         130.481          130.28 
       0.141259         122.744         122.886 
       0.147318         114.638         115.159 
       0.153489         107.191         107.336 
       0.159709         100.088         99.9792 
       0.165845         93.1193         93.6121 
       0.171974         88.5495         88.2902 
       0.178125         84.1612         83.9154 
       0.184229         80.2043         80.2872 
        0.19034         77.3615           77.05 
       0.196428         74.1463         73.9287 
       0.202534         70.4792          70.715 
       0.208729         67.4755         67.3171 
       0.214876         64.3491         63.8808 
       0.220989          60.455         60.5423 
       0.227147          57.957         57.4109 
        0.23329         55.2434         54.6229 
       0.239377         52.9071         52.2227 
       0.245482         50.7268         50.1392 
       0.251667         48.6573         48.2711 
       0.257832         47.2255         46.5445 
       0.263955         45.3277         44.8731 
       0.270079         43.6614         43.1909 
        0.27624         41.7624         41.4773 
       0.282372         40.1416         39.7783 
        0.28843         38.8522         38.1502 
       0.294538         37.2416         36.6054 
       0.300721         35.6426         35.1714 
        0.30691         34.5915         33.8743 
       0.313033         33.3508         32.7134 
       0.319153         32.5672         31.6452 
       0.325316         31.1621          30.629 
        0.33145         30.1886         29.6478 
       0.337538         29.3053         28.6869 
       0.343633         28.4272         27.7346 
       0.349808         27.4376         26.7869 
       0.355968         26.4959         25.8727 
       0.362074         25.7658         25.0103 
       0.368217         24.9351         24.1965 
       0.374374          24.355         23.4362 
       0.380519         23.4412         22.7284 
       0.386598         22.7356         22.0692 
       0.392688         22.0838         21.4386 
        0.39888         21.5491         20.8192 
       0.405048         20.9726         20.2177 
       0.411186         20.3652         19.6322 
       0.417313          19.812         19.0631 
       0.423458         19.1779         18.5106 
       0.429607          18.772         17.9799 
       0.435692         18.3266         17.4798 
       0.441815         17.7322         17.0013 
       0.447964         17.2073         16.5444 
       0.454126         16.8743         16.1078 
       0.460267         16.5809         15.6901 
       0.466387         16.1012         15.2876 
        0.47254         15.7646         14.8948 
       0.478662         15.3408         14.5151 
       0.484765         14.9841         14.1471 
       0.490885         14.5774         13.7894 
       0.497035         14.1959         13.4426 
       0.503198         13.9058         13.1083 
       0.509342         13.5344         12.7879 
       0.515458         13.2984         12.4812 
       0.521598         12.9961         12.1851 
       0.527764         12.7769         11.8981 
       0.533884         12.3945         11.6223 
           0.54         12.1559         11.3549 
       0.546137         11.8281         11.0942 
       0.552299         11.6099         10.8402 
       0.558452         11.3684         10.5941 
       0.564573         11.1626         10.3568 
       0.570708         10.9172         10.1264 
       0.576825         10.6964         9.90418 
       0.582926         10.4623         9.68986 
       0.589034         10.2865         9.48215 
       0.595184         10.1178         9.27946 
       0.601379         9.86063         9.08133 
       0.607522         9.67335         8.89044 
       0.613639         9.44629         8.70569 
       0.619772         9.31448         8.52565 
       0.625918         9.12205         8.35032 
       0.632068         8.98066         8.17982 
       0.638161         8.80053         8.01565 
         0.6443         8.62951         7.85488 
       0.650464         8.44334         7.69807 
       0.656582         8.35251         7.54682 
       0.662703         8.20705         7.39974 
       0.668861         7.99586         7.25585 
       0.675024         7.87355         7.11574 
       0.681124         7.82987         6.98075 
       0.687237           7.646         6.84897 
       0.693381          7.4563         6.71993 
       0.699536         7.39576         6.59397 
       0.705665         7.25975          6.4718 
       0.711789         7.10375         6.35287 
       0.717957         6.97753         6.23617 
        0.72409         6.88255         6.12313 
       0.730186         6.80587         6.01364 
       0.736317         6.66621         5.90628 
       0.742472         6.57597         5.80118 
       0.748622         6.47629         5.69875 
        0.75476         6.33072         5.59903 
       0.760888         6.26805         5.50185 
       0.767043         6.11219          5.4066 
       0.773185         6.04224         5.31381 
       0.779291         5.99805         5.22374 
       0.785407         5.87885         5.13564 
       0.791564         5.79867         5.04904 
       0.797719         5.69763         4.96451 
       0.803834         5.61889         4.88247 
       0.809972         5.52857         4.80202 
       0.816124         5.45181         4.72323 
       0.822261         5.37906         4.64644 
       0.828378         5.28713          4.5716 
       0.834502         5.22166         4.49836 
       0.840667         5.16285         4.42627 
       0.846816         5.07477         4.35598 
       0.852925          4.9962         4.28766 
       0.859047         4.93158         4.22068 
       0.865192         4.86365         4.15492 
       0.871341         4.79647         4.09053 
       0.877463         4.72418         4.02781 
       0.883569         4.66429         3.96658 
       0.889708         4.60905         3.90632 
       0.895864         4.54737         3.84716 
       0.902008         4.47215         3.78936 
       0.908149         4.42172          3.7328 
       0.914301         4.37474         3.67731 
       0.920448         4.31497         3.62301 
       0.926574          4.2799            3.57 
       0.932687         4.21027         3.51818 
       0.938823         4.14033          3.4672 
       0.944975         4.10291         3.41713 
       0.951105         4.03073         3.36823 
       0.957225         3.99071         3.32038 
       0.963368         3.95454          3.2733 
       0.969511         3.90871         3.22715 
       0.975621         3.85029         3.18213 
       0.981748         3.78174         3.13787 
       0.987916         3.74589         3.09417 
        0.99406         3.71915         3.05148 
        1.00019         3.67012         3.00968 
        1.00632         3.63652         2.96871 
        1.01246         3.58283         2.92844 
        1.01859         3.54194         2.88899 
        1.02471         3.48564         2.85033 
        1.03085         3.45552         2.81223 
        1.03698         3.42044         2.77493 
        1.04314          3.3856         2.73814 
        1.04929         3.34631         2.70211 
        1.05541          3.2959         2.66688 
        1.06154         3.27163          2.6322 
        1.06769          3.2444         2.59808 
        1.07382         3.19638         2.56468 
        1.07993         3.15773         2.53196 
        1.08607         3.13139         2.49967 
        1.09222         3.08567         2.46791 
        1.09836         3.07072         2.43675 
        1.10449         3.01451         2.40617 
        1.11063         2.98895         2.37608 
        1.11677         2.96338         2.34652 
         1.1229         2.92051         2.31751 
        1.12903         2.90347         2.28898 
        1.13518         2.86112          2.2609 
        1.14131         2.83714         2.23332 
        1.14745         2.80677         2.20621 
        1.15359         2.77843         2.17955 
        1.15973         2.75049         2.15333 
        1.16584         2.71842         2.12765 
        1.17197          2.6888         2.10236 
        1.17811         2.66214          2.0774 
        1.18424         2.63518         2.05293 
        1.19038         2.60622         2.02878 
        1.19652         2.59071         2.00503 
        1.20267         2.56748         1.98166 
        1.20881         2.53308         1.95867 
        1.21495         2.51271         1.93609 
        1.22108         2.49029         1.91386 
         1.2272          2.4547         1.89204 
        1.23334         2.44171         1.87051 
        1.23949         2.41955         1.84927 
        1.24562         2.39491         1.82841 
        1.25174         2.37218         1.80791 
        1.25789         2.34428         1.78767 
        1.26402         2.32013         1.76777 
        1.27014         2.29752         1.74822 
        1.27628         2.28079         1.72891 
        1.28244         2.26321         1.70986 
        1.28858         2.23689         1.69112 
        1.29471         2.21237         1.67271 
        1.30084         2.19695         1.65459 
        1.30697         2.18212         1.63671 
        1.31312         2.16077         1.61907 
        1.31925         2.14125         1.60175 
        1.32537         2.12381          1.5847 
        1.33151         2.10095         1.56783 
        1.33765         2.08424         1.55123 
        1.34378         2.06267          1.5349 
        1.34992         2.05146         1.51879 
        1.35606         2.03006         1.50288 
         1.3622         2.01438         1.48723 
        1.36833         1.99466         1.47184 
        1.37445         1.97796         1.45668 
        1.38059         1.96069         1.44168 
        1.38675         1.94496         1.42686 
        1.39288          1.9287         1.41231 
        1.39901          1.9122         1.39797 
        1.40515         1.89386          1.3838 
         1.4113         1.88578         1.36983 
        1.41742         1.86288         1.35611 
        1.42355         1.84399         1.34255 
         1.4297         1.83789         1.32913 
        1.43585          1.8173         1.31591 
        1.44198         1.80437         1.30291 
        1.44809          1.7892         1.29012 
        1.45423         1.77757         1.27745 
        1.46036         1.76243         1.26497 
        1.46649         1.74158         1.25266 
        1.47263         1.73303          1.2405 
        1.47877         1.72506         1.22851 
        1.48491         1.70093         1.21666 
        1.49104         1.69486         1.20499 
        1.49718         1.67651         1.19347 
        1.50333         1.66674         1.18208 
        1.50947         1.65553         1.17086 
         1.5156         1.64138          1.1598 
        1.52172         1.63011         1.14889 
        1.52787         1.61469          1.1381 
          1.534         1.60625         1.12746 
        1.54013         1.59228         1.11696 
        1.54627         1.57915         1.10658 
        1.55241         1.56481         1.09634 
        1.55855         1.55581         1.08623 
        1.56467         1.54466         1.07629 
         1.5708         1.53189         1.06643 
        1.57695         1.51852         1.05669 
        1.58308         1.50485          1.0471 
        1.58922         1.50081         1.03761 
        1.59535         1.48413         1.02825 
         1.6015         1.47259         1.01899 
        1.60764         1.46462         1.00985 
        1.61376         1.45272         1.00084 
        1.61989         1.44433        0.991943 
        1.62604         1.43006        0.983131 
        1.63218          1.4253        0.974432 
        1.63831          1.4116        0.965859 
        1.64444         1.40158        0.957385 
        1.65059         1.39346        0.948994 
        1.65673         1.38203        0.940713 
        1.66285         1.37314        0.932553 
        1.66898         1.36489        0.924489 
        1.67512         1.35105        0.916504 
        1.68127         1.34073        0.908606 
         1.6874         1.33668        0.900819 
        1.69353         1.32513        0.893128 
        1.69967         1.31623        0.885509 
        1.70581         1.30978        0.877983 
        1.71193          1.2981        0.870572 
        1.71806            1.29        0.863232 
        1.72421         1.28158        0.855962 
        1.73035          1.2683        0.848784 
        1.73649         1.26843         0.84169 
        1.74262         1.25464        0.834684 
        1.74876         1.24793        0.827752 
        1.75489         1.24035        0.820914 
        1.76101         1.22863        0.814155 
        1.76715         1.22231        0.807464 
        1.77329         1.21536        0.800839 
        1.77943         1.20685        0.794286 
        1.78557         1.20198        0.787817 
        1.79171         1.19344        0.781418 
        1.79785         1.18407        0.775089 
        1.80399         1.17482        0.768832 
        1.81012          1.1686        0.762653 
        1.81625         1.16136        0.756544 
        1.82239         1.15375        0.750494 
        1.82853         1.14685        0.744512 
        1.83466         1.13849        0.738602 
        1.84078         1.12985        0.732762 
        1.84692         1.12468        0.726976 
        1.85306         1.11948        0.721246 
         1.8592         1.11008        0.715587 
        1.86533          1.1054        0.709991 
        1.87147         1.09419         0.70445 
        1.87761         1.08991        0.698965 
        1.88375         1.08373        0.693545 
        1.88988         1.07581        0.688188 
        1.89601         1.06869        0.682885 
        1.90215         1.06394        0.677634 
        1.90829         1.05666        0.672441 
        1.91442         1.05035        0.667302 
        1.92056         1.04696        0.662222 
         1.9267         1.03835        0.657189 
        1.93284          1.0314        0.652205 
        1.93897         1.02634        0.647283 
        1.94509          1.0212        0.642422 
        1.95123         1.01271        0.637599 
        1.95737         1.00716        0.632822 
        1.96349         1.00125        0.628106 
        1.96964        0.996329        0.623425 
        1.97578        0.988197        0.618789 
        1.98192        0.983641         0.61421 
        1.98805        0.978838        0.609677 
        1.99419        0.973704         0.60519 
        2.00033        0.967909        0.600746 
        2.00647        0.961904        0.596347 
         2.0126        0.957672           0.592 
        2.01874        0.952071         0.58769 
        2.02488        0.944896         0.58342 
        2.03101        0.940366        0.579199 
        2.03714        0.936202        0.575025 
        2.04328        0.928812        0.570886 
        2.04941        0.924146        0.566793 
        2.05554         0.91983        0.562742 
        2.06167        0.914423        0.558725 
        2.06781        0.906923        0.554747 
        2.07396        0.905061        0.550802 
        2.08009        0.898715        0.546903 
        2.08622         0.89441        0.543046 
        2.09237        0.889002        0.539218 
        2.09851        0.883222        0.535427 
        2.10464        0.880511        0.531678 
        2.11077        0.873359         0.52797 
        2.11691        0.869949        0.524289 
        2.12305        0.866393        0.520643 
        2.12918        0.859983        0.517041 
        2.13531        0.856323        0.513472 
        2.14145        0.850912        0.509929 
         2.1476        0.848339        0.506416 
        2.15372        0.842175        0.502953 
        2.15985        0.837622        0.499519 
        2.16599        0.834493        0.496107 
        2.17213        0.829602        0.492731 
        2.17827         0.82338        0.489388 
         2.1844        0.821844        0.486078 
        2.19054        0.816965        0.482798 
        2.19666        0.813091        0.479553 
         2.2028        0.807193        0.476334 
        2.20893        0.804123        0.473144 
        2.21508        0.799723         0.46998 
        2.22122        0.797585        0.466843 
        2.22736        0.789954        0.463742 
        2.23349        0.786155        0.460669 
        2.23962        0.783149        0.457623 
        2.24577        0.779194        0.454601 
         2.2519        0.775468        0.451612 
        2.25802        0.772617        0.448653 
        2.26417        0.766825        0.445714 
        2.27031         0.76391        0.442797 
        2.27644        0.761818        0.439916 
        2.28257        0.755896         0.43706 
        2.28872        0.753994        0.434224 
        2.29486        0.748399        0.431414 
        2.30099        0.745487        0.428635 
        2.30712        0.741958        0.425879 
        2.31326        0.738056        0.423142 
         2.3194        0.735644        0.420432 
        2.32553        0.731426        0.417749 
        2.33166        0.728111        0.415091 
         2.3378        0.724308        0.412453 
        2.34394        0.720596        0.409837 
        2.35007        0.716373        0.407247 
        2.35619        0.712155        0.404683 
        2.36233        0.709144        0.402135 
        2.36848        0.706913        0.399603 
        2.37462        0.704692        0.397099 
        2.38075        0.699685        0.394618 
        2.38689        0.697384        0.392157 
        2.39303        0.693023        0.389717 
        2.39916         0.69023        0.387301 
        2.40529        0.688953        0.384905 
        2.41143        0.683011        0.382527 
        2.41757        0.681177        0.380169 
         2.4237        0.677276        0.377835 
        2.42983        0.674824        0.375521 
        2.43598        0.671771         0.37322 
        2.44211         0.66706        0.370942 
        2.44823        0.666241        0.368688 
        2.45437        0.662588        0.366447 
        2.46052        0.659739        0.364223 
        2.46665        0.656245        0.362021 
        2.47279        0.653282        0.359838 
        2.47892        0.650779        0.357671 
        2.48507        0.648462        0.355521 
         2.4912        0.645083        0.353392 
