#  k  (h/Mpc)          P(k)  (Mpc/h)^3     P_linear(k) (Mpc/h)^3
     0.00783031         6471.56         6501.75 
       0.013688         8341.57          8503.6 
       0.019231         8955.04         9052.07 
      0.0249154         8791.98         8794.54 
      0.0312784         7956.64         8025.46 
      0.0375637         7044.46         7148.56 
      0.0433917          6387.4         6425.47 
      0.0492413         5774.01         5853.01 
      0.0555754         5352.15         5393.82 
      0.0619321         4880.75         5040.37 
       0.067871         4646.74         4743.54 
      0.0738098         4362.05         4434.09 
      0.0800417         4021.42         4077.76 
      0.0862327         3637.28          3703.2 
      0.0921407         3301.27         3353.95 
      0.0982031         3016.91         3032.91 
       0.104506          2715.9         2759.51 
       0.110769         2521.73         2553.02 
       0.116806         2414.53         2405.51 
       0.122832         2271.06         2290.64 
       0.129052         2170.77         2185.15 
       0.135211         2092.16         2076.94 
       0.141259         1953.15         1958.96 
       0.147318         1806.62          1830.2 
       0.153489         1698.41         1696.04 
       0.159709         1609.24         1568.41 
       0.165845         1470.03         1458.62 
       0.171974          1427.9          1369.1 
       0.178125         1370.27          1298.7 
       0.184229         1278.91         1243.48 
        0.19034         1253.84         1196.31 
       0.196428         1214.74         1151.07 
       0.202534         1140.63         1103.06 
       0.208729         1115.66         1050.04 
       0.214876         1070.09          994.34 
       0.220989         1000.53         938.869 
       0.227147             976         886.339 
        0.23329         937.895         839.889 
       0.239377         919.008         800.814 
       0.245482         874.023         768.096 
       0.251667          841.26         739.924 
       0.257832         832.848           714.6 
       0.263955         790.273         690.126 
       0.270079         765.986         664.988 
        0.27624         733.617         638.602 
       0.282372         718.126         611.688 
        0.28843         711.871         585.413 
       0.294538         676.196         560.277 
       0.300721         654.886         537.072 
        0.30691         644.538         516.415 
       0.313033         618.108         498.393 
       0.319153         608.225         482.213 
       0.325316         596.035         467.087 
        0.33145          583.46         452.511 
       0.337538         563.407           438.1 
       0.343633         546.917         423.549 
       0.349808          533.45         408.821 
       0.355968         523.139         394.412 
       0.362074         508.558         380.743 
       0.368217          503.75         367.877 
       0.374374         493.908         355.967 
       0.380519         474.804         345.051 
       0.386598         468.828         335.021 
       0.392688         459.244         325.532 
        0.39888         447.358         316.242 
       0.405048         440.229         307.172 
       0.411186         437.258         298.275 
       0.417313         430.382         289.534 
       0.423458          418.26         280.974 
       0.429607          408.82         272.725 
       0.435692         401.554         264.953 
       0.441815         395.255         257.547 
       0.447964         385.992         250.537 
       0.454126          380.76         243.893 
       0.460267         375.512         237.567 
       0.466387         369.357         231.491 
        0.47254         364.494          225.56 
       0.478662         355.056         219.799 
       0.484765          351.37         214.185 
       0.490885         347.463          208.71 
       0.497035         342.141         203.387 
       0.503198         339.666         198.252 
       0.509342         330.735         193.337 
       0.515458          326.98         188.656 
       0.521598         320.445         184.154 
       0.527764         316.515         179.803 
       0.533884         315.959         175.628 
           0.54         309.778         171.581 
       0.546137         303.066         167.635 
       0.552299         302.008          163.78 
       0.558452         297.064         160.036 
       0.564573         294.505         156.417 
       0.570708         289.507         152.905 
       0.576825         284.996         149.523 
       0.582926          282.15         146.266 
       0.589034         278.704         143.113 
       0.595184         276.907         140.039 
       0.601379         271.484         137.038 
       0.607522         267.165          134.15 
       0.613639          265.29         131.356 
       0.619772         263.355         128.631 
       0.625918         260.574         125.974 
       0.632068         255.514         123.388 
       0.638161         253.022         120.895 
         0.6443         251.869         118.456 
       0.650464         247.574         116.078 
       0.656582           245.8         113.789 
       0.662703         243.881         111.564 
       0.668861         239.542         109.388 
       0.675024         239.122          107.27 
       0.681124         235.919         105.229 
       0.687237         233.139         103.235 
       0.693381         231.421         101.282 
       0.699536         228.607          99.377 
       0.705665          225.99         97.5293 
       0.711789         223.885         95.7313 
       0.717957         221.476         93.9676 
        0.72409         219.868         92.2594 
       0.730186         219.796         90.6051 
       0.736317         216.045         88.9831 
       0.742472         213.321         87.3953 
       0.748622         210.397          85.848 
        0.75476         211.003         84.3416 
       0.760888         208.662         82.8738 
       0.767043         205.782         81.4354 
       0.773185         203.983         80.0344 
       0.779291         201.453         78.6747 
       0.785407         200.211         77.3452 
       0.791564         198.649         76.0384 
       0.797719         196.115          74.763 
       0.803834         196.247         73.5254 
       0.809972         194.924         72.3118 
       0.816124         192.275         71.1233 
       0.822261         190.286         69.9651 
       0.828378         190.347         68.8364 
       0.834502         186.989         67.7318 
       0.840667         186.567         66.6446 
       0.846816         184.712         65.5845 
       0.852925         183.069         64.5544 
       0.859047         181.328         63.5445 
       0.865192           180.6         62.5531 
       0.871341         178.332         61.5824 
       0.877463         177.114          60.637 
       0.883569         176.866          59.714 
       0.889708         175.463         58.8058 
       0.895864         173.695         57.9143 
       0.902008          172.23         57.0434 
       0.908149         170.214         56.1911 
       0.914301         170.314          55.355 
       0.920448         169.108         54.5369 
       0.926574         166.819         53.7384 
       0.932687         166.366         52.9578 
       0.938823         165.053           52.19 
       0.944975         163.307         51.4359 
       0.951105         162.223         50.6995 
       0.957225         161.969         49.9789 
       0.963368         160.166           49.27 
       0.969511         158.631          48.575 
       0.975621         157.618         47.8972 
       0.981748         156.352         47.2308 
       0.987916         155.575          46.573 
        0.99406           154.7         45.9303 
        1.00019         153.383         45.3011 
        1.00632         152.749         44.6844 
        1.01246         151.497         44.0783 
        1.01859         150.452         43.4846 
        1.02471         149.307         42.9026 
        1.03085          148.23         42.3294 
        1.03698         147.249          41.768 
        1.04314         146.493         41.2144 
        1.04929         145.945         40.6723 
        1.05541         144.905         40.1422 
        1.06154         144.006         39.6203 
        1.06769           142.6          39.107 
        1.07382         141.765         38.6045 
        1.07993         141.126         38.1121 
        1.08607         139.837         37.6263 
        1.09222         139.438         37.1486 
        1.09836         137.989         36.6798 
        1.10449          137.18         36.2197 
        1.11063         136.327         35.7671 
        1.11677         135.593         35.3224 
         1.1229         134.553         34.8861 
        1.12903         134.144         34.4569 
        1.13518         133.242         34.0346 
        1.14131          132.46         33.6197 
        1.14745         131.416          33.212 
        1.15359          130.16          32.811 
        1.15973         129.754         32.4165 
        1.16584         128.958         32.0304 
        1.17197         128.244         31.6501 
        1.17811         127.299         31.2748 
        1.18424         126.477         30.9067 
        1.19038         126.235         30.5436 
        1.19652         125.132         30.1864 
        1.20267         124.325         29.8351 
        1.20881         123.586         29.4894 
        1.21495         123.161         29.1498 
        1.22108         122.233         28.8156 
         1.2272         121.288         28.4875 
        1.23334         120.927         28.1638 
        1.23949         120.303         27.8444 
        1.24562         119.231         27.5309 
        1.25174         118.349         27.2227 
        1.25789         118.329         26.9183 
        1.26402         117.383         26.6191 
        1.27014         116.784         26.3253 
        1.27628         115.566          26.035 
        1.28244         115.375         25.7486 
        1.28858         114.488         25.4669 
        1.29471          113.83         25.1901 
        1.30084         113.136         24.9177 
        1.30697         113.027         24.6489 
        1.31312         112.043         24.3837 
        1.31925         111.359         24.1233 
        1.32537          110.77          23.867 
        1.33151         110.549         23.6135 
        1.33765         109.395         23.3639 
        1.34378         109.318         23.1184 
        1.34992         108.683         22.8763 
        1.35606         107.861         22.6371 
         1.3622         107.526         22.4018 
        1.36833         106.483         22.1705 
        1.37445         105.902         21.9425 
        1.38059         105.571         21.7171 
        1.38675         104.675         21.4944 
        1.39288         104.445         21.2756 
        1.39901         103.355         21.0601 
        1.40515         103.218          20.847 
         1.4113         102.669          20.637 
        1.41742         101.967         20.4307 
        1.42355         101.418         20.2269 
         1.4297         100.851         20.0253 
        1.43585         100.164         19.8265 
        1.44198         99.6909         19.6311 
        1.44809         99.0731         19.4388 
        1.45423         98.5599         19.2484 
        1.46036         97.8106         19.0609 
        1.46649         97.4834         18.8758 
        1.47263         97.0547         18.6931 
        1.47877          96.569         18.5129 
        1.48491         95.8947         18.3347 
        1.49104         95.1205         18.1594 
        1.49718         94.9739         17.9861 
        1.50333         94.4091         17.8149 
        1.50947         94.0754         17.6463 
         1.5156         93.5361         17.4801 
        1.52172         92.8838         17.3161 
        1.52787         92.2919         17.1539 
          1.534         92.0627         16.9939 
        1.54013         91.6128         16.8362 
        1.54627         90.8004         16.6802 
        1.55241          90.313         16.5261 
        1.55855         90.0412         16.3743 
        1.56467         89.1631         16.2247 
         1.5708         89.0021         16.0766 
        1.57695         88.5638         15.9302 
        1.58308         88.0561         15.7859 
        1.58922         87.6702         15.6434 
        1.59535         87.2627         15.5026 
         1.6015         87.0005         15.3634 
        1.60764         86.4435          15.226 
        1.61376         85.8266         15.0906 
        1.61989         85.1419         14.9568 
        1.62604         84.9213         14.8243 
        1.63218         84.6175         14.6936 
        1.63831         84.1216         14.5647 
        1.64444         83.7193         14.4373 
        1.65059         83.2967         14.3111 
        1.65673         82.6083         14.1866 
        1.66285         82.2016          14.064 
        1.66898           81.67         13.9427 
        1.67512         81.5708         13.8227 
        1.68127         81.0756          13.704 
         1.6874         80.5593         13.5869 
        1.69353          80.231         13.4713 
        1.69967          79.899         13.3567 
        1.70581         79.4267         13.2436 
        1.71193          78.969         13.1322 
        1.71806         78.4013         13.0218 
        1.72421         78.1957         12.9125 
        1.73035         77.9614         12.8046 
        1.73649         77.4105          12.698 
        1.74262         76.7467         12.5926 
        1.74876          76.575         12.4884 
        1.75489         75.9556         12.3856 
        1.76101         75.6156          12.284 
        1.76715         75.5628         12.1834 
        1.77329         74.8344         12.0838 
        1.77943         74.6726         11.9852 
        1.78557         74.3837          11.888 
        1.79171         73.8628         11.7917 
        1.79785         73.4997         11.6966 
        1.80399          73.109         11.6025 
        1.81012         72.7198         11.5096 
        1.81625         72.4951         11.4177 
        1.82239         72.1752         11.3267 
        1.82853         71.6698         11.2368 
        1.83466         71.3262         11.1479 
        1.84078         70.9154         11.0601 
        1.84692         70.6255         10.9731 
        1.85306         70.2949         10.8869 
         1.8592          69.997         10.8018 
        1.86533         69.4682         10.7176 
        1.87147         69.1746         10.6343 
        1.87761         68.7512         10.5518 
        1.88375         68.4318         10.4703 
        1.88988         68.1656         10.3897 
        1.89601         67.7251         10.3099 
        1.90215         67.4051          10.231 
        1.90829         67.1939         10.1529 
        1.91442          66.788         10.0756 
        1.92056           66.42         9.99914 
         1.9267         66.1181         9.92344 
        1.93284         65.9381         9.84848 
        1.93897         65.5788         9.77444 
        1.94509         65.0989         9.70132 
        1.95123         64.7904         9.62877 
        1.95737         64.3885         9.55692 
        1.96349         64.1148         9.48598 
        1.96964          63.795         9.41557 
        1.97578         63.5124         9.34584 
        1.98192         63.2242         9.27696 
        1.98805         62.8999         9.20877 
        1.99419         62.5583         9.14127 
        2.00033         62.2306         9.07441 
        2.00647         61.9844         9.00825 
         2.0126         61.6044         8.94286 
        2.01874         61.3491         8.87802 
        2.02488         61.0294         8.81376 
        2.03101         60.7457         8.75027 
        2.03714         60.5446         8.68746 
        2.04328         60.1811          8.6252 
        2.04941         59.8021         8.56361 
        2.05554         59.6612         8.50266 
        2.06167         59.4596         8.44222 
        2.06781         58.8458         8.38237 
        2.07396         58.6382         8.32301 
        2.08009         58.5176         8.26434 
        2.08622         58.1421         8.20629 
        2.09237         57.8067          8.1487 
        2.09851         57.5121         8.09165 
        2.10464         57.2585         8.03524 
        2.11077         57.0334         7.97944 
        2.11691          56.648         7.92405 
        2.12305         56.4049         7.86918 
        2.12918         56.1398         7.81497 
        2.13531         55.9139         7.76127 
        2.14145         55.5433         7.70795 
         2.1476         55.3202         7.65507 
        2.15372         55.1527         7.60295 
        2.15985         54.7437         7.55127 
        2.16599         54.5475         7.49992 
        2.17213         54.3013         7.44911 
        2.17827         54.0013         7.39878 
         2.1844         53.6932         7.34897 
        2.19054         53.4688         7.29959 
        2.19666         53.1305         7.25075 
         2.2028         52.9336          7.2023 
        2.20893         52.5974         7.15428 
        2.21508         52.3976         7.10664 
        2.22122         52.1584         7.05942 
        2.22736         51.8386         7.01274 
        2.23349         51.7023         6.96648 
        2.23962         51.3557         6.92062 
        2.24577         51.2283         6.87514 
         2.2519         50.8539         6.83012 
        2.25802         50.6957         6.78559 
        2.26417         50.4363         6.74133 
        2.27031         50.1875         6.69742 
        2.27644         49.9753         6.65404 
        2.28257          49.587         6.61104 
        2.28872          49.579         6.56835 
        2.29486         49.2563         6.52604 
        2.30099         48.8859         6.48419 
        2.30712         48.8166         6.44269 
        2.31326         48.4414         6.40149 
         2.3194         48.2102         6.36067 
        2.32553         48.1015         6.32028 
        2.33166         47.6938         6.28026 
         2.3378         47.4811         6.24053 
        2.34394         47.3384         6.20113 
        2.35007         47.0364         6.16213 
        2.35619         46.9965         6.12351 
        2.36233         46.5829         6.08514 
        2.36848         46.4015         6.04701 
        2.37462         46.1969         6.00929 
        2.38075         46.0547         5.97193 
        2.38689         45.8375         5.93486 
        2.39303         45.6384         5.89812 
        2.39916         45.3303         5.86172 
        2.40529         45.1178         5.82563 
        2.41143         44.9008         5.78982 
        2.41757         44.6954          5.7543 
         2.4237         44.5321         5.71914 
        2.42983         44.2661         5.68428 
        2.43598         44.0469         5.64962 
        2.44211         43.8896         5.61531 
        2.44823         43.6413         5.58136 
        2.45437         43.4783          5.5476 
        2.46052         43.1611         5.51409 
        2.46665         43.0037         5.48092 
        2.47279         42.7664         5.44803 
        2.47892         42.6127         5.41539 
        2.48507         42.4282         5.38299 
         2.4912         42.2025         5.35092 
