# k  (h/Mpc)    Pcb(k)  (Mpc/h)^3    Pcb_linear(k)  (Mpc/h)^3
     0.00783031         7489.65         7547.08 
       0.013688          8080.2         8228.33 
       0.019231         7357.79         7421.59 
      0.0249154         6107.39         6068.55 
      0.0312784         4596.35         4587.65 
      0.0375637         3481.18         3488.23 
      0.0433917         2855.69         2837.69 
      0.0492413         2469.48         2465.78 
      0.0555754         2273.44         2255.01 
      0.0619321         2087.73         2115.99 
       0.067871          1962.8         1966.26 
      0.0738098         1767.25         1763.15 
      0.0800417         1520.93         1506.72 
      0.0862327         1262.97         1251.72 
      0.0921407         1064.71         1047.33 
      0.0982031         925.131         897.317 
       0.104506         818.055         804.634 
       0.110769         774.651         759.962 
       0.116806         758.652         739.284 
       0.122832         728.699          718.99 
       0.129052         693.284         682.632 
       0.135211         645.941         626.845 
       0.141259         575.026         559.457 
       0.147318         505.965         491.222 
       0.153489         451.521         431.962 
       0.159709         414.689         388.722 
       0.165845         379.848         362.448 
       0.171974          373.42         348.393 
       0.178125         362.039         340.293 
       0.184229         346.189         331.958 
        0.19034         336.221         318.954 
       0.196428         319.086         300.082 
       0.202534         290.188         276.914 
       0.208729         274.631         252.511 
       0.214876          255.71          230.81 
       0.220989         234.796         213.812 
       0.227147          226.63         201.757 
        0.23329         217.671         193.843 
       0.239377         213.527         188.315 
       0.245482         204.378         183.176 
       0.251667         195.798         176.887 
       0.257832         191.856         168.922 
       0.263955         179.117         159.617 
       0.270079         169.215         149.795 
        0.27624         160.321         140.451 
       0.282372         153.784         132.442 
        0.28843         150.716         126.121 
       0.294538         143.345         121.197 
       0.300721         137.805         117.231 
        0.30691          135.36         113.681 
       0.313033          129.39         110.069 
       0.319153         126.755         106.074 
       0.325316         121.946         101.645 
        0.33145         117.212         97.0314 
       0.337538         112.294         92.5452 
       0.343633          108.48         88.4044 
       0.349808         104.586         84.7413 
       0.355968         101.652         81.6162 
       0.362074         99.1532         78.9581 
       0.368217         96.6856         76.5405 
       0.374374         93.9712         74.2072 
       0.380519          90.019         71.8525 
       0.386598         87.8514         69.4361 
       0.392688         84.7253         66.9732 
        0.39888         83.1535         64.4911 
       0.405048         80.8167         62.1242 
       0.411186         78.9357         59.9484 
       0.417313         76.7349         57.9727 
       0.423458         74.5788         56.1725 
       0.429607         72.7816         54.5175 
       0.435692         71.6698         52.9664 
       0.441815          69.196         51.4413 
       0.447964         66.9422          49.927 
       0.454126         65.6537         48.4195 
       0.460267         64.9184         46.9351 
       0.466387         62.9521         45.4994 
        0.47254         62.1274         44.1258 
       0.478662         59.8766         42.8376 
       0.484765         58.7179         41.6299 
       0.490885         57.1145         40.4911 
       0.497035         56.5074         39.4068 
       0.503198         55.2634         38.3617 
       0.509342         53.7354         37.3455 
       0.515458         52.7374         36.3557 
       0.521598         51.3354         35.3865 
       0.527764         50.7009         34.4406 
       0.533884         50.0771         33.5322 
           0.54         48.6627         32.6591 
       0.546137         47.3598         31.8211 
       0.552299         46.3698         31.0194 
       0.558452          45.488         30.2538 
       0.564573         45.1357         29.5201 
       0.570708         43.8238         28.8074 
       0.576825         43.3177         28.1163 
       0.582926          42.678         27.4467 
       0.589034         41.7804          26.796 
       0.595184         41.1515         26.1608 
       0.601379         40.1687         25.5414 
       0.607522         39.2463         24.9474 
       0.613639         38.8893         24.3757 
       0.619772         38.0028         23.8222 
       0.625918         37.6137         23.2869 
       0.632068         36.9428          22.769 
       0.638161         36.2546         22.2719 
         0.6443         35.9003         21.7858 
       0.650464          34.943         21.3113 
       0.656582         34.7896         20.8532 
       0.662703         34.1792         20.4075 
       0.668861         33.3945          19.972 
       0.675024         33.1391         19.5491 
       0.681124         32.7103         19.1432 
       0.687237         32.1072         18.7489 
       0.693381         31.5385         18.3644 
       0.699536         31.2453         17.9903 
       0.705665         30.7371         17.6285 
       0.711789         30.2505         17.2768 
       0.717957         29.7211         16.9321 
        0.72409         29.3549         16.5985 
       0.730186         29.1303         16.2757 
       0.736317         28.5772         15.9595 
       0.742472         28.2099         15.6506 
       0.748622         27.7722         15.3502 
        0.75476          27.329         15.0584 
       0.760888         27.2237         14.7748 
       0.767043         26.6188         14.4975 
       0.773185         26.2156          14.228 
       0.779291         25.9285         13.9669 
       0.785407         25.6427         13.7121 
       0.791564         25.5169         13.4621 
       0.797719         24.8932         13.2184 
       0.803834         24.7904         12.9823 
       0.809972         24.4001         12.7511 
       0.816124         24.1123          12.525 
       0.822261         23.7555          12.305 
       0.828378         23.6096         12.0909 
       0.834502         23.3243         11.8817 
       0.840667         23.0605         11.6762 
       0.846816         22.7215         11.4761 
       0.852925         22.5008          11.282 
       0.859047         22.3403         11.0919 
       0.865192         21.9902         10.9056 
       0.871341         21.7437         10.7235 
       0.877463         21.4571         10.5464 
       0.883569         21.3441         10.3737 
       0.889708         21.0455         10.2041 
       0.895864         20.7923         10.0378 
       0.902008         20.6168         9.87553 
       0.908149          20.294         9.71699 
       0.914301         20.1145         9.56167 
       0.920448         19.9783          9.4099 
       0.926574         19.7393         9.26196 
       0.932687          19.476         9.11752 
       0.938823         19.2105         8.97566 
       0.944975         19.0511         8.83649 
       0.951105         18.9196         8.70077 
       0.957225         18.7184         8.56815 
       0.963368         18.5207         8.43784 
       0.969511         18.3226         8.31025 
       0.975621         18.1843         8.18598 
       0.981748         17.9641         8.06393 
       0.987916          17.811         7.94362 
        0.99406          17.597         7.82621 
        1.00019         17.4592         7.71141 
        1.00632         17.3428         7.59902 
        1.01246          17.119         7.48871 
        1.01859         16.9735         7.38076 
        1.02471         16.8214         7.27508 
        1.03085         16.6927          7.1711 
        1.03698         16.5903         7.06937 
        1.04314         16.3851         6.96919 
        1.04929         16.1602         6.87118 
        1.05541         16.1174         6.77545 
        1.06154         15.9522          6.6813 
        1.06769         15.7531         6.58881 
        1.07382         15.6421         6.49837 
        1.07993         15.5285         6.40983 
        1.08607         15.3668         6.32258 
        1.09222         15.2367         6.23687 
        1.09836         15.0851         6.15284 
        1.10449         15.0163         6.07046 
        1.11063         14.8748          5.9895 
        1.11677         14.8107         5.91004 
         1.1229         14.6309         5.83216 
        1.12903         14.4947         5.75561 
        1.13518         14.4409         5.68038 
        1.14131         14.3096         5.60653 
        1.14745         14.1518         5.53404 
        1.15359         13.9786         5.46281 
        1.15973         13.9481         5.39281 
        1.16584         13.7942         5.32436 
        1.17197         13.6625         5.25699 
        1.17811         13.5716         5.19058 
        1.18424         13.4368         5.12551 
        1.19038         13.3801         5.06137 
        1.19652         13.2259         4.99836 
        1.20267         13.1813         4.93641 
        1.20881         13.0381         4.87553 
        1.21495         12.9856         4.81577 
        1.22108         12.8898         4.75702 
         1.2272         12.7559         4.69939 
        1.23334         12.7028         4.64259 
        1.23949         12.5911         4.58658 
        1.24562          12.476         4.53166 
        1.25174         12.4227         4.47772 
        1.25789         12.3293         4.42449 
        1.26402         12.2344         4.37222 
        1.27014         12.1517         4.32092 
        1.27628         12.0484         4.27028 
        1.28244         12.0323         4.22036 
        1.28858         11.8845         4.17131 
        1.29471         11.7902         4.12314 
        1.30084         11.6997         4.07577 
        1.30697         11.6242         4.02908 
        1.31312         11.5642         3.98304 
        1.31925         11.4834         3.93788 
        1.32537         11.3742         3.89345 
        1.33151         11.2898         3.84955 
        1.33765         11.2736         3.80636 
        1.34378         11.1858         3.76391 
        1.34992         11.0864         3.72208 
        1.35606         10.9855         3.68079 
         1.3622         10.9398          3.6402 
        1.36833         10.8844         3.60033 
        1.37445         10.8028         3.56106 
        1.38059         10.7133         3.52227 
        1.38675         10.6873         3.48395 
        1.39288         10.5794         3.44636 
        1.39901         10.4958         3.40934 
        1.40515         10.4587         3.37278 
         1.4113         10.3894         3.33677 
        1.41742          10.322         3.30142 
        1.42355         10.2416         3.26652 
         1.4297          10.189         3.23202 
        1.43585         10.1211         3.19802 
        1.44198         10.1007         3.16465 
        1.44809         10.0187         3.13181 
        1.45423         9.94546         3.09932 
        1.46036          9.8922         3.06735 
        1.46649         9.82664         3.03582 
        1.47263         9.77264          3.0047 
        1.47877         9.67228         2.97403 
        1.48491         9.65465         2.94374 
        1.49104         9.59205         2.91394 
        1.49718         9.55539         2.88452 
        1.50333         9.49982         2.85547 
        1.50947         9.41173         2.82687 
         1.5156         9.38774          2.7987 
        1.52172         9.32562         2.77092 
        1.52787         9.29932         2.74346 
          1.534         9.21981         2.71641 
        1.54013         9.18027         2.68974 
        1.54627         9.10921         2.66339 
        1.55241         9.04125         2.63738 
        1.55855         9.00824         2.61176 
        1.56467         8.94814         2.58655 
         1.5708         8.93034         2.56159 
        1.57695         8.86119         2.53693 
        1.58308         8.81158         2.51265 
        1.58922         8.76085         2.48867 
        1.59535         8.71763         2.46501 
         1.6015         8.65966         2.44163 
        1.60764         8.61149         2.41855 
        1.61376          8.5716         2.39584 
        1.61989         8.50763          2.3734 
        1.62604         8.47904          2.3512 
        1.63218         8.41616          2.3293 
        1.63831         8.37983         2.30772 
        1.64444         8.34402         2.28641 
        1.65059         8.29296         2.26532 
        1.65673         8.24446         2.24451 
        1.66285         8.19471         2.22403 
        1.66898         8.16149         2.20379 
        1.67512         8.14051         2.18376 
        1.68127         8.08586         2.16397 
         1.6874         8.06574         2.14446 
        1.69353         7.98332         2.12521 
        1.69967         7.94314         2.10614 
        1.70581         7.92179         2.08732 
        1.71193         7.86283          2.0688 
        1.71806          7.8226         2.05046 
        1.72421         7.79447          2.0323 
        1.73035         7.75887         2.01439 
        1.73649         7.71072          1.9967 
        1.74262         7.69013         1.97923 
        1.74876         7.64836         1.96196 
        1.75489         7.60483         1.94493 
        1.76101         7.55088         1.92811 
        1.76715         7.53143         1.91146 
        1.77329          7.4923         1.89499 
        1.77943         7.45201          1.8787 
        1.78557         7.44072         1.86263 
        1.79171         7.38211         1.84675 
        1.79785         7.33608         1.83105 
        1.80399         7.31238         1.81553 
        1.81012         7.27106         1.80021 
        1.81625         7.23971         1.78507 
        1.82239         7.19891         1.77009 
        1.82853         7.16551         1.75528 
        1.83466         7.12963         1.74066 
        1.84078         7.08914         1.72622 
        1.84692         7.07889         1.71192 
        1.85306         7.04548         1.69776 
         1.8592         7.01115         1.68379 
        1.86533          6.9691         1.66998 
        1.87147         6.94283          1.6563 
        1.87761         6.91713         1.64278 
        1.88375         6.88196         1.62942 
        1.88988         6.84441         1.61622 
        1.89601         6.81057         1.60316 
        1.90215         6.77684         1.59024 
        1.90829         6.74948         1.57746 
        1.91442         6.72486         1.56483 
        1.92056         6.68608         1.55234 
         1.9267         6.67001         1.53997 
        1.93284            6.65         1.52773 
        1.93897         6.59283         1.51565 
        1.94509         6.57511         1.50373 
        1.95123         6.53615          1.4919 
        1.95737         6.50427         1.48019 
        1.96349           6.483         1.46863 
        1.96964         6.46626         1.45717 
        1.97578           6.433         1.44582 
        1.98192         6.41147         1.43462 
        1.98805         6.36406         1.42353 
        1.99419         6.35774         1.41256 
        2.00033         6.31174         1.40169 
        2.00647         6.28672         1.39095 
         2.0126         6.25992         1.38034 
        2.01874         6.23856         1.36982 
        2.02488         6.20879          1.3594 
        2.03101         6.19621          1.3491 
        2.03714         6.15398         1.33893 
        2.04328         6.12693         1.32884 
        2.04941         6.09949         1.31887 
        2.05554         6.08723         1.30901 
        2.06167         6.05625         1.29923 
        2.06781         6.04987         1.28955 
        2.07396         6.01172         1.27996 
        2.08009         5.97216         1.27048 
        2.08622         5.94925         1.26111 
        2.09237         5.94446         1.25181 
        2.09851         5.89817         1.24261 
        2.10464         5.88875         1.23351 
        2.11077         5.85488         1.22452 
        2.11691          5.8345         1.21559 
        2.12305         5.80397         1.20675 
        2.12918         5.77197         1.19802 
        2.13531            5.77         1.18938 
        2.14145         5.73287          1.1808 
         2.1476         5.71382          1.1723 
        2.15372         5.70114         1.16392 
        2.15985         5.66096         1.15561 
        2.16599         5.65813         1.14737 
        2.17213          5.6384         1.13921 
        2.17827         5.61515         1.13113 
         2.1844         5.59432         1.12314 
        2.19054         5.56417         1.11522 
        2.19666         5.54506         1.10739 
         2.2028         5.51887         1.09962 
        2.20893         5.50245         1.09193 
        2.21508         5.47204          1.0843 
        2.22122         5.45505         1.07675 
        2.22736         5.43249         1.06928 
        2.23349         5.41041         1.06188 
        2.23962         5.38909         1.05455 
        2.24577         5.38254         1.04728 
         2.2519          5.3525         1.04009 
        2.25802         5.33408         1.03297 
        2.26417         5.31727         1.02591 
        2.27031         5.28738          1.0189 
        2.27644         5.27947         1.01198 
        2.28257         5.24416         1.00512 
        2.28872         5.23987        0.998317 
        2.29486         5.21463        0.991575 
        2.30099         5.19216        0.984909 
        2.30712         5.16359        0.978301 
        2.31326         5.15437        0.971742 
         2.3194          5.1272        0.965246 
        2.32553         5.10803        0.958821 
        2.33166         5.08114        0.952457 
         2.3378         5.08093        0.946141 
        2.34394         5.05419        0.939881 
        2.35007         5.03592        0.933686 
        2.35619          5.0192        0.927555 
        2.36233         5.00268        0.921463 
        2.36848         4.97722        0.915414 
        2.37462         4.95957        0.909431 
        2.38075         4.93472        0.903508 
        2.38689         4.92616        0.897632 
        2.39303         4.90925        0.891809 
        2.39916         4.89451        0.886044 
        2.40529         4.88295         0.88033 
        2.41143         4.86227        0.874662 
        2.41757         4.83485        0.869041 
         2.4237         4.81979         0.86348 
        2.42983         4.80669        0.857967 
        2.43598         4.78681        0.852488 
        2.44211         4.76725        0.847066 
        2.44823         4.75099        0.841703 
        2.45437         4.73772        0.836371 
        2.46052         4.72241        0.831081 
        2.46665         4.70975        0.825846 
        2.47279         4.68929        0.820658 
        2.47892         4.66774         0.81551 
        2.48507         4.65306        0.810402 
         2.4912         4.63405        0.805347 
