# k  (h/Mpc)    P(k)  (Mpc/h)^3    P_linear(k)  (Mpc/h)^3
     0.00783031         13519.7         13622.9 
       0.013688         16379.2         16829.5 
       0.019231         16872.1         17149.3 
      0.0249154         16038.2         16039.7 
      0.0312784         13974.4         14148.3 
      0.0375637         12068.9         12317.3 
      0.0433917         10839.2         10941.6 
      0.0492413         9733.51         9910.92 
      0.0555754         8982.04         9089.88 
      0.0619321         8066.98         8416.48 
       0.067871         7587.21         7802.65 
      0.0738098         7017.68         7147.95 
      0.0800417         6335.94         6426.11 
      0.0862327         5637.45         5728.04 
      0.0921407         5095.93         5136.93 
      0.0982031         4675.84         4643.37 
       0.104506         4227.15         4257.09 
       0.110769         3965.39         3976.49 
       0.116806          3812.4         3763.96 
       0.122832         3578.45         3569.41 
       0.129052         3369.12         3358.23 
       0.135211         3225.09         3128.79 
       0.141259          2960.9         2891.77 
       0.147318         2720.89         2660.35 
       0.153489         2556.37         2449.14 
       0.159709         2452.97         2272.84 
       0.165845         2254.09          2136.2 
       0.171974         2206.74         2029.43 
       0.178125         2138.26         1940.04 
       0.184229         1977.45         1856.73 
        0.19034         1940.23         1770.14 
       0.196428         1875.16         1677.66 
       0.202534         1752.15         1580.89 
       0.208729         1711.44         1484.11 
       0.214876         1631.79         1395.41 
       0.220989         1546.01          1318.4 
       0.227147         1506.84         1253.14 
        0.23329         1450.64         1198.59 
       0.239377         1440.42         1151.54 
       0.245482         1372.07         1107.57 
       0.251667         1320.87         1063.29 
       0.257832         1300.07         1018.01 
       0.263955         1237.92         972.184 
       0.270079         1202.05         926.838 
        0.27624          1151.6         883.537 
       0.282372         1135.47         844.106 
        0.28843         1117.91         809.336 
       0.294538         1065.41         778.236 
       0.300721         1043.28         749.873 
        0.30691         1020.22         723.453 
       0.313033         979.832         698.199 
       0.319153         967.907         673.248 
       0.325316         955.098         648.246 
        0.33145         933.875         623.796 
       0.337538         901.972         600.397 
       0.343633         879.876         578.285 
       0.349808         862.221         557.506 
       0.355968         845.697         538.387 
       0.362074         818.557         520.852 
       0.368217         815.676          504.27 
       0.374374         803.386         488.393 
       0.380519         773.827         473.025 
       0.386598          768.45          458.16 
       0.392688         750.358         443.645 
        0.39888         732.623         429.344 
       0.405048         719.061         415.695 
       0.411186         717.154         402.808 
       0.417313         712.386         390.642 
       0.423458         690.319         379.118 
       0.429607         671.272          368.18 
       0.435692         664.744         357.824 
       0.441815         652.481         347.775 
       0.447964         642.903          338.01 
       0.454126         635.047         328.513 
       0.460267         625.657         319.342 
       0.466387         615.198         310.527 
        0.47254         605.327         302.013 
       0.478662         596.004         293.892 
       0.484765         589.378         286.141 
       0.490885         583.324         278.698 
       0.497035         571.736         271.513 
       0.503198         571.217         264.572 
       0.509342         559.849          257.88 
       0.515458         548.994         251.432 
       0.521598          545.19         245.163 
       0.527764         533.952         239.068 
       0.533884         529.756         233.219 
           0.54         524.547         227.576 
       0.546137         515.729         222.116 
       0.552299         513.601          216.83 
       0.558452          506.44         211.734 
       0.564573         501.974         206.832 
       0.570708         496.779         202.073 
       0.576825         486.825         197.477 
       0.582926         485.227         193.034 
       0.589034         477.733         188.719 
       0.595184         473.741         184.505 
       0.601379         466.247          180.39 
       0.607522          458.37         176.436 
       0.613639         457.385          172.62 
       0.619772         455.224         168.913 
       0.625918         446.523         165.312 
       0.632068         444.032         161.816 
       0.638161         439.403         158.453 
         0.6443          434.26          155.16 
       0.650464         429.978         151.948 
       0.656582         426.389          148.85 
       0.662703         422.517         145.837 
       0.668861         416.628         142.891 
       0.675024         414.296         140.026 
       0.681124         407.629          137.27 
       0.687237          406.51         134.583 
       0.693381         400.473         131.957 
       0.699536         399.361         129.397 
       0.705665          394.31         126.917 
       0.711789         392.891         124.503 
       0.717957         387.463         122.137 
        0.72409         383.423         119.845 
       0.730186         384.697         117.626 
       0.736317         378.036         115.452 
       0.742472         374.462         113.325 
       0.748622         371.862         111.254 
        0.75476         369.084          109.24 
       0.760888         365.959         107.279 
       0.767043         363.038         105.359 
       0.773185         360.707          103.49 
       0.779291         356.095         101.677 
       0.785407          354.03         99.9056 
       0.791564         351.465         98.1653 
       0.797719         346.023         96.4675 
       0.803834          348.05         94.8209 
       0.809972         342.379          93.207 
       0.816124         339.124         91.6274 
       0.822261         336.744          90.089 
       0.828378           335.2         88.5907 
       0.834502         330.226         87.1254 
       0.840667         330.357          85.684 
       0.846816         324.726         84.2795 
       0.852925         325.321         82.9156 
       0.859047         322.147         81.5792 
       0.865192          320.63          80.268 
       0.871341         316.214          78.985 
       0.877463         314.507         77.7361 
       0.883569         312.299         76.5174 
       0.889708         309.447         75.3189 
       0.895864         306.441          74.143 
       0.902008         305.071         72.9949 
       0.908149         302.328         71.8719 
       0.914301          300.92         70.7709 
       0.920448         298.648         69.6941 
       0.926574          296.49         68.6436 
       0.932687         295.305         67.6171 
       0.938823         291.844          66.608 
       0.944975          291.21         65.6172 
       0.951105          288.35         64.6503 
       0.957225         285.073         63.7046 
       0.963368         285.601         62.7746 
       0.969511         280.252         61.8633 
       0.975621         279.323         60.9751 
       0.981748         278.228         60.1021 
       0.987916         276.706         59.2408 
        0.99406          274.01         58.3996 
        1.00019         271.683         57.5765 
        1.00632         271.252         56.7701 
        1.01246         268.929          55.978 
        1.01859         265.846         55.2023 
        1.02471         264.172         54.4423 
        1.03085         263.112         53.6941 
        1.03698         261.814         52.9615 
        1.04314         260.823         52.2396 
        1.04929         258.957         51.5329 
        1.05541         256.378         50.8421 
        1.06154         254.712         50.1623 
        1.06769         252.481          49.494 
        1.07382         251.587         48.8402 
        1.07993          249.35         48.1997 
        1.08607         247.925          47.568 
        1.09222         246.065         46.9471 
        1.09836         245.325         46.3381 
        1.10449         243.417         45.7406 
        1.11063         241.578          45.153 
        1.11677         239.492          44.576 
         1.1229         238.995         44.0101 
        1.12903         236.847         43.4536 
        1.13518         235.251         42.9063 
        1.14131         234.472         42.3688 
        1.14745         231.779         41.8408 
        1.15359         230.204         41.3217 
        1.15973         229.448         40.8113 
        1.16584         228.163         40.3118 
        1.17197          226.67           39.82 
        1.17811         224.686         39.3349 
        1.18424         223.421         38.8593 
        1.19038         222.384         38.3902 
        1.19652         219.816          37.929 
        1.20267         219.245         37.4755 
        1.20881         217.585         37.0295 
        1.21495         217.172         36.5915 
        1.22108         215.455         36.1606 
         1.2272         213.082         35.7377 
        1.23334         212.432         35.3206 
        1.23949         211.407         34.9092 
        1.24562         209.858         34.5055 
        1.25174         208.649         34.1088 
        1.25789          206.77         33.7171 
        1.26402         206.563         33.3323 
        1.27014         205.522         32.9544 
        1.27628          203.44         32.5813 
        1.28244          202.24         32.2133 
        1.28858         201.058         31.8514 
        1.29471         199.992         31.4959 
        1.30084         198.935         31.1462 
        1.30697         197.028         30.8013 
        1.31312         196.037         30.4611 
        1.31925         194.805         30.1271 
        1.32537         194.207         29.7985 
        1.33151         192.809         29.4736 
        1.33765          191.31         29.1538 
        1.34378         190.491         28.8394 
        1.34992         188.991         28.5294 
        1.35606         188.139         28.2233 
         1.3622         186.903         27.9222 
        1.36833         185.493         27.6263 
        1.37445         185.388         27.3348 
        1.38059         183.333         27.0467 
        1.38675         182.161          26.762 
        1.39288         181.171         26.4825 
        1.39901         179.976         26.2072 
        1.40515         179.366         25.9352 
         1.4113         177.937         25.6672 
        1.41742         176.467         25.4039 
        1.42355          176.59         25.1439 
         1.4297         174.945         24.8867 
        1.43585           174.2         24.6333 
        1.44198         172.403         24.3843 
        1.44809         171.948         24.1392 
        1.45423           170.9         23.8966 
        1.46036         169.834         23.6578 
        1.46649          168.76         23.4222 
        1.47263         168.224         23.1896 
        1.47877         166.814         22.9602 
        1.48491         165.532         22.7336 
        1.49104         164.137         22.5105 
        1.49718         163.806         22.2903 
        1.50333         162.465         22.0727 
        1.50947         161.711         21.8584 
         1.5156         160.678         21.6473 
        1.52172         159.938         21.4389 
        1.52787         158.996         21.2329 
          1.534         158.074         21.0299 
        1.54013         157.037         20.8297 
        1.54627         156.166         20.6318 
        1.55241          155.48         20.4364 
        1.55855         154.739         20.2438 
        1.56467         153.637         20.0543 
         1.5708         152.297         19.8666 
        1.57695         151.819         19.6811 
        1.58308         150.642         19.4983 
        1.58922         149.972         19.3178 
        1.59535         148.857         19.1396 
         1.6015         148.208         18.9634 
        1.60764         147.171         18.7895 
        1.61376         146.172         18.6183 
        1.61989         145.575         18.4491 
        1.62604         144.416         18.2816 
        1.63218         143.823         18.1162 
        1.63831          142.99         17.9534 
        1.64444         141.937         17.7924 
        1.65059         141.278         17.6331 
        1.65673         140.407         17.4758 
        1.66285         139.939          17.321 
        1.66898         138.833         17.1679 
        1.67512         137.989         17.0164 
        1.68127         137.425         16.8666 
         1.6874         136.385         16.7189 
        1.69353         136.038         16.5731 
        1.69967         134.817         16.4287 
        1.70581          134.44         16.2861 
        1.71193         133.408         16.1457 
        1.71806         132.189         16.0066 
        1.72421         131.891         15.8689 
        1.73035         131.055          15.733 
        1.73649         130.105         15.5987 
        1.74262         129.709         15.4661 
        1.74876         128.859          15.335 
        1.75489         128.304         15.2056 
        1.76101         127.199         15.0778 
        1.76715         126.401         14.9512 
        1.77329         125.801          14.826 
        1.77943         124.893         14.7021 
        1.78557         124.514         14.5799 
        1.79171         123.728          14.459 
        1.79785         122.746         14.3394 
        1.80399          122.21         14.2213 
        1.81012         121.348         14.1046 
        1.81625         120.885         13.9893 
        1.82239         120.167         13.8751 
        1.82853         119.433         13.7622 
        1.83466         118.512         13.6507 
        1.84078         118.203         13.5405 
        1.84692         117.766         13.4314 
        1.85306          116.78         13.3234 
         1.8592         116.292         13.2167 
        1.86533         115.329         13.1112 
        1.87147          114.96         13.0068 
        1.87761         114.031         12.9035 
        1.88375         113.286         12.8014 
        1.88988         112.737         12.7005 
        1.89601         112.501         12.6006 
        1.90215         111.974         12.5018 
        1.90829         110.797          12.404 
        1.91442         110.032         12.3073 
        1.92056         109.566         12.2117 
         1.9267         108.999         12.1171 
        1.93284         108.317         12.0233 
        1.93897         107.794         11.9308 
        1.94509         107.139         11.8394 
        1.95123          106.64         11.7487 
        1.95737         106.117         11.6589 
        1.96349         105.433         11.5703 
        1.96964         104.763         11.4824 
        1.97578         104.186         11.3953 
        1.98192         103.875         11.3093 
        1.98805         103.153         11.2242 
        1.99419         102.319         11.1399 
        2.00033         101.943         11.0565 
        2.00647         101.476          10.974 
         2.0126         100.812         10.8924 
        2.01874         100.473         10.8115 
        2.02488         99.5656         10.7314 
        2.03101         99.1999         10.6523 
        2.03714         98.5535          10.574 
        2.04328         98.2803         10.4964 
        2.04941         97.7214         10.4197 
        2.05554         97.1085         10.3438 
        2.06167         96.3459         10.2685 
        2.06781         95.8405          10.194 
        2.07396         95.3734         10.1201 
        2.08009         94.6242          10.047 
        2.08622         94.3588          9.9748 
        2.09237         93.6969         9.90313 
        2.09851         93.2182         9.83216 
        2.10464         92.9283           9.762 
        2.11077          92.249         9.69261 
        2.11691         91.8934         9.62374 
        2.12305         91.3364         9.55554 
        2.12918         90.7837         9.48816 
        2.13531         90.2784         9.42142 
        2.14145         89.8028         9.35517 
         2.1476         89.3636         9.28949 
        2.15372          88.737         9.22476 
        2.15985         88.3475         9.16058 
        2.16599         87.6997         9.09683 
        2.17213         87.2919         9.03376 
        2.17827         86.6975         8.97129 
         2.1844          86.494         8.90948 
        2.19054         85.8656         8.84822 
        2.19666         85.3512         8.78763 
         2.2028         85.0749         8.72755 
        2.20893          84.625           8.668 
        2.21508         84.0653         8.60894 
        2.22122         83.5946         8.55041 
        2.22736         83.2753         8.49254 
        2.23349         82.6678         8.43522 
        2.23962         82.2024          8.3784 
        2.24577         81.8769         8.32206 
         2.2519         81.3459         8.26631 
        2.25802         80.9548         8.21116 
        2.26417         80.4438         8.15635 
        2.27031         79.9253           8.102 
        2.27644         79.6485          8.0483 
        2.28257         79.1848         7.99509 
        2.28872         78.7902         7.94226 
        2.29486         78.5897         7.88992 
        2.30099         77.8349         7.83815 
        2.30712         77.6235         7.78683 
        2.31326         77.1644         7.73588 
         2.3194         76.6948         7.68542 
        2.32553         76.2604         7.63548 
        2.33166         75.8017         7.58602 
         2.3378         75.5906         7.53692 
        2.34394         75.1818         7.48825 
        2.35007         74.5475         7.44006 
        2.35619         74.3424         7.39237 
        2.36233         73.9047         7.34498 
        2.36848         73.4757          7.2979 
        2.37462         73.1781         7.25134 
        2.38075         72.6749         7.20522 
        2.38689         72.3627         7.15947 
        2.39303         72.0506         7.11412 
        2.39916         71.5743         7.06921 
        2.40529         71.3414          7.0247 
        2.41143          70.899         6.98053 
        2.41757         70.4591         6.93672 
         2.4237         70.0034         6.89337 
        2.42983         69.6728         6.85039 
        2.43598         69.4136         6.80767 
        2.44211         69.0662         6.76538 
        2.44823          68.711         6.72354 
        2.45437         68.3395         6.68194 
        2.46052         67.9463         6.64066 
        2.46665         67.3819          6.5998 
        2.47279         67.2439          6.5593 
        2.47892         66.9132         6.51911 
        2.48507         66.5356         6.47922 
         2.4912         66.0951         6.43974 
