#  k  (h/Mpc)          P(k)  (Mpc/h)^3     P_linear(k) (Mpc/h)^3
     0.00783031         19658.9         19960.8 
       0.013688         23688.7         23440.1 
       0.019231         22629.9           22558 
      0.0249154         19336.6         19757.3 
      0.0312784         16030.1         16183.2 
      0.0375637           13311         13255.8 
      0.0433917         11204.8         11363.1 
      0.0492413         10115.9         10151.8 
      0.0555754         9045.79         9321.04 
      0.0619321         8693.99         8656.36 
       0.067871         7770.17         7972.85 
      0.0738098         7004.92         7161.17 
      0.0800417         6063.14         6232.71 
      0.0862327         5326.44          5359.5 
      0.0921407         4776.38         4674.11 
      0.0982031         4240.24         4165.36 
       0.104506         4020.89         3827.97 
       0.110769         3771.39         3623.28 
       0.116806         3591.25         3474.09 
       0.122832         3417.39         3309.51 
       0.129052         3131.66          3088.9 
       0.135211         2906.31         2823.08 
       0.141259         2726.27         2546.74 
       0.147318         2524.95         2291.66 
       0.153489         2295.89         2081.61 
       0.159709         2173.17         1929.78 
       0.165845         2102.99         1830.23 
       0.171974         2007.95         1761.06 
       0.178125          1918.2         1699.53 
       0.184229         1830.56         1628.84 
        0.19034         1722.75         1541.03 
       0.196428         1669.26         1439.75 
       0.202534         1591.41         1334.53 
       0.208729         1506.33         1235.85 
       0.214876         1441.12         1154.25 
       0.220989         1388.66         1091.71 
       0.227147         1335.84         1044.67 
        0.23329         1284.31         1007.53 
       0.239377         1262.58         973.489 
       0.245482         1182.14         936.799 
       0.251667         1173.29         894.784 
       0.257832         1122.52         848.963 
       0.263955         1082.27          802.63 
       0.270079         1041.42         759.061 
        0.27624         1027.55         720.606 
       0.282372         986.013         688.662 
        0.28843         976.231         662.552 
       0.294538          926.03          639.88 
       0.300721          920.35         618.504 
        0.30691         883.975         596.886 
       0.313033         865.497          574.48 
       0.319153          847.31         551.183 
       0.325316         820.685         527.697 
        0.33145         800.295         505.349 
       0.337538         784.641         485.025 
       0.343633         766.435         466.908 
       0.349808         738.566         450.651 
       0.355968         733.385         436.042 
       0.362074         725.646         422.425 
       0.368217         702.496         409.059 
       0.374374         674.414         395.643 
       0.380519          674.92         382.196 
       0.386598         654.581         369.073 
       0.392688         651.727         356.365 
        0.39888         632.455         344.182 
       0.405048         623.388         332.956 
       0.411186         614.519         322.625 
       0.417313         601.736          313.04 
       0.423458         589.124         303.952 
       0.429607         582.867         295.164 
       0.435692         568.559         286.656 
       0.441815         562.835         278.258 
       0.447964         551.854         269.996 
       0.454126         545.259          261.97 
       0.460267         532.073         254.323 
       0.466387         525.683         247.095 
        0.47254         520.868         240.207 
       0.478662         516.074         233.708 
       0.484765         498.821         227.533 
       0.490885          495.17         221.573 
       0.497035         485.493         215.756 
       0.503198         481.437         210.079 
       0.509342         477.859         204.582 
       0.515458         473.602         199.282 
       0.521598         460.637         194.142 
       0.527764         454.347         189.173 
       0.533884         451.092         184.444 
           0.54          445.57         179.917 
       0.546137         442.596         175.551 
       0.552299         435.625          171.32 
       0.558452         432.672         167.225 
       0.564573         427.554         163.269 
       0.570708         420.997         159.422 
       0.576825         411.253         155.705 
       0.582926         410.893         152.114 
       0.589034         406.849         148.635 
       0.595184         403.852         145.245 
       0.601379         396.619         141.943 
       0.607522          391.77         138.778 
       0.613639         390.141         135.728 
       0.619772         383.205         132.767 
       0.625918         381.152         129.889 
       0.632068         375.063         127.094 
       0.638161         373.347         124.401 
         0.6443         367.919         121.765 
       0.650464         365.207         119.193 
       0.656582         361.159         116.715 
       0.662703         360.887         114.308 
       0.668861         355.294         111.959 
       0.675024          351.98         109.677 
       0.681124         348.892         107.484 
       0.687237          345.89         105.347 
       0.693381         340.831         103.259 
       0.699536         336.822         101.224 
       0.705665          334.81         99.2515 
       0.711789         333.701          97.333 
       0.717957         330.818         95.4518 
        0.72409         328.735          93.631 
       0.730186         324.172         91.8689 
       0.736317         321.484         90.1432 
       0.742472         319.278         88.4563 
       0.748622         316.504         86.8147 
        0.75476         312.492         85.2189 
       0.760888         309.579         83.6662 
       0.767043          309.55         82.1464 
       0.773185         306.546         80.6678 
       0.779291         302.158         79.2343 
       0.785407         301.395         77.8336 
       0.791564         297.893         76.4582 
       0.797719         295.705         75.1169 
       0.803834         292.362         73.8165 
       0.809972         291.992         72.5424 
       0.816124          290.86         71.2958 
       0.822261         288.004          70.082 
       0.828378          285.33         68.9004 
       0.834502         282.626         67.7452 
       0.840667         280.839         66.6093 
       0.846816         279.448         65.5028 
       0.852925          277.81         64.4286 
       0.859047         275.466         63.3765 
       0.865192         272.194         62.3446 
       0.871341         270.024         61.3351 
       0.877463         269.974         60.3528 
       0.883569         267.856         59.3946 
       0.889708         265.053         58.4524 
       0.895864         264.302         57.5285 
       0.902008         261.798         56.6266 
       0.908149         259.522         55.7447 
       0.914301         257.202         54.8802 
       0.920448         255.869         54.0351 
       0.926574         253.029         53.2108 
       0.932687         253.056         52.4056 
       0.938823         250.289         51.6142 
       0.944975         249.866         50.8374 
       0.951105         247.867         50.0795 
       0.957225         246.414         49.3385 
       0.963368         242.972           48.61 
       0.969511         242.363         47.8962 
       0.975621         240.505         47.2007 
       0.981748         239.641         46.5173 
       0.987916          238.28         45.8432 
        0.99406         235.666         45.1851 
        1.00019         234.523         44.5413 
        1.00632          233.47         43.9106 
        1.01246         231.554         43.2912 
        1.01859         231.757         42.6849 
        1.02471         228.101          42.091 
        1.03085         227.101         41.5063 
        1.03698         225.812         40.9341 
        1.04314         223.979         40.3703 
        1.04929         222.691         39.8185 
        1.05541         222.742         39.2792 
        1.06154         219.617         38.7487 
        1.06769         219.295         38.2273 
        1.07382         217.493         37.7172 
        1.07993         216.252         37.2176 
        1.08607         215.946         36.7251 
        1.09222         213.791          36.241 
        1.09836         212.319         35.7663 
        1.10449         210.562         35.3007 
        1.11063         209.041         34.8429 
        1.11677         208.466         34.3934 
         1.1229         206.549         33.9527 
        1.12903         206.003         33.5193 
        1.13518          204.61         33.0932 
        1.14131         203.058         32.6748 
        1.14745         203.195         32.2639 
        1.15359         201.142           31.86 
        1.15973         199.426         31.4629 
        1.16584         198.631         31.0743 
        1.17197         198.555         30.6918 
        1.17811         195.923         30.3146 
        1.18424          195.17         29.9448 
        1.19038         194.611         29.5802 
        1.19652         192.761         29.2218 
        1.20267         192.711         28.8694 
        1.20881         190.975         28.5228 
        1.21495         189.878         28.1825 
        1.22108         188.644         27.8479 
         1.2272         187.473         27.5195 
        1.23334         187.346         27.1956 
        1.23949         185.112         26.8762 
        1.24562         184.552         26.5628 
        1.25174         183.723         26.2549 
        1.25789          182.62          25.951 
        1.26402         180.745         25.6524 
        1.27014         179.834         25.3593 
        1.27628          178.95         25.0699 
        1.28244          178.93         24.7845 
        1.28858           177.1         24.5039 
        1.29471         176.214         24.2283 
        1.30084          175.24         23.9572 
        1.30697         173.803         23.6898 
        1.31312         172.745         23.4262 
        1.31925          171.72         23.1674 
        1.32537         171.662         22.9128 
        1.33151         170.019         22.6612 
        1.33765         168.893         22.4135 
        1.34378         168.361           22.17 
        1.34992         167.605         21.9299 
        1.35606         167.348         21.6929 
         1.3622         165.551         21.4598 
        1.36833         164.574         21.2308 
        1.37445         163.951         21.0052 
        1.38059         162.627         20.7822 
        1.38675         162.178         20.5619 
        1.39288         161.243         20.3457 
        1.39901          160.67         20.1327 
        1.40515         159.193         19.9223 
         1.4113         158.643          19.715 
        1.41742         157.321         19.5115 
        1.42355         156.876         19.3104 
         1.4297         155.671         19.1116 
        1.43585          155.02         18.9157 
        1.44198         154.511         18.7232 
        1.44809         153.635         18.5338 
        1.45423         153.068         18.3463 
        1.46036         151.791         18.1618 
        1.46649          150.86         17.9797 
        1.47263         150.099            17.8 
        1.47877         148.984         17.6228 
        1.48491         147.893         17.4478 
        1.49104         147.868         17.2755 
        1.49718         146.515         17.1055 
        1.50333         145.761         16.9374 
        1.50947         144.997          16.772 
         1.5156         144.412          16.609 
        1.52172         143.689         16.4482 
        1.52787         142.469         16.2892 
          1.534         142.131         16.1325 
        1.54013         141.338          15.978 
        1.54627         140.545         15.8253 
        1.55241         139.607         15.6745 
        1.55855         138.924          15.526 
        1.56467         137.878         15.3798 
         1.5708         137.072          15.235 
        1.57695         136.939         15.0919 
        1.58308         136.176          14.951 
        1.58922         135.543         14.8118 
        1.59535         134.618         14.6744 
         1.6015         134.135         14.5386 
        1.60764         133.512         14.4045 
        1.61376         132.556         14.2725 
        1.61989         131.769         14.1421 
        1.62604          130.83          14.013 
        1.63218         130.756         13.8856 
        1.63831         129.832         13.7601 
        1.64444         129.065         13.6361 
        1.65059         128.407         13.5133 
        1.65673         127.699         13.3922 
        1.66285         127.163         13.2729 
        1.66898         126.388          13.155 
        1.67512         125.693         13.0383 
        1.68127         125.107          12.923 
         1.6874         124.407         12.8093 
        1.69353          123.96          12.697 
        1.69967         123.143         12.5858 
        1.70581          122.33          12.476 
        1.71193         121.773         12.3679 
        1.71806         121.376         12.2608 
        1.72421         120.779         12.1549 
        1.73035         120.368         12.0503 
        1.73649         119.551         11.9469 
        1.74262         118.956         11.8449 
        1.74876         118.411         11.7439 
        1.75489         117.577         11.6444 
        1.76101         116.826          11.546 
        1.76715         116.549         11.4487 
        1.77329         115.942         11.3523 
        1.77943         115.378         11.2571 
        1.78557         115.012          11.163 
        1.79171         113.958           11.07 
        1.79785         113.482         10.9781 
        1.80399         112.892         10.8872 
        1.81012         112.419         10.7975 
        1.81625         111.979         10.7088 
        1.82239          111.34          10.621 
        1.82853         110.539         10.5343 
        1.83466         110.122         10.4485 
        1.84078         109.597         10.3639 
        1.84692         108.715           10.28 
        1.85306         108.568          10.197 
         1.8592         107.824          10.115 
        1.86533         107.317         10.0339 
        1.87147         106.633         9.95367 
        1.87761         105.909         9.87426 
        1.88375         105.607         9.79582 
        1.88988         104.909         9.71831 
        1.89601         104.419          9.6416 
        1.90215         103.875         9.56566 
        1.90829          103.41         9.49057 
        1.91442          103.02         9.41628 
        1.92056         102.226         9.34286 
         1.9267         101.987         9.27014 
        1.93284         101.333         9.19815 
        1.93897         100.765         9.12707 
        1.94509         100.458         9.05689 
        1.95123         99.9098         8.98727 
        1.95737         99.2793         8.91833 
        1.96349         98.7951         8.85029 
        1.96964         98.0681         8.78277 
        1.97578         97.6264         8.71592 
        1.98192         97.4026         8.64991 
        1.98805         96.8691         8.58457 
        1.99419         96.3736          8.5199 
        2.00033         95.8084         8.45587 
        2.00647         95.5025         8.39252 
         2.0126         94.8486         8.32992 
        2.01874         94.3234         8.26787 
        2.02488         94.0813         8.20639 
        2.03101         93.3526         8.14565 
        2.03714         92.8619         8.08559 
        2.04328         92.4433         8.02606 
        2.04941          91.988         7.96719 
        2.05554         91.5061         7.90894 
        2.06167         91.1513          7.8512 
        2.06781         90.4438         7.79403 
        2.07396         90.2815         7.73735 
        2.08009         89.8685         7.68132 
        2.08622         89.2098         7.62592 
        2.09237         88.9936         7.57096 
        2.09851         88.4622         7.51652 
        2.10464         88.0572         7.46272 
        2.11077         87.4594          7.4095 
        2.11691         87.2358         7.35669 
        2.12305         86.7446         7.30439 
        2.12918          86.262         7.25272 
        2.13531         85.7947         7.20155 
        2.14145         85.3185         7.15076 
         2.1476          84.879          7.1004 
        2.15372         84.5463         7.05078 
        2.15985          84.117         7.00158 
        2.16599         83.5938         6.95271 
        2.17213          83.238         6.90436 
        2.17827         82.7441         6.85648 
         2.1844         82.4164          6.8091 
        2.19054         82.0439         6.76215 
        2.19666         81.6647         6.71571 
         2.2028         81.2922         6.66967 
        2.20893         80.8549         6.62403 
        2.21508         80.5017         6.57877 
        2.22122          80.069         6.53392 
        2.22736         79.6102         6.48958 
        2.23349         79.2636         6.44566 
        2.23962          78.989         6.40213 
        2.24577         78.6013         6.35895 
         2.2519         78.2517         6.31624 
        2.25802         77.8348         6.27399 
        2.26417         77.4255         6.23201 
        2.27031         77.0113         6.19037 
        2.27644          76.471         6.14924 
        2.28257         76.2514         6.10848 
        2.28872         76.0355         6.06801 
        2.29486          75.482         6.02792 
        2.30099         74.8925         5.98827 
        2.30712         74.8019         5.94897 
        2.31326         74.3751         5.90995 
         2.3194         74.0358          5.8713 
        2.32553         73.7608         5.83306 
        2.33166         73.3812         5.79518 
         2.3378         72.9239         5.75759 
        2.34394         72.5742         5.72031 
        2.35007         72.2787         5.68342 
        2.35619           71.88          5.6469 
        2.36233          71.544         5.61062 
        2.36848         71.1709         5.57458 
        2.37462         70.8238         5.53893 
        2.38075         70.5176         5.50363 
        2.38689         70.1533          5.4686 
        2.39303         69.7644         5.43389 
        2.39916         69.4297         5.39951 
        2.40529         69.3293         5.36543 
        2.41143         68.6673         5.33163 
        2.41757           68.52         5.29809 
         2.4237         68.1429         5.26491 
        2.42983         67.8562         5.23202 
        2.43598         67.4858         5.19932 
        2.44211         67.1853         5.16696 
        2.44823         66.8793         5.13494 
        2.45437         66.4758          5.1031 
        2.46052          66.263         5.07151 
        2.46665          65.934         5.04025 
        2.47279         65.5486         5.00925 
        2.47892         65.2493          4.9785 
        2.48507         64.9234         4.94798 
         2.4912         64.6243         4.91777 
