# k  (h/Mpc)    Pcb(k)  (Mpc/h)^3    Pcb_linear(k)  (Mpc/h)^3
     0.00783031         14885.1         14964.8 
       0.013688         17418.2         17867.8 
       0.019231         17425.2         17685.2 
      0.0249154         16128.9         16086.1 
      0.0312784           13660         13788.5 
      0.0375637         11524.5         11719.2 
      0.0433917         10181.1         10236.3 
      0.0492413         9048.67         9167.94 
      0.0555754         8298.79         8346.82 
      0.0619321         7417.09         7688.64 
       0.067871         6945.03         7090.02 
      0.0738098         6382.13         6448.62 
      0.0800417         5714.14         5741.58 
      0.0862327         5032.27         5063.16 
      0.0921407          4516.2         4496.84 
      0.0982031         4117.05         4033.32 
       0.104506         3702.57         3679.97 
       0.110769         3471.13         3430.77 
       0.116806         3333.06         3245.72 
       0.122832         3127.12         3075.63 
       0.129052         2937.15         2887.34 
       0.135211            2804         2679.43 
       0.141259         2562.25         2463.42 
       0.147318         2345.95         2253.22 
       0.153489         2192.23         2063.29 
       0.159709         2096.41          1907.2 
       0.165845         1924.08         1788.52 
       0.171974         1882.32          1697.5 
       0.178125         1819.29         1622.07 
       0.184229         1682.29         1551.48 
        0.19034         1647.84         1477.22 
       0.196428         1589.22         1397.11 
       0.202534         1479.72         1312.97 
       0.208729         1444.58         1228.98 
       0.214876         1372.88         1152.42 
       0.220989         1297.51         1086.47 
       0.227147         1262.99         1031.07 
        0.23329         1214.13         985.119 
       0.239377         1204.55         945.618 
       0.245482         1144.55         908.686 
       0.251667         1101.66         871.399 
       0.257832          1082.9         833.188 
       0.263955          1028.8         794.533 
       0.270079         995.661         756.374 
        0.27624         953.811         720.043 
       0.282372         938.493         687.078 
        0.28843         924.346         658.072 
       0.294538         879.338          632.17 
       0.300721         859.843         608.548 
        0.30691         840.584         586.546 
       0.313033         805.522         565.518 
       0.319153         795.022         544.783 
       0.325316         783.692          524.06 
        0.33145         765.019         503.857 
       0.337538         737.853         484.565 
       0.343633         719.234         466.373 
       0.349808         703.453         449.274 
       0.355968         690.195         433.542 
       0.362074         666.169         419.091 
       0.368217         663.684         405.419 
       0.374374         653.324         392.338 
       0.380519         628.024         379.693 
       0.386598          622.88         367.505 
       0.392688         607.779         355.632 
        0.39888         592.966         343.963 
       0.405048         581.168         332.847 
       0.411186         580.033          322.35 
       0.417313         574.587         312.435 
       0.423458         557.416         303.037 
       0.429607         541.546         294.107 
       0.435692         535.424         285.652 
       0.441815         525.449         277.461 
       0.447964         516.603         269.513 
       0.454126         510.679         261.798 
       0.460267          502.49         254.366 
       0.466387         493.237         247.233 
        0.47254         486.187         240.346 
       0.478662         477.524         233.777 
       0.484765         471.593         227.508 
       0.490885         467.107         221.485 
       0.497035         457.122         215.668 
       0.503198         456.882         210.051 
       0.509342         447.235         204.643 
       0.515458         438.633          199.44 
       0.521598         434.703         194.386 
       0.527764         426.496         189.477 
       0.533884          422.94         184.771 
           0.54          418.47         180.234 
       0.546137           410.6         175.845 
       0.552299          409.11         171.594 
       0.558452         402.715         167.495 
       0.564573         399.624         163.554 
       0.570708         394.415         159.732 
       0.576825         386.876         156.043 
       0.582926         385.462         152.479 
       0.589034         378.875         149.019 
       0.595184         376.181         145.642 
       0.601379          370.21         142.347 
       0.607522         363.208         139.183 
       0.613639         362.384         136.131 
       0.619772         361.008         133.165 
       0.625918          353.82         130.285 
       0.632068         351.501         127.489 
       0.638161         348.514           124.8 
         0.6443         343.799         122.169 
       0.650464         340.236         119.604 
       0.656582          337.08         117.132 
       0.662703         334.852         114.729 
       0.668861         329.084         112.381 
       0.675024         327.703         110.097 
       0.681124         322.449         107.901 
       0.687237         321.262          105.76 
       0.693381         316.557         103.668 
       0.699536         315.546          101.63 
       0.705665         311.651         99.6556 
       0.711789         309.535         97.7357 
       0.717957         306.166         95.8537 
        0.72409         302.321          94.032 
       0.730186         303.909          92.269 
       0.736317         298.569         90.5421 
       0.742472         295.887         88.8533 
       0.748622          293.44         87.2094 
        0.75476         291.935          85.611 
       0.760888          288.82         84.0553 
       0.767043         285.877         82.5324 
       0.773185         284.041         81.0505 
       0.779291          280.66         79.6137 
       0.785407         279.221         78.2098 
       0.791564         277.122         76.8312 
       0.797719         272.653         75.4866 
       0.803834         274.345          74.183 
       0.809972         270.141         72.9056 
       0.816124         267.052         71.6557 
       0.822261         265.178         70.4387 
       0.828378         264.148         69.2537 
       0.834502         260.508         68.0952 
       0.840667         260.735         66.9558 
       0.846816         255.833         65.8458 
       0.852925         256.289         64.7682 
       0.859047         253.759         63.7125 
       0.865192         252.851          62.677 
       0.871341         249.585          61.664 
       0.877463         247.976          60.678 
       0.883569          246.78         59.7162 
       0.889708         244.579         58.7704 
       0.895864         241.901         57.8428 
       0.902008         240.441         56.9372 
       0.908149         238.458         56.0517 
       0.914301         237.083         55.1837 
       0.920448         235.932         54.3349 
       0.926574         233.844         53.5071 
       0.932687         233.308         52.6984 
       0.938823         230.659         51.9035 
       0.944975         230.195         51.1233 
       0.951105         227.671          50.362 
       0.957225          225.66         49.6176 
       0.963368         225.844         48.8858 
       0.969511         221.936         48.1689 
       0.975621         220.305         47.4702 
       0.981748         219.962         46.7836 
       0.987916         218.836         46.1064 
        0.99406          216.83         45.4452 
        1.00019         215.408         44.7982 
        1.00632         214.557         44.1646 
        1.01246         212.899         43.5423 
        1.01859         210.668          42.933 
        1.02471          209.22         42.3362 
        1.03085         208.065         41.7487 
        1.03698          207.45         41.1736 
        1.04314         206.639          40.607 
        1.04929          205.17         40.0524 
        1.05541         203.869         39.5104 
        1.06154         202.038         38.9772 
        1.06769         200.716          38.453 
        1.07382         199.676         37.9401 
        1.07993         197.895         37.4379 
        1.08607          197.17         36.9426 
        1.09222         195.484         36.4559 
        1.09836         194.887         35.9785 
        1.10449          193.42         35.5102 
        1.11063         192.017         35.0498 
        1.11677         190.806         34.5977 
         1.1229         190.131         34.1545 
        1.12903         188.316         33.7186 
        1.13518         187.321           33.29 
        1.14131         186.614         32.8691 
        1.14745         184.737         32.4557 
        1.15359         183.612         32.0494 
        1.15973         183.042           31.65 
        1.16584         181.907         31.2591 
        1.17197         180.992         30.8743 
        1.17811         179.437         30.4948 
        1.18424         178.479         30.1228 
        1.19038         177.683          29.756 
        1.19652         175.842         29.3954 
        1.20267         175.034         29.0408 
        1.20881         173.887         28.6922 
        1.21495         173.767         28.3499 
        1.22108         172.311         28.0132 
         1.2272         170.918         27.6828 
        1.23334         170.114         27.3569 
        1.23949         169.386         27.0356 
        1.24562         168.206         26.7203 
        1.25174         167.502         26.4105 
        1.25789         165.977         26.1047 
        1.26402         165.663         25.8043 
        1.27014         164.856         25.5093 
        1.27628         163.575         25.2182 
        1.28244         162.448          24.931 
        1.28858         161.546         24.6486 
        1.29471         160.511         24.3713 
        1.30084         159.693         24.0985 
        1.30697         158.483         23.8295 
        1.31312         157.816         23.5642 
        1.31925         156.662         23.3037 
        1.32537          156.23         23.0475 
        1.33151         155.237         22.7942 
        1.33765         154.169         22.5449 
        1.34378         153.763         22.2997 
        1.34992         152.563         22.0581 
        1.35606         151.895         21.8195 
         1.3622         150.968         21.5849 
        1.36833         149.822         21.3543 
        1.37445         149.733         21.1272 
        1.38059         148.277         20.9027 
        1.38675         147.509          20.681 
        1.39288         146.557         20.4633 
        1.39901         145.658         20.2489 
        1.40515         145.232         20.0371 
         1.4113         144.203         19.8284 
        1.41742         143.327         19.6234 
        1.42355          143.04          19.421 
         1.4297         141.844         19.2209 
        1.43585         141.341         19.0236 
        1.44198         139.867         18.8299 
        1.44809         139.627         18.6392 
        1.45423         138.935         18.4505 
        1.46036         137.882         18.2647 
        1.46649         137.062         18.0815 
        1.47263         136.549         17.9006 
        1.47877         135.578         17.7222 
        1.48491         134.868         17.5461 
        1.49104         133.664         17.3726 
        1.49718         133.452         17.2014 
        1.50333         132.523         17.0323 
        1.50947         131.976         16.8657 
         1.5156         131.004         16.7017 
        1.52172         130.411         16.5398 
        1.52787         129.913         16.3797 
          1.534         129.107         16.2219 
        1.54013         128.228         16.0664 
        1.54627         127.565         15.9127 
        1.55241         127.139         15.7609 
        1.55855         126.484         15.6113 
        1.56467         125.736         15.4641 
         1.5708         124.592         15.3183 
        1.57695         124.409         15.1742 
        1.58308         123.392         15.0323 
        1.58922          122.97         14.8922 
        1.59535         122.443         14.7538 
         1.6015         121.563          14.617 
        1.60764         120.798         14.4821 
        1.61376         120.236         14.3492 
        1.61989         119.772         14.2178 
        1.62604          118.77         14.0879 
        1.63218         118.388         13.9596 
        1.63831         117.571         13.8332 
        1.64444         116.844         13.7083 
        1.65059         116.413         13.5847 
        1.65673         115.997         13.4628 
        1.66285         115.496         13.3426 
        1.66898         114.532          13.224 
        1.67512         113.775         13.1065 
        1.68127         113.557         12.9903 
         1.6874         112.643         12.8758 
        1.69353         112.232         12.7628 
        1.69967         111.433         12.6508 
        1.70581         111.136         12.5403 
        1.71193         110.399         12.4315 
        1.71806         109.507         12.3237 
        1.72421         109.159          12.217 
        1.73035          108.58         12.1117 
        1.73649          107.88         12.0077 
        1.74262         107.531         11.9049 
        1.74876         106.741         11.8033 
        1.75489         106.526         11.7031 
        1.76101          105.73         11.6041 
        1.76715         105.012          11.506 
        1.77329         104.552          11.409 
        1.77943         103.925         11.3131 
        1.78557         103.663         11.2184 
        1.79171         102.934         11.1248 
        1.79785         102.192         11.0322 
        1.80399         101.871         10.9407 
        1.81012         101.043         10.8504 
        1.81625         100.678         10.7611 
        1.82239         100.295         10.6727 
        1.82853         99.5077         10.5854 
        1.83466         98.8714          10.499 
        1.84078         98.7669         10.4138 
        1.84692         98.4382         10.3293 
        1.85306         97.7489         10.2457 
         1.8592         97.2942         10.1632 
        1.86533         96.5623         10.0816 
        1.87147         96.2489         10.0008 
        1.87761         95.4442         9.92083 
        1.88375         95.0154         9.84185 
        1.88988         94.4188         9.76382 
        1.89601         94.2937         9.68658 
        1.90215          93.843         9.61012 
        1.90829         92.9869         9.53453 
        1.91442         92.4063         9.45973 
        1.92056         92.0607         9.38581 
         1.9267         91.6353          9.3126 
        1.93284         91.1001         9.24013 
        1.93897          90.724         9.16857 
        1.94509         90.2431         9.09792 
        1.95123           89.79         9.02783 
        1.95737         89.4476         8.95844 
        1.96349         89.0024         8.88995 
        1.96964         88.4276         8.82198 
        1.97578         87.9551         8.75468 
        1.98192         87.6249         8.68823 
        1.98805         87.0106         8.62246 
        1.99419         86.7314         8.55737 
        2.00033         86.0953         8.49291 
        2.00647          85.649         8.42914 
         2.0126         85.2977         8.36613 
        2.01874          85.021         8.30366 
        2.02488         84.3819         8.24178 
        2.03101         83.9713         8.18064 
        2.03714         83.5777         8.12018 
        2.04328          83.394         8.06026 
        2.04941         82.8942         8.00099 
        2.05554         82.4032         7.94236 
        2.06167         81.8345         7.88424 
        2.06781          81.456         7.82669 
        2.07396         80.9212         7.76963 
        2.08009         80.5071         7.71324 
        2.08622         80.2727         7.65747 
        2.09237         79.8171         7.60215 
        2.09851         79.2588         7.54736 
        2.10464         79.1359          7.4932 
        2.11077         78.6603         7.43963 
        2.11691         78.3284         7.38648 
        2.12305         77.8713         7.33384 
        2.12918         77.4169         7.28183 
        2.13531         77.0246         7.23033 
        2.14145         76.7008         7.17921 
         2.1476         76.4086         7.12852 
        2.15372         75.8441         7.07857 
        2.15985         75.4774         7.02905 
        2.16599         75.1321         6.97987 
        2.17213         74.6426          6.9312 
        2.17827         74.1489         6.88302 
         2.1844         73.9613         6.83533 
        2.19054         73.5212         6.78807 
        2.19666         73.2355         6.74133 
         2.2028         72.9552         6.69499 
        2.20893         72.6035         6.64906 
        2.21508         72.1475         6.60351 
        2.22122         71.6737         6.55837 
        2.22736         71.3813         6.51375 
        2.23349         70.9795         6.46955 
        2.23962         70.6998         6.42574 
        2.24577         70.4266         6.38229 
         2.2519         69.9934         6.33931 
        2.25802         69.6056         6.29679 
        2.26417          69.234         6.25454 
        2.27031         68.8921         6.21264 
        2.27644         68.5496         6.17125 
        2.28257         68.2628         6.13024 
        2.28872         67.8214         6.08952 
        2.29486         67.7303         6.04917 
        2.30099         67.1186         6.00928 
        2.30712         66.9795         5.96973 
        2.31326         66.6217         5.93046 
         2.3194         66.2617         5.89158 
        2.32553         65.8422          5.8531 
        2.33166         65.5719         5.81499 
         2.3378         65.3463         5.77716 
        2.34394         65.0421         5.73965 
        2.35007         64.6117         5.70253 
        2.35619         64.3666         5.66579 
        2.36233         63.9817         5.62928 
        2.36848         63.6621         5.59301 
        2.37462          63.349         5.55714 
        2.38075          63.057         5.52162 
        2.38689         62.6469         5.48638 
        2.39303         62.5055         5.45146 
        2.39916         62.0735         5.41687 
        2.40529         61.9159         5.38259 
        2.41143         61.5742         5.34857 
        2.41757          61.142         5.31484 
         2.4237         60.9569         5.28146 
        2.42983         60.6466         5.24837 
        2.43598         60.3283         5.21547 
        2.44211         60.0512         5.18291 
        2.44823         59.8055          5.1507 
        2.45437         59.4201         5.11868 
        2.46052         59.2069          5.0869 
        2.46665         58.7182         5.05544 
        2.47279         58.5636         5.02427 
        2.47892         58.3435         4.99333 
        2.48507         58.0383         4.96263 
         2.4912         57.7344         4.93224 
