# k  (h/Mpc)    Pcb(k)  (Mpc/h)^3    Pcb_linear(k)  (Mpc/h)^3
     0.00783031         12650.9         12721.2 
       0.013688         14833.8         15189.9 
       0.019231         14834.2         15035.1 
      0.0249154         13714.6         13675.8 
      0.0312784         11630.5         11722.7 
      0.0375637         9817.94         9963.46 
      0.0433917         8668.33         8702.76 
      0.0492413         7707.16         7794.47 
      0.0555754         7068.92         7096.39 
      0.0619321         6329.31         6536.82 
       0.067871         5923.59         6027.89 
      0.0738098         5436.16         5482.59 
      0.0800417         4867.14         4881.47 
      0.0862327          4284.1         4304.68 
      0.0921407         3838.67          3823.2 
      0.0982031          3494.7         3429.12 
       0.104506         3143.56          3128.7 
       0.110769         2945.72         2916.83 
       0.116806         2828.49         2759.51 
       0.122832         2651.89          2614.9 
       0.129052         2494.19         2454.82 
       0.135211         2374.17         2278.05 
       0.141259         2169.57          2094.4 
       0.147318         1982.22         1915.69 
       0.153489         1849.45         1754.21 
       0.159709          1763.2          1621.5 
       0.165845         1617.64          1520.6 
       0.171974         1583.19         1443.22 
       0.178125         1526.93         1379.09 
       0.184229         1415.64         1319.07 
        0.19034         1383.24         1255.93 
       0.196428         1331.55         1187.82 
       0.202534          1236.6         1116.29 
       0.208729         1205.97         1044.88 
       0.214876         1146.27         979.787 
       0.220989         1078.49         923.714 
       0.227147         1050.73         876.619 
        0.23329         1010.22         837.549 
       0.239377         999.243         803.965 
       0.245482          948.49         772.565 
       0.251667         912.125         740.864 
       0.257832          897.54         708.377 
       0.263955         850.112         675.513 
       0.270079         820.568          643.07 
        0.27624         785.586         612.181 
       0.282372         770.681         584.154 
        0.28843         761.089         559.493 
       0.294538         722.672         537.472 
       0.300721         704.433         517.388 
        0.30691         690.173         498.682 
       0.313033         660.111         480.804 
       0.319153          650.36         463.175 
       0.325316         639.863         445.556 
        0.33145         624.446         428.379 
       0.337538         601.575         411.977 
       0.343633         585.176         396.511 
       0.349808          571.18         381.974 
       0.355968          560.42         368.598 
       0.362074         540.855         356.311 
       0.368217         538.107         344.688 
       0.374374         528.678         333.566 
       0.380519         507.522         322.815 
       0.386598         502.474         312.453 
       0.392688         490.403         302.359 
        0.39888         477.703         292.438 
       0.405048         468.365         282.987 
       0.411186         466.982         274.062 
       0.417313         461.414         265.632 
       0.423458         447.812         257.643 
       0.429607         435.105          250.05 
       0.435692         429.194         242.861 
       0.441815         421.523         235.898 
       0.447964         412.969          229.14 
       0.454126         408.232         222.581 
       0.460267         401.393         216.262 
       0.466387         393.908         210.198 
        0.47254         388.336         204.342 
       0.478662         380.245         198.757 
       0.484765         375.472         193.427 
       0.490885         371.556         188.307 
       0.497035         363.957         183.361 
       0.503198         363.348         178.586 
       0.509342         354.843         173.988 
       0.515458         348.613         169.564 
       0.521598         343.634         165.267 
       0.527764         338.392         161.094 
       0.533884         336.153         157.092 
           0.54         331.511         153.236 
       0.546137         324.529         149.504 
       0.552299         323.318         145.889 
       0.558452         317.978         142.405 
       0.564573         315.457         139.054 
       0.570708         310.502         135.804 
       0.576825         304.977         132.668 
       0.582926         303.064         129.637 
       0.589034         298.108         126.696 
       0.595184         296.114         123.825 
       0.601379          291.39         121.024 
       0.607522         285.383         118.333 
       0.613639         284.403         115.738 
       0.619772         283.171         113.217 
       0.625918         278.173         110.768 
       0.632068         274.923         108.391 
       0.638161         273.047         106.105 
         0.6443         269.674         103.868 
       0.650464         265.933         101.688 
       0.656582         263.483         99.5857 
       0.662703         261.907         97.5428 
       0.668861          256.96         95.5462 
       0.675024         255.994         93.6046 
       0.681124         252.581         91.7372 
       0.687237         250.837         89.9175 
       0.693381          247.23         88.1391 
       0.699536         245.791          86.406 
       0.705665          243.16         84.7273 
       0.711789         240.752          83.095 
       0.717957         238.427         81.4949 
        0.72409         235.315         79.9461 
       0.730186         236.763         78.4473 
       0.736317         232.673          76.979 
       0.742472         230.004         75.5432 
       0.748622         227.349         74.1456 
        0.75476         227.343         72.7866 
       0.760888         224.384         71.4639 
       0.767043         221.486         70.1691 
       0.773185         220.106         68.9093 
       0.779291         217.279         67.6877 
       0.785407         216.381         66.4941 
       0.791564         214.424          65.322 
       0.797719         210.902         64.1788 
       0.803834         212.294         63.0704 
       0.809972         209.519         61.9844 
       0.816124         206.336         60.9218 
       0.822261         205.032         59.8871 
       0.828378         204.493         58.8796 
       0.834502         201.836         57.8946 
       0.840667          201.78         56.9259 
       0.846816         197.968         55.9822 
       0.852925         197.741          55.066 
       0.859047          195.83         54.1685 
       0.865192         195.324         53.2881 
       0.871341         192.806         52.4268 
       0.877463         191.186         51.5885 
       0.883569          190.89         50.7708 
       0.889708         189.041         49.9667 
       0.895864         187.197          49.178 
       0.902008         185.501         48.4081 
       0.908149         183.955         47.6552 
       0.914301         182.875         46.9172 
       0.920448         182.497         46.1956 
       0.926574         180.262         45.4918 
       0.932687         179.815         44.8042 
       0.938823         178.192         44.1284 
       0.944975         177.359         43.4651 
       0.951105         175.461         42.8179 
       0.957225         174.329          42.185 
       0.963368         173.696         41.5628 
       0.969511         171.289         40.9532 
       0.975621         169.801         40.3592 
       0.981748          169.24         39.7755 
       0.987916         168.473         39.1997 
        0.99406         167.134         38.6375 
        1.00019         166.105         38.0875 
        1.00632         165.051         37.5488 
        1.01246         163.946         37.0197 
        1.01859         162.523         36.5017 
        1.02471         161.313         35.9943 
        1.03085         160.253         35.4948 
        1.03698         159.348         35.0059 
        1.04314         158.998         34.5241 
        1.04929          157.98         34.0526 
        1.05541         156.992         33.5918 
        1.06154         155.416         33.1384 
        1.06769         154.627         32.6928 
        1.07382         153.908         32.2568 
        1.07993           152.4         31.8297 
        1.08607           151.9         31.4087 
        1.09222         150.616         30.9948 
        1.09836         149.924         30.5889 
        1.10449         148.805         30.1908 
        1.11063         147.744         29.7994 
        1.11677         147.092          29.415 
         1.1229         145.992         29.0382 
        1.12903         145.047         28.6676 
        1.13518         144.095         28.3032 
        1.14131          143.51         27.9454 
        1.14745         142.387         27.5939 
        1.15359         141.224         27.2485 
        1.15973         140.825         26.9088 
        1.16584          139.97         26.5765 
        1.17197         139.272         26.2494 
        1.17811          138.01         25.9267 
        1.18424         137.374         25.6105 
        1.19038         136.554         25.2986 
        1.19652         135.695          24.992 
        1.20267         134.758         24.6906 
        1.20881         133.834         24.3942 
        1.21495         133.599         24.1031 
        1.22108         132.555         23.8168 
         1.2272         131.663         23.5359 
        1.23334         131.103         23.2589 
        1.23949         130.564         22.9857 
        1.24562         129.562         22.7176 
        1.25174         129.041         22.4542 
        1.25789          127.92         22.1942 
        1.26402         127.681         21.9388 
        1.27014         126.749         21.6881 
        1.27628         125.786         21.4405 
        1.28244          125.37         21.1963 
        1.28858         124.428         20.9563 
        1.29471         123.669         20.7205 
        1.30084         122.877         20.4886 
        1.30697         122.163         20.2598 
        1.31312         121.495         20.0343 
        1.31925         120.599         19.8129 
        1.32537         120.179          19.595 
        1.33151         119.818         19.3797 
        1.33765         118.706         19.1677 
        1.34378         118.528         18.9593 
        1.34992         117.799         18.7538 
        1.35606          117.12          18.551 
         1.3622         116.743         18.3515 
        1.36833         115.517         18.1555 
        1.37445         115.432         17.9624 
        1.38059         114.623         17.7715 
        1.38675         113.885          17.583 
        1.39288         113.115         17.3979 
        1.39901         112.561         17.2156 
        1.40515         112.166         17.0355 
         1.4113          111.42         16.8581 
        1.41742         110.868         16.6839 
        1.42355         110.522         16.5118 
         1.4297         109.624         16.3416 
        1.43585         109.103         16.1739 
        1.44198         108.132         16.0092 
        1.44809         107.757         15.8471 
        1.45423         107.529         15.6866 
        1.46036         106.483         15.5287 
        1.46649         106.013         15.3729 
        1.47263         105.455         15.2191 
        1.47877         104.811         15.0675 
        1.48491         104.484         14.9177 
        1.49104         103.388         14.7702 
        1.49718         103.147         14.6247 
        1.50333         102.789         14.4809 
        1.50947         102.199         14.3393 
         1.5156         101.666         14.1998 
        1.52172         100.928         14.0621 
        1.52787         100.621          13.926 
          1.534         100.015         13.7919 
        1.54013         99.4997         13.6597 
        1.54627         98.7949          13.529 
        1.55241         98.6206         13.3999 
        1.55855          97.829         13.2727 
        1.56467         97.2762         13.1476 
         1.5708         96.4815         13.0237 
        1.57695         96.3989         12.9012 
        1.58308         95.7204         12.7805 
        1.58922         95.6351         12.6613 
        1.59535         95.2501         12.5437 
         1.6015         94.3366         12.4274 
        1.60764         93.8044         12.3127 
        1.61376         93.5135         12.1997 
        1.61989         92.9939          12.088 
        1.62604         92.4387         11.9775 
        1.63218         92.0389         11.8685 
        1.63831         91.5091          11.761 
        1.64444         90.9091         11.6548 
        1.65059         90.4814         11.5498 
        1.65673         90.3235         11.4461 
        1.66285          89.753         11.3439 
        1.66898         89.0961          11.243 
        1.67512         88.5939         11.1431 
        1.68127         88.3414         11.0444 
         1.6874         87.6137          10.947 
        1.69353         87.2637         10.8509 
        1.69967         86.7779         10.7558 
        1.70581         86.5495         10.6618 
        1.71193         85.9551         10.5692 
        1.71806         85.5847         10.4776 
        1.72421         85.0539         10.3869 
        1.73035         84.6719         10.2974 
        1.73649         84.1404         10.2089 
        1.74262         83.8203         10.1216 
        1.74876         83.2676         10.0352 
        1.75489         82.9446         9.94998 
        1.76101         82.5594         9.86579 
        1.76715         82.0528         9.78246 
        1.77329         81.6237         9.69999 
        1.77943         81.3501         9.61843 
        1.78557         80.9829         9.53793 
        1.79171         80.4432         9.45833 
        1.79785         79.8631         9.37963 
        1.80399         79.8289         9.30184 
        1.81012         79.1309         9.22504 
        1.81625         78.7607         9.14913 
        1.82239         78.3946         9.07397 
        1.82853         77.9651         8.99969 
        1.83466         77.4654         8.92631 
        1.84078         77.3083         8.85382 
        1.84692          77.052         8.78203 
        1.85306         76.6337         8.71094 
         1.8592          76.219         8.64075 
        1.86533         75.7372         8.57137 
        1.87147         75.4266         8.50268 
        1.87761         74.7219         8.43471 
        1.88375         74.6312         8.36756 
        1.88988         74.0154         8.30121 
        1.89601         74.0218         8.23555 
        1.90215         73.3976         8.17054 
        1.90829         72.9772         8.10627 
        1.91442         72.6408         8.04268 
        1.92056         72.4614         7.97983 
         1.9267         71.9699         7.91759 
        1.93284         71.7507         7.85597 
        1.93897         71.3018         7.79513 
        1.94509         70.9483         7.73506 
        1.95123         70.6096         7.67548 
        1.95737         70.3239         7.61648 
        1.96349         70.0156         7.55825 
        1.96964         69.6317         7.50046 
        1.97578         69.2306         7.44325 
        1.98192         68.7753         7.38675 
        1.98805         68.3103         7.33083 
        1.99419         68.3574         7.27548 
        2.00033         67.7333         7.22069 
        2.00647          67.424         7.16647 
         2.0126         67.1726         7.11289 
        2.01874         67.0319         7.05979 
        2.02488         66.6442         7.00717 
        2.03101         66.1617         6.95519 
        2.03714         65.9101         6.90379 
        2.04328         65.6861         6.85284 
        2.04941         65.2244         6.80245 
        2.05554         64.9059         6.75261 
        2.06167         64.5014         6.70319 
        2.06781         64.2366         6.65426 
        2.07396         63.9656         6.60575 
        2.08009         63.6017         6.55781 
        2.08622         63.3613         6.51039 
        2.09237            63.1         6.46336 
        2.09851         62.5129         6.41677 
        2.10464         62.3806         6.37073 
        2.11077         62.2252         6.32519 
        2.11691         61.8512         6.27999 
        2.12305         61.4566         6.23524 
        2.12918         61.1921         6.19103 
        2.13531         60.8974         6.14724 
        2.14145         60.5432         6.10377 
         2.1476         60.4623         6.06068 
        2.15372          59.979         6.01821 
        2.15985         59.6753         5.97611 
        2.16599         59.4553         5.93429 
        2.17213         59.0761         5.89292 
        2.17827         58.7316         5.85195 
         2.1844         58.4667         5.81141 
        2.19054         58.3475         5.77123 
        2.19666         58.1223         5.73149 
         2.2028         57.6781         5.69209 
        2.20893         57.3927         5.65304 
        2.21508          57.034         5.61432 
        2.22122         56.7931         5.57594 
        2.22736          56.546           5.538 
        2.23349         56.2555         5.50042 
        2.23962         56.0954         5.46317 
        2.24577         55.7344         5.42624 
         2.2519         55.4299         5.38969 
        2.25802          55.235         5.35354 
        2.26417         54.9134         5.31762 
        2.27031         54.7158           5.282 
        2.27644         54.4408         5.24681 
        2.28257         54.1451         5.21194 
        2.28872         53.8725         5.17732 
        2.29486         53.7088         5.14302 
        2.30099         53.2722          5.1091 
        2.30712         53.1487         5.07547 
        2.31326         52.9513         5.04209 
         2.3194         52.6543         5.00903 
        2.32553         52.3445         4.97632 
        2.33166         52.1218         4.94391 
         2.3378         51.8586         4.91175 
        2.34394         51.6094         4.87986 
        2.35007         51.3793          4.8483 
        2.35619         51.1724         4.81706 
        2.36233         50.9237         4.78602 
        2.36848         50.6349         4.75519 
        2.37462         50.3696         4.72469 
        2.38075         50.1501         4.69449 
        2.38689         49.8452         4.66453 
        2.39303         49.7345         4.63484 
        2.39916         49.4066         4.60543 
        2.40529         49.2782         4.57628 
        2.41143         49.0449         4.54737 
        2.41757         48.7589         4.51869 
         2.4237         48.6299         4.49031 
        2.42983         48.3482         4.46217 
        2.43598         48.1631          4.4342 
        2.44211         47.7802         4.40652 
        2.44823         47.6909         4.37913 
        2.45437         47.3494         4.35191 
        2.46052         47.0859         4.32489 
        2.46665         46.9049         4.29815 
        2.47279         46.7302         4.27164 
        2.47892         46.5231         4.24534 
        2.48507         46.3205         4.21923 
         2.4912         46.0446          4.1934 
