# k  (h/Mpc)    P(k)  (Mpc/h)^3    P_linear(k)  (Mpc/h)^3
     0.00783031         11485.2         11646.5 
       0.013688         14338.6         14239.2 
       0.019231         14340.6         14316.9 
      0.0249154         12890.1         13123.2 
      0.0312784         11113.9         11210.3 
      0.0375637         9391.82         9378.53 
      0.0433917         7915.08         8017.86 
      0.0492413          7014.7         7036.48 
      0.0555754         6188.26         6334.32 
      0.0619321         5897.73         5865.17 
       0.067871         5393.75         5507.72 
      0.0738098         5024.98         5134.22 
      0.0800417         4536.02         4679.55 
      0.0862327         4098.72         4175.06 
      0.0921407         3686.07         3689.35 
      0.0982031         3228.67         3238.81 
       0.104506         2948.84         2861.21 
       0.110769         2678.25         2590.39 
       0.116806         2491.42         2416.13 
       0.122832         2377.67         2300.81 
       0.129052         2231.44         2209.71 
       0.135211         2138.32         2116.93 
       0.141259         2054.23         2004.67 
       0.147318         1933.85         1867.34 
       0.153489         1765.67         1711.14 
       0.159709         1646.28         1553.95 
       0.165845         1550.51         1415.34 
       0.171974         1442.02         1303.52 
       0.178125         1363.07         1220.59 
       0.184229         1302.52         1163.12 
        0.19034         1227.02         1121.81 
       0.196428         1209.76         1086.83 
       0.202534          1173.5         1049.23 
       0.208729         1118.74          1003.2 
       0.214876         1063.76         948.974 
       0.220989         1023.68         889.772 
       0.227147         969.364         830.074 
        0.23329          923.83         775.609 
       0.239377         899.873         730.092 
       0.245482         838.503         693.936 
       0.251667         831.368         665.839 
       0.257832         800.725           643.7 
       0.263955         775.777         624.246 
       0.270079         748.057         604.399 
        0.27624         739.862         582.277 
       0.282372          709.06         557.658 
        0.28843         693.595         531.643 
       0.294538         657.978         505.259 
       0.300721         652.956         480.087 
        0.30691         623.046         457.715 
       0.313033         610.298         438.875 
       0.319153         592.671         423.151 
       0.325316          575.08         409.628 
        0.33145         559.324         397.471 
       0.337538         551.249         385.693 
       0.343633         534.557         373.523 
       0.349808         516.279         360.554 
       0.355968         511.646         347.118 
       0.362074         502.658         333.772 
       0.368217         488.274         320.819 
       0.374374         467.952           308.8 
       0.380519         465.091          297.98 
       0.386598         453.111         288.453 
       0.392688         450.413           279.9 
        0.39888         437.222         271.872 
       0.405048         428.506         264.235 
       0.411186         420.899         256.718 
       0.417313          412.74         249.134 
       0.423458         405.018         241.486 
       0.429607         397.531         233.866 
       0.435692         387.929         226.515 
       0.441815          384.62         219.475 
       0.447964         376.518         212.862 
       0.454126         366.583         206.706 
       0.460267         360.617         201.029 
       0.466387         356.384         195.727 
        0.47254         349.488          190.63 
       0.478662          348.35         185.703 
       0.484765         336.671         180.883 
       0.490885         333.296         176.103 
       0.497035         327.238          171.36 
       0.503198         321.999         166.724 
       0.509342         319.435         162.268 
       0.515458         315.527         158.025 
       0.521598         308.582         153.967 
       0.527764         303.681         150.105 
       0.533884         301.151         146.466 
           0.54         296.836          142.98 
       0.546137         295.515         139.595 
       0.552299          289.33          136.28 
       0.558452         287.307         133.052 
       0.564573         282.923         129.915 
       0.570708         277.661         126.846 
       0.576825          273.07         123.869 
       0.582926         270.595         120.995 
       0.589034         268.051         118.224 
       0.595184         265.391         115.547 
       0.601379         262.045         112.956 
       0.607522         257.671         110.475 
       0.613639         256.328         108.082 
       0.619772         250.659         105.751 
       0.625918         249.461         103.478 
       0.632068         245.654         101.265 
       0.638161         244.584         99.1309 
         0.6443         240.597         97.0361 
       0.650464         238.163         94.9904 
       0.656582         236.348         93.0178 
       0.662703         234.968         91.1035 
       0.668861         230.706         89.2383 
       0.675024          228.02         87.4311 
       0.681124         226.985         85.6971 
       0.687237         224.136          84.009 
       0.693381         220.709         82.3583 
       0.699536         218.903         80.7464 
       0.705665         217.472         79.1807 
       0.711789         214.968         77.6552 
       0.717957         214.058          76.158 
        0.72409         211.463         74.7084 
       0.730186         208.968         73.3063 
       0.736317         206.652         71.9347 
       0.742472         205.598         70.5952 
       0.748622         203.891         69.2926 
        0.75476         202.186         68.0267 
       0.760888         199.506         66.7947 
       0.767043         199.336         65.5882 
       0.773185         196.959         64.4135 
       0.779291         193.374         63.2734 
       0.785407         192.983         62.1589 
       0.791564         191.091         61.0639 
       0.797719         188.552         59.9958 
       0.803834         187.547         58.9602 
       0.809972         186.374         57.9457 
       0.816124         186.041         56.9533 
       0.822261         183.628         55.9873 
       0.828378         181.932          55.047 
       0.834502         181.538         54.1279 
       0.840667         178.847         53.2241 
       0.846816         177.476         52.3436 
       0.852925         176.792         51.4887 
       0.859047         174.934         50.6511 
       0.865192         173.276         49.8293 
       0.871341          171.83         49.0252 
       0.877463         170.559         48.2425 
       0.883569         169.951         47.4789 
       0.889708         168.259         46.7279 
       0.895864         166.242         45.9912 
       0.902008          165.55         45.2721 
       0.908149         164.978         44.5688 
       0.914301         162.963         43.8794 
       0.920448          161.79         43.2053 
       0.926574         160.883         42.5478 
       0.932687         160.626         41.9055 
       0.938823         158.478         41.2741 
       0.944975         157.051         40.6545 
       0.951105         156.459         40.0498 
       0.957225         154.907         39.4585 
       0.963368         153.122         38.8773 
       0.969511         152.747         38.3077 
       0.975621         151.727         37.7527 
       0.981748         151.303         37.2073 
       0.987916         149.609         36.6693 
        0.99406         148.406          36.144 
        1.00019         148.323         35.6301 
        1.00632         146.779         35.1267 
        1.01246         145.916         34.6323 
        1.01859         145.154         34.1482 
        1.02471          143.64         33.6741 
        1.03085         142.347         33.2073 
        1.03698         141.858         32.7504 
        1.04314          140.53         32.3002 
        1.04929         139.645         31.8596 
        1.05541         139.177         31.4289 
        1.06154          138.15         31.0052 
        1.06769         138.017         30.5887 
        1.07382         136.753         30.1812 
        1.07993         135.623         29.7821 
        1.08607         134.821         29.3886 
        1.09222         134.343         29.0018 
        1.09836         133.172         28.6225 
        1.10449         131.972         28.2504 
        1.11063         131.046         27.8845 
        1.11677         130.725         27.5252 
         1.1229         129.523         27.1729 
        1.12903         128.894         26.8265 
        1.13518         128.638         26.4859 
        1.14131         127.273         26.1513 
        1.14745         126.818         25.8228 
        1.15359         125.923         25.4998 
        1.15973         125.452         25.1822 
        1.16584         124.132         24.8715 
        1.17197         123.621         24.5656 
        1.17811         122.942          24.264 
        1.18424         122.357         23.9683 
        1.19038         122.007         23.6766 
        1.19652         121.039           23.39 
        1.20267         120.232         23.1081 
        1.20881         119.309         22.8309 
        1.21495         118.766         22.5587 
        1.22108         118.175          22.291 
         1.2272         117.106         22.0283 
        1.23334         116.664         21.7693 
        1.23949         115.752         21.5138 
        1.24562          115.19         21.2631 
        1.25174         114.265         21.0168 
        1.25789         113.819         20.7736 
        1.26402         113.061         20.5348 
        1.27014         112.474         20.3003 
        1.27628         111.952         20.0687 
        1.28244         111.434         19.8404 
        1.28858         110.991         19.6159 
        1.29471         109.789         19.3953 
        1.30084         109.553         19.1784 
        1.30697         108.706         18.9644 
        1.31312         108.341         18.7535 
        1.31925         107.417         18.5464 
        1.32537         107.013         18.3426 
        1.33151         106.007         18.1412 
        1.33765         105.724         17.9429 
        1.34378         105.106          17.748 
        1.34992         104.837         17.5558 
        1.35606         104.146         17.3661 
         1.3622         103.251         17.1795 
        1.36833         102.884         16.9961 
        1.37445         102.257         16.8155 
        1.38059         101.714          16.637 
        1.38675         101.012         16.4606 
        1.39288         100.697         16.2875 
        1.39901         100.278          16.117 
        1.40515          99.538         15.9485 
         1.4113         98.8506         15.7825 
        1.41742         98.6368         15.6195 
        1.42355         97.8654         15.4585 
         1.4297          97.463         15.2992 
        1.43585         96.7133         15.1423 
        1.44198         96.3922         14.9882 
        1.44809         95.7812         14.8365 
        1.45423         95.2504         14.6864 
        1.46036         95.0051         14.5386 
        1.46649         94.2701         14.3928 
        1.47263         93.7177         14.2489 
        1.47877         93.5271          14.107 
        1.48491         92.6343         13.9669 
        1.49104         92.4446         13.8289 
        1.49718         91.7698         13.6927 
        1.50333         91.3358         13.5581 
        1.50947         90.9289         13.4256 
         1.5156         90.3577         13.2951 
        1.52172         89.8629         13.1663 
        1.52787         89.5287         13.0389 
          1.534         88.9057         12.9134 
        1.54013         88.3973         12.7897 
        1.54627         88.1222         12.6674 
        1.55241          87.484         12.5467 
        1.55855         87.1928         12.4277 
        1.56467          86.822         12.3105 
         1.5708         86.1844         12.1946 
        1.57695         86.0989           12.08 
        1.58308         85.1947         11.9671 
        1.58922         85.1267         11.8555 
        1.59535         84.6617         11.7455 
         1.6015         84.0515         11.6366 
        1.60764         83.6838         11.5292 
        1.61376         83.4367         11.4235 
        1.61989         82.8558          11.319 
        1.62604         82.6321         11.2156 
        1.63218         82.1438         11.1135 
        1.63831         81.4022         11.0129 
        1.64444         81.2022         10.9136 
        1.65059         80.7379         10.8152 
        1.65673         80.1315         10.7181 
        1.66285         79.9255         10.6225 
        1.66898         79.4834         10.5281 
        1.67512         79.0173         10.4346 
        1.68127          78.728         10.3422 
         1.6874         78.2882          10.251 
        1.69353         77.8659         10.1611 
        1.69967         77.3578          10.072 
        1.70581         77.2245           9.984 
        1.71193         76.9135          9.8974 
        1.71806         76.3332         9.81164 
        1.72421         75.9231         9.72673 
        1.73035          75.592         9.64291 
        1.73649         75.2341         9.56011 
        1.74262         74.8402         9.47834 
        1.74876         74.5095         9.39747 
        1.75489         73.9156         9.31771 
        1.76101         73.7546         9.23891 
        1.76715         73.2476         9.16091 
        1.77329         73.0156         9.08371 
        1.77943         72.4835         9.00737 
        1.78557         72.3559         8.93202 
        1.79171         71.7849         8.85751 
        1.79785         71.4838         8.78384 
        1.80399           71.24         8.71103 
        1.81012         70.9688         8.63914 
        1.81625         70.4433         8.56809 
        1.82239         70.1854         8.49773 
        1.82853          69.891         8.42819 
        1.83466         69.4915          8.3595 
        1.84078         69.2032         8.29165 
        1.84692         68.7103         8.22443 
        1.85306         68.4055         8.15788 
         1.8592         68.0335         8.09217 
        1.86533         67.7575         8.02722 
        1.87147         67.2797         7.96291 
        1.87761         67.0863         7.89927 
        1.88375         66.7465          7.8364 
        1.88988         66.4563         7.77429 
        1.89601         66.0471         7.71281 
        1.90215         65.7487         7.65195 
        1.90829         65.4867         7.59177 
        1.91442         65.1424         7.53224 
        1.92056          64.664         7.47339 
         1.9267          64.526         7.41512 
        1.93284         64.1071         7.35743 
        1.93897         63.7454         7.30046 
        1.94509         63.5183         7.24422 
        1.95123          63.178         7.18843 
        1.95737         62.9383         7.13319 
        1.96349         62.4631         7.07866 
        1.96964          62.293         7.02455 
        1.97578         62.0228         6.97098 
        1.98192         61.7168         6.91808 
        1.98805         61.4942         6.86572 
        1.99419         61.0414          6.8139 
        2.00033         60.7917         6.76259 
        2.00647         60.5377         6.71182 
         2.0126         60.0786         6.66165 
        2.01874         59.8267         6.61192 
        2.02488         59.6461         6.56266 
        2.03101          59.362         6.51399 
        2.03714          59.003         6.46585 
        2.04328         58.8116         6.41815 
        2.04941         58.4988         6.37097 
        2.05554         58.2303          6.3243 
        2.06167         57.9048         6.27803 
        2.06781         57.6312         6.23222 
        2.07396         57.3209          6.1868 
        2.08009         57.1309          6.1419 
        2.08622          56.853         6.09751 
        2.09237         56.5016         6.05347 
        2.09851         56.3667         6.00985 
        2.10464         56.0077         5.96673 
        2.11077         55.6682         5.92409 
        2.11691         55.4349         5.88177 
        2.12305         55.2261         5.83986 
        2.12918          54.973         5.79846 
        2.13531         54.6038         5.75746 
        2.14145         54.3972         5.71676 
         2.1476         54.1623          5.6764 
        2.15372         53.8829         5.63664 
        2.15985          53.614         5.59721 
        2.16599         53.3521         5.55805 
        2.17213         53.1555         5.51931 
        2.17827         52.8651         5.48094 
         2.1844         52.5663         5.44298 
        2.19054         52.3061         5.40535 
        2.19666         52.0399         5.36814 
         2.2028         51.9526         5.33125 
        2.20893         51.6851         5.29468 
        2.21508         51.4201         5.25841 
        2.22122         51.1822         5.22247 
        2.22736         50.9726         5.18695 
        2.23349         50.6972         5.15175 
        2.23962         50.3545         5.11687 
        2.24577          50.122         5.08228 
         2.2519         49.8552         5.04806 
        2.25802         49.7833         5.01421 
        2.26417         49.4003         4.98057 
        2.27031         49.2489         4.94721 
        2.27644         49.0659         4.91425 
        2.28257         48.7479         4.88159 
        2.28872         48.4744         4.84917 
        2.29486         48.3385         4.81704 
        2.30099         48.1225         4.78528 
        2.30712         47.9089         4.75378 
        2.31326         47.5868         4.72252 
         2.3194         47.3372         4.69155 
        2.32553         47.1212         4.66092 
        2.33166         46.9194         4.63057 
         2.3378         46.6689         4.60044 
        2.34394         46.4526         4.57058 
        2.35007         46.1834         4.54102 
        2.35619          46.017         4.51176 
        2.36233         45.9037         4.48269 
        2.36848         45.6208         4.45382 
        2.37462         45.4009         4.42525 
        2.38075         45.2371         4.39697 
        2.38689         45.0294         4.36891 
        2.39303         44.8123          4.3411 
        2.39916         44.5977         4.31356 
        2.40529         44.4049         4.28626 
        2.41143         44.2217         4.25918 
        2.41757         43.9301         4.23232 
         2.4237         43.8422         4.20574 
        2.42983         43.5795         4.17939 
        2.43598         43.3608         4.15319 
        2.44211         43.2049         4.12726 
        2.44823         42.9732         4.10161 
        2.45437         42.7742         4.07611 
        2.46052         42.4775         4.05081 
        2.46665         42.3424         4.02576 
        2.47279         42.1934         4.00093 
        2.47892         42.0133          3.9763 
        2.48507         41.7492         3.95185 
         2.4912         41.6504         3.92765 
