# k  (h/Mpc)    Pcb(k)  (Mpc/h)^3    Pcb_linear(k)  (Mpc/h)^3
     0.00783031         8856.37         8967.37 
       0.013688         11044.4         10978.7 
       0.019231         11066.4         11045.7 
      0.0249154         9976.68         10128.7 
      0.0312784         8598.31         8654.64 
      0.0375637          7258.1         7241.73 
      0.0433917         6129.85         6191.78 
      0.0492413         5425.74         5434.36 
      0.0555754         4800.78         4892.41 
      0.0619321         4560.17         4530.29 
       0.067871         4184.73         4254.36 
      0.0738098         3898.26         3965.98 
      0.0800417         3523.59         3614.86 
      0.0862327         3178.87         3225.22 
      0.0921407         2849.76         2850.07 
      0.0982031         2494.32         2502.06 
       0.104506         2268.41         2210.38 
       0.110769         2058.36         2001.18 
       0.116806         1911.16         1866.58 
       0.122832         1826.44         1777.51 
       0.129052         1719.03         1707.14 
       0.135211         1647.28         1635.47 
       0.141259         1579.83         1548.75 
       0.147318         1485.21         1442.66 
       0.153489         1355.79         1321.99 
       0.159709          1258.9         1200.56 
       0.165845         1179.92         1093.47 
       0.171974         1092.63         1007.09 
       0.178125          1032.4         943.016 
       0.184229         987.321         898.615 
        0.19034         928.899         866.706 
       0.196428         916.198          839.68 
       0.202534          890.66         810.631 
       0.208729         847.894         775.072 
       0.214876         803.049         733.178 
       0.220989         771.639          687.44 
       0.227147         726.786         641.319 
        0.23329         690.975         599.242 
       0.239377          670.17         564.074 
       0.245482         623.773          536.14 
       0.251667         616.933         514.432 
       0.257832         595.628         497.328 
       0.263955         576.793         482.298 
       0.270079         556.297         466.965 
        0.27624         549.191         449.872 
       0.282372         526.653         430.852 
        0.28843         510.944         410.754 
       0.294538         485.477          390.37 
       0.300721         480.136         370.922 
        0.30691         457.105         353.637 
       0.313033         446.934         339.082 
       0.319153         431.463         326.931 
       0.325316         419.628         316.484 
        0.33145         407.063         307.092 
       0.337538         401.453         297.991 
       0.343633         388.401          288.59 
       0.349808         375.609         278.571 
       0.355968         370.755         268.189 
       0.362074         362.373         257.878 
       0.368217         352.214         247.871 
       0.374374         338.568         238.584 
       0.380519         334.512         230.225 
       0.386598         326.011         222.864 
       0.392688          322.78         216.256 
        0.39888         313.877         210.054 
       0.405048         306.875         204.153 
       0.411186         300.557         198.345 
       0.417313         294.796         192.486 
       0.423458         288.992         186.576 
       0.429607         282.781          180.69 
       0.435692         275.142         175.009 
       0.441815         272.907         169.571 
       0.447964         267.463         164.461 
       0.454126         257.826         159.706 
       0.460267         254.455         155.319 
       0.466387         251.392         151.223 
        0.47254         245.963         147.285 
       0.478662         244.791         143.478 
       0.484765         236.937         139.753 
       0.490885         233.895         136.061 
       0.497035         230.235         132.396 
       0.503198         225.048         128.815 
       0.509342         222.663         125.372 
       0.515458         219.584         122.093 
       0.521598         215.615         118.958 
       0.527764          212.44         115.975 
       0.533884         209.708         113.163 
           0.54         206.497          110.47 
       0.546137         205.247         107.854 
       0.552299         201.167         105.293 
       0.558452         198.692         102.799 
       0.564573         195.483         100.375 
       0.570708         191.848         98.0042 
       0.576825         189.435         95.7038 
       0.582926         186.605         93.4835 
       0.589034         184.483         91.3428 
       0.595184          182.43         89.2744 
       0.601379         180.348         87.2722 
       0.607522         176.692         85.3558 
       0.613639         175.803         83.5069 
       0.619772         172.032         81.7056 
       0.625918         170.501         79.9497 
       0.632068         168.384           78.24 
       0.638161          167.23         76.5907 
         0.6443         164.781         74.9724 
       0.650464          163.05         73.3918 
       0.656582         161.217         71.8677 
       0.662703         159.414         70.3887 
       0.668861         156.843         68.9476 
       0.675024         155.057         67.5513 
       0.681124         154.248         66.2116 
       0.687237         151.619         64.9073 
       0.693381         149.488          63.632 
       0.699536         148.417         62.3865 
       0.705665         148.214         61.1769 
       0.711789          145.07         59.9983 
       0.717957         144.692         58.8415 
        0.72409         142.609         57.7215 
       0.730186         140.489         56.6382 
       0.736317          139.52         55.5784 
       0.742472         138.641         54.5435 
       0.748622         137.365         53.5371 
        0.75476         136.155         52.5591 
       0.760888         134.217         51.6072 
       0.767043         133.578          50.675 
       0.773185         132.121         49.7674 
       0.779291         130.121         48.8866 
       0.785407         129.511         48.0255 
       0.791564          128.35         47.1795 
       0.797719         126.361         46.3542 
       0.803834         125.776         45.5541 
       0.809972         124.402         44.7702 
       0.816124         124.081         44.0035 
       0.822261         122.675         43.2571 
       0.828378         121.536         42.5307 
       0.834502         121.097         41.8205 
       0.840667          119.35         41.1222 
       0.846816         118.165          40.442 
       0.852925         117.474         39.7814 
       0.859047         116.022         39.1343 
       0.865192         115.366         38.4994 
       0.871341         114.319         37.8781 
       0.877463         113.215         37.2734 
       0.883569         112.524         36.6833 
       0.889708          111.66         36.1031 
       0.895864         110.596          35.534 
       0.902008         109.799         34.9783 
       0.908149         109.258          34.435 
       0.914301         108.109         33.9023 
       0.920448          107.34         33.3815 
       0.926574         106.613         32.8735 
       0.932687         106.342         32.3772 
       0.938823         104.686         31.8894 
       0.944975         103.722         31.4107 
       0.951105         103.234         30.9435 
       0.957225         102.072         30.4866 
       0.963368         101.398         30.0375 
       0.969511         101.168         29.5975 
       0.975621         100.647         29.1687 
       0.981748         99.8145         28.7473 
       0.987916         98.7944         28.3316 
        0.99406         98.1499         27.9258 
        1.00019           97.57         27.5287 
        1.00632         96.8434         27.1398 
        1.01246         96.1738         26.7578 
        1.01859          95.013         26.3838 
        1.02471         94.8854         26.0175 
        1.03085          93.969         25.6568 
        1.03698         93.5051         25.3038 
        1.04314         92.6072          24.956 
        1.04929         92.0444         24.6155 
        1.05541          91.342         24.2828 
        1.06154          90.982         23.9554 
        1.06769         90.6163         23.6336 
        1.07382         90.0795         23.3188 
        1.07993          89.384         23.0104 
        1.08607         88.6895         22.7064 
        1.09222         88.3225         22.4075 
        1.09836         87.5947         22.1145 
        1.10449          87.108          21.827 
        1.11063         86.4879         21.5443 
        1.11677          86.073         21.2667 
         1.1229          85.176         20.9945 
        1.12903         84.4761         20.7268 
        1.13518          84.695         20.4636 
        1.14131         83.9631         20.2052 
        1.14745         83.1974         19.9513 
        1.15359         82.7986         19.7018 
        1.15973         82.3856         19.4564 
        1.16584         81.7517         19.2164 
        1.17197         81.3061           18.98 
        1.17811         80.7952          18.747 
        1.18424         80.2573         18.5185 
        1.19038         79.8209         18.2932 
        1.19652         79.4556         18.0717 
        1.20267         78.7188         17.8539 
        1.20881         78.3542         17.6397 
        1.21495         77.8167         17.4294 
        1.22108         77.4556         17.2226 
         1.2272         76.7343         17.0196 
        1.23334         76.4894         16.8195 
        1.23949         76.0128         16.6221 
        1.24562         75.6484         16.4284 
        1.25174         75.1862         16.2381 
        1.25789         74.8687         16.0502 
        1.26402         74.4611         15.8657 
        1.27014         73.8073         15.6845 
        1.27628         73.5636         15.5056 
        1.28244         72.9797         15.3292 
        1.28858         72.6966         15.1557 
        1.29471          72.335         14.9853 
        1.30084         71.9017         14.8177 
        1.30697         71.4582         14.6524 
        1.31312         71.0688         14.4894 
        1.31925         70.7399         14.3294 
        1.32537         70.4566          14.172 
        1.33151         69.7308         14.0163 
        1.33765         69.4357         13.8632 
        1.34378         69.0357         13.7126 
        1.34992         68.8048         13.5641 
        1.35606         68.4196         13.4175 
         1.3622         67.8277         13.2734 
        1.36833         67.6966         13.1317 
        1.37445         67.2982         12.9921 
        1.38059         66.7617         12.8542 
        1.38675         66.4211         12.7179 
        1.39288         66.0615         12.5841 
        1.39901           65.93         12.4524 
        1.40515         65.4888         12.3222 
         1.4113         65.1389         12.1939 
        1.41742         65.0082          12.068 
        1.42355         64.4005         11.9436 
         1.4297         64.1835         11.8206 
        1.43585         63.7009         11.6993 
        1.44198          63.458         11.5803 
        1.44809         63.1662         11.4631 
        1.45423         62.8174         11.3471 
        1.46036         62.6135         11.2329 
        1.46649         62.2243         11.1203 
        1.47263         61.8052         11.0091 
        1.47877         61.6336         10.8995 
        1.48491         61.3818         10.7912 
        1.49104          60.939         10.6846 
        1.49718         60.4757         10.5793 
        1.50333         60.2898         10.4754 
        1.50947         60.0061          10.373 
         1.5156         59.6905         10.2721 
        1.52172          59.479         10.1726 
        1.52787         59.3101         10.0742 
          1.534         58.8754         9.97726 
        1.54013         58.5168         9.88167 
        1.54627         58.3408         9.78716 
        1.55241         57.8995         9.69387 
        1.55855         57.6492         9.60193 
        1.56467         57.2327         9.51144 
         1.5708         57.1883         9.42186 
        1.57695         56.9304         9.33329 
        1.58308           56.49         9.24607 
        1.58922         56.4347         9.15989 
        1.59535         56.2116         9.07485 
         1.6015         55.6423         8.99077 
        1.60764         55.5037         8.90779 
        1.61376         55.1806         8.82609 
        1.61989         54.8913         8.74535 
        1.62604         54.7594         8.66544 
        1.63218         54.5666         8.58657 
        1.63831          54.224         8.50887 
        1.64444          53.926          8.4321 
        1.65059         53.5799          8.3561 
        1.65673         53.4194         8.28111 
        1.66285         53.0928         8.20726 
        1.66898         52.8841         8.13428 
        1.67512         52.5605         8.06204 
        1.68127         52.2959         7.99062 
         1.6874         52.1541         7.92023 
        1.69353         51.8407         7.85072 
        1.69967         51.5863         7.78189 
        1.70581         51.5027          7.7139 
        1.71193         51.2524         7.64699 
        1.71806         50.7532         7.58073 
        1.72421         50.6841         7.51512 
        1.73035         50.4181         7.45037 
        1.73649         50.0176         7.38639 
        1.74262         49.9792         7.32321 
        1.74876         49.7313         7.26073 
        1.75489         49.4515         7.19911 
        1.76101         49.2863         7.13822 
        1.76715         48.9682         7.07796 
        1.77329         48.7743         7.01831 
        1.77943         48.5113         6.95933 
        1.78557         48.3663         6.90111 
        1.79171         48.0822         6.84355 
        1.79785         47.8862         6.78663 
        1.80399         47.7287         6.73037 
        1.81012         47.4972         6.67482 
        1.81625         47.0915         6.61993 
        1.82239          46.982         6.56557 
        1.82853          46.646         6.51184 
        1.83466         46.5502         6.45877 
        1.84078         46.1911         6.40634 
        1.84692         46.0289         6.35441 
        1.85306          45.851         6.30299 
         1.8592           45.55         6.25223 
        1.86533         45.4453         6.20204 
        1.87147         45.2467         6.15235 
        1.87761         45.0756         6.10318 
        1.88375         44.8123         6.05461 
        1.88988         44.7642         6.00662 
        1.89601         44.4222         5.95912 
        1.90215         44.2575          5.9121 
        1.90829         44.1342          5.8656 
        1.91442         43.8613          5.8196 
        1.92056         43.6009         5.77414 
         1.9267         43.3698         5.72912 
        1.93284         43.2323         5.68454 
        1.93897         43.0495         5.64053 
        1.94509         42.7496         5.59708 
        1.95123         42.6885         5.55397 
        1.95737         42.4216         5.51129 
        1.96349         42.1997         5.46916 
        1.96964         42.1483         5.42735 
        1.97578         41.8477         5.38597 
        1.98192         41.7084         5.34509 
        1.98805         41.5555         5.30464 
        1.99419         41.2685          5.2646 
        2.00033         41.0994         5.22495 
        2.00647           40.91         5.18573 
         2.0126         40.6986         5.14697 
        2.01874         40.5999         5.10855 
        2.02488         40.4485         5.07048 
        2.03101         40.1906         5.03288 
        2.03714         40.0248         4.99569 
        2.04328         39.8172         4.95883 
        2.04941         39.6245         4.92238 
        2.05554         39.4041         4.88632 
        2.06167         39.3509         4.85057 
        2.06781         39.1159         4.81517 
        2.07396         38.9531         4.78008 
        2.08009         38.8082          4.7454 
        2.08622         38.5575          4.7111 
        2.09237         38.4072         4.67707 
        2.09851         38.2211         4.64337 
        2.10464         38.0909         4.61006 
        2.11077         37.9601         4.57711 
        2.11691         37.7354         4.54441 
        2.12305         37.5247         4.51203 
        2.12918          37.413         4.48005 
        2.13531         37.1851         4.44837 
        2.14145         37.1113         4.41692 
         2.1476         36.8876         4.38574 
        2.15372         36.6775         4.35502 
        2.15985         36.5551         4.32456 
        2.16599         36.5336          4.2943 
        2.17213         36.3738         4.26436 
        2.17827         36.0857         4.23472 
         2.1844         35.9475         4.20539 
        2.19054         35.7772         4.17632 
        2.19666         35.6321         4.14757 
         2.2028         35.4463         4.11906 
        2.20893         35.3607         4.09081 
        2.21508         35.2142         4.06279 
        2.22122         34.9821         4.03502 
        2.22736         34.8882         4.00757 
        2.23349         34.7472         3.98038 
        2.23962         34.4954         3.95343 
        2.24577         34.3777         3.92671 
         2.2519         34.2149         3.90026 
        2.25802         34.1231         3.87411 
        2.26417         33.9647         3.84812 
        2.27031         33.8634         3.82234 
        2.27644         33.6178         3.79688 
        2.28257         33.5308         3.77165 
        2.28872         33.3274         3.74659 
        2.29486         33.2739         3.72178 
        2.30099          33.096         3.69723 
        2.30712         32.9497          3.6729 
        2.31326         32.8436         3.64874 
         2.3194         32.6939         3.62482 
        2.32553         32.5184         3.60115 
        2.33166         32.4015          3.5777 
         2.3378         32.2048         3.55442 
        2.34394         32.0408         3.53135 
        2.35007          31.948         3.50851 
        2.35619         31.8584         3.48591 
        2.36233         31.7599         3.46345 
        2.36848         31.5301         3.44114 
        2.37462         31.4457         3.41907 
        2.38075           31.31         3.39722 
        2.38689         31.2485         3.37554 
        2.39303         31.0421         3.35405 
        2.39916         30.8663         3.33277 
        2.40529         30.6666         3.31168 
        2.41143         30.6512         3.29076 
        2.41757         30.5487            3.27 
         2.4237         30.3717         3.24946 
        2.42983         30.2394         3.22911 
        2.43598         30.0817         3.20887 
        2.44211          29.962         3.18883 
        2.44823         29.8446         3.16902 
        2.45437         29.7434         3.14931 
        2.46052         29.5449         3.12976 
        2.46665         29.5105         3.11041 
        2.47279          29.374         3.09123 
        2.47892         29.1918         3.07219 
        2.48507         29.0894          3.0533 
         2.4912         28.9836         3.03461 
