# k  (h/Mpc)    Pcb(k)  (Mpc/h)^3    Pcb_linear(k)  (Mpc/h)^3
     0.00783031         11403.2         11559.6 
       0.013688         14092.3           13990 
       0.019231         13909.1         13878.3 
      0.0249154         12349.1         12560.2 
      0.0312784           10573         10651.5 
      0.0375637         8974.45         8953.56 
      0.0433917         7676.49         7771.07 
      0.0492413         6930.45         6957.24 
      0.0555754         6219.68         6368.96 
      0.0619321         5936.57         5914.03 
       0.067871         5374.63         5486.25 
      0.0738098         4901.48         4999.84 
      0.0800417         4320.08         4438.16 
      0.0862327         3837.29          3886.2 
      0.0921407         3443.15         3424.28 
      0.0982031         3056.65         3052.76 
       0.104506         2862.83         2781.42 
       0.110769          2667.9         2603.53 
       0.116806         2522.62         2480.75 
       0.122832         2413.66          2368.2 
       0.129052         2236.85          2234.7 
       0.135211         2093.54          2075.8 
       0.141259         1966.62         1902.59 
       0.147318         1821.31         1730.26 
       0.153489         1655.52          1574.6 
       0.159709         1556.07         1449.64 
       0.165845         1491.63         1359.23 
       0.171974         1412.97         1294.75 
       0.178125          1352.6         1244.53 
       0.184229         1300.32         1197.38 
        0.19034         1218.16         1144.55 
       0.196428         1187.15         1083.45 
       0.202534         1137.17         1016.05 
       0.208729         1072.03         947.109 
       0.214876         1013.78         884.201 
       0.220989         976.394          831.13 
       0.227147         929.681         788.394 
        0.23329         893.587         754.897 
       0.239377         876.079         727.433 
       0.245482         819.294         701.927 
       0.251667          812.06         675.257 
       0.257832         780.119         646.451 
       0.263955         752.096         615.941 
       0.270079         722.369         585.041 
        0.27624         711.686         555.413 
       0.282372          681.79         528.877 
        0.28843         666.714         506.203 
       0.294538         633.416         486.683 
       0.300721         630.033         469.497 
        0.30691          601.72         453.678 
       0.313033         589.576         438.395 
       0.319153         572.473         422.836 
       0.325316         555.257         406.804 
        0.33145         538.916         390.763 
       0.337538          530.64         375.303 
       0.343633         513.972         360.767 
       0.349808         496.122         347.312 
       0.355968         491.773         335.222 
       0.362074         483.026         324.344 
       0.368217         469.364         314.205 
       0.374374         449.643         304.483 
       0.380519         446.984          294.97 
       0.386598         435.328         285.637 
       0.392688          432.27         276.373 
        0.39888         419.794         267.185 
       0.405048         410.786         258.407 
       0.411186         403.496         250.154 
       0.417313         395.749         242.463 
       0.423458         388.026         235.259 
       0.429607         380.936         228.472 
       0.435692         371.337          222.08 
       0.441815         368.175         215.867 
       0.447964         360.497         209.777 
       0.454126         350.326         203.817 
       0.460267         344.913         198.035 
       0.466387         340.954         192.455 
        0.47254         333.752         187.067 
       0.478662         332.846         181.957 
       0.484765         321.657         177.112 
       0.490885         318.214         172.475 
       0.497035         312.752         168.012 
       0.503198         307.131         163.709 
       0.509342         304.642          159.56 
       0.515458         300.902         155.544 
       0.521598         294.312         151.623 
       0.527764         289.669         147.806 
       0.533884         287.011         144.146 
           0.54         282.854         140.621 
       0.546137         281.438         137.212 
       0.552299         275.469         133.916 
       0.558452         273.579         130.749 
       0.564573         269.388          127.71 
       0.570708         264.132         124.762 
       0.576825         259.951         121.911 
       0.582926         257.392         119.148 
       0.589034         254.832         116.461 
       0.595184          252.21         113.837 
       0.601379         249.142         111.277 
       0.607522         244.897         108.821 
       0.613639          243.43         106.453 
       0.619772         237.987         104.153 
       0.625918         236.764         101.919 
       0.632068         233.198         99.7497 
       0.638161         232.098         97.6642 
         0.6443         228.273          95.624 
       0.650464          226.02         93.6347 
       0.656582         224.148         91.7159 
       0.662703         222.717         89.8498 
       0.668861         218.727         88.0247 
       0.675024         216.088         86.2491 
       0.681124         215.096         84.5408 
       0.687237         212.216         82.8762 
       0.693381         208.997         81.2499 
       0.699536         207.459         79.6654 
       0.705665         205.991         78.1309 
       0.711789         203.416         76.6389 
       0.717957          202.51         75.1761 
        0.72409         200.015         73.7598 
       0.730186         197.536         72.3886 
       0.736317         195.511         71.0448 
       0.742472          194.45         69.7303 
       0.748622         192.695         68.4505 
        0.75476          191.05         67.2056 
       0.760888         188.577         65.9939 
       0.767043         188.291         64.8076 
       0.773185         186.167         63.6532 
       0.779291         182.696         62.5338 
       0.785407         182.214         61.4399 
       0.791564          180.49         60.3657 
       0.797719         178.019         59.3179 
       0.803834         177.122         58.3018 
       0.809972         175.834         57.3061 
       0.816124         175.444         56.3317 
       0.822261         173.185         55.3828 
       0.828378         171.576         54.4587 
       0.834502         171.316         53.5551 
       0.840667         168.653         52.6664 
       0.846816         167.204         51.8005 
       0.852925         166.595         50.9597 
       0.859047         164.785         50.1359 
       0.865192         163.278         49.3278 
       0.871341         161.855         48.5371 
       0.877463         160.618         47.7674 
       0.883569         160.018         47.0165 
       0.889708         158.437         46.2781 
       0.895864         156.599         45.5537 
       0.902008         155.867         44.8465 
       0.908149         155.254         44.1548 
       0.914301         153.376         43.4767 
       0.920448         152.247         42.8136 
       0.926574         151.384         42.1667 
       0.932687         151.129         41.5347 
       0.938823         149.051         40.9135 
       0.944975         147.687         40.3036 
       0.951105         147.103         39.7085 
       0.957225         145.569         39.1264 
       0.963368         143.945         38.5541 
       0.969511         143.663         37.9934 
       0.975621         142.703         37.4469 
       0.981748         142.229         36.9097 
       0.987916         140.607         36.3798 
        0.99406         139.516         35.8624 
        1.00019         139.301         35.3561 
        1.00632         137.907         34.8601 
        1.01246         137.111         34.3729 
        1.01859         136.179         33.8959 
        1.02471          134.97         33.4286 
        1.03085          133.66         32.9685 
        1.03698         133.175         32.5181 
        1.04314         131.901         32.0743 
        1.04929          131.15         31.6398 
        1.05541          130.55         31.2152 
        1.06154         129.662         30.7974 
        1.06769         129.486         30.3866 
        1.07382         128.295         29.9847 
        1.07993         127.223          29.591 
        1.08607         126.425         29.2028 
        1.09222         126.023         28.8212 
        1.09836         124.888          28.447 
        1.10449         123.802         28.0798 
        1.11063         122.945         27.7188 
        1.11677         122.643         27.3643 
         1.1229          121.44         27.0167 
        1.12903         120.773         26.6748 
        1.13518         120.618         26.3386 
        1.14131          119.39         26.0084 
        1.14745         118.834          25.684 
        1.15359          118.02         25.3652 
        1.15973         117.589         25.0517 
        1.16584         116.332         24.7449 
        1.17197         115.849         24.4429 
        1.17811         115.223          24.145 
        1.18424         114.643          23.853 
        1.19038         114.189         23.5649 
        1.19652         113.325         23.2818 
        1.20267         112.583         23.0033 
        1.20881          111.74         22.7295 
        1.21495         111.182         22.4605 
        1.22108         110.662          22.196 
         1.2272         109.605         21.9364 
        1.23334         109.202         21.6803 
        1.23949         108.317         21.4278 
        1.24562         107.862         21.1799 
        1.25174         106.986         20.9364 
        1.25789         106.586          20.696 
        1.26402          105.83         20.4598 
        1.27014         105.272         20.2279 
        1.27628         104.788         19.9989 
        1.28244         104.203         19.7731 
        1.28858         103.909          19.551 
        1.29471         102.806         19.3329 
        1.30084         102.462         19.1183 
        1.30697         101.731         18.9066 
        1.31312         101.357         18.6978 
        1.31925         100.501         18.4929 
        1.32537         100.128         18.2913 
        1.33151          99.201         18.0919 
        1.33765         98.8547         17.8957 
        1.34378         98.2972         17.7028 
        1.34992          98.045         17.5126 
        1.35606          97.372         17.3248 
         1.3622         96.5179         17.1401 
        1.36833         96.2451         16.9585 
        1.37445         95.6183         16.7797 
        1.38059         95.0819         16.6029 
        1.38675         94.4404         16.4282 
        1.39288         94.1106         16.2568 
        1.39901         93.6967         16.0879 
        1.40515         92.9892          15.921 
         1.4113         92.4029         15.7566 
        1.41742         92.2205         15.5951 
        1.42355         91.4854         15.4356 
         1.4297         91.0957         15.2779 
        1.43585          90.355         15.1224 
        1.44198         90.0327         14.9697 
        1.44809         89.4949         14.8194 
        1.45423         89.0122         14.6706 
        1.46036         88.7862         14.5242 
        1.46649         88.1171         14.3796 
        1.47263         87.5927          14.237 
        1.47877         87.4422         14.0963 
        1.48491          86.581         13.9574 
        1.49104         86.3923         13.8206 
        1.49718         85.7865         13.6855 
        1.50333          85.359         13.5521 
        1.50947         84.9469         13.4206 
         1.5156          84.425         13.2912 
        1.52172         83.9365         13.1634 
        1.52787         83.7036         13.0371 
          1.534         83.0793         12.9126 
        1.54013          82.598         12.7898 
        1.54627         82.3482         12.6684 
        1.55241         81.7653         12.5486 
        1.55855         81.4967         12.4305 
        1.56467         81.0569         12.3143 
         1.5708         80.5687         12.1992 
        1.57695         80.4616         12.0854 
        1.58308         79.6086         11.9734 
        1.58922          79.499         11.8627 
        1.59535         79.1369         11.7534 
         1.6015         78.5107         11.6454 
        1.60764         78.1996         11.5387 
        1.61376         77.9177         11.4337 
        1.61989         77.3605           11.33 
        1.62604         77.1678         11.2273 
        1.63218          76.729         11.1259 
        1.63831         76.0179          11.026 
        1.64444          75.832         10.9273 
        1.65059         75.4116         10.8296 
        1.65673          74.916         10.7332 
        1.66285         74.6448         10.6383 
        1.66898          74.235         10.5444 
        1.67512         73.7677         10.4516 
        1.68127         73.5027         10.3597 
         1.6874          73.119         10.2692 
        1.69353         72.7316         10.1798 
        1.69967         72.2603         10.0913 
        1.70581         72.1246         10.0038 
        1.71193         71.8704         9.91774 
        1.71806         71.2524         9.83249 
        1.72421         70.9238         9.74809 
        1.73035         70.6024         9.66476 
        1.73649          70.267         9.58244 
        1.74262         69.9309         9.50113 
        1.74876         69.6079         9.42072 
        1.75489         69.0931         9.34141 
        1.76101         68.9441         9.26303 
        1.76715           68.44         9.18545 
        1.77329         68.2233         9.10866 
        1.77943         67.7016         9.03272 
        1.78557         67.5875         8.95776 
        1.79171         67.1168         8.88364 
        1.79785         66.7837         8.81034 
        1.80399         66.5922         8.73789 
        1.81012         66.3206         8.66635 
        1.81625         65.7507         8.59565 
        1.82239         65.5339         8.52563 
        1.82853         65.2282         8.45643 
        1.83466         64.9292         8.38806 
        1.84078         64.6143         8.32052 
        1.84692         64.1351         8.25362 
        1.85306         63.8834         8.18738 
         1.8592         63.5077         8.12197 
        1.86533         63.2616         8.05731 
        1.87147         62.8492         7.99328 
        1.87761         62.6282         7.92991 
        1.88375         62.2972         7.86732 
        1.88988         62.0886         7.80546 
        1.89601         61.7023         7.74424 
        1.90215         61.3866         7.68363 
        1.90829         61.1942          7.6237 
        1.91442         60.8539          7.5644 
        1.92056         60.3947         7.50579 
         1.9267         60.2575         7.44774 
        1.93284         59.8522         7.39027 
        1.93897         59.5595         7.33352 
        1.94509         59.2908         7.27749 
        1.95123         59.0191          7.2219 
        1.95737         58.8058         7.16686 
        1.96349         58.3493         7.11253 
        1.96964          58.248         7.05861 
        1.97578          57.946         7.00522 
        1.98192         57.6507          6.9525 
        1.98805         57.4805         6.90031 
        1.99419         57.0273         6.84866 
        2.00033         56.7879         6.79751 
        2.00647         56.5889         6.74689 
         2.0126         56.1173         6.69688 
        2.01874         55.9369          6.6473 
        2.02488         55.7575         6.59818 
        2.03101         55.4691         6.54965 
        2.03714         55.1653         6.50165 
        2.04328         54.9576         6.45408 
        2.04941          54.629         6.40702 
        2.05554         54.3642         6.36047 
        2.06167         54.1079         6.31432 
        2.06781         53.8889         6.26862 
        2.07396         53.5597         6.22331 
        2.08009         53.4134         6.17852 
        2.08622         53.1109         6.13423 
        2.09237         52.7864         6.09029 
        2.09851         52.6723         6.04677 
        2.10464         52.3166         6.00374 
        2.11077         52.0345         5.96119 
        2.11691         51.7899         5.91896 
        2.12305         51.6135         5.87714 
        2.12918         51.3696         5.83582 
        2.13531         51.0463         5.79489 
        2.14145         50.8033         5.75426 
         2.1476         50.6305         5.71398 
        2.15372         50.3424         5.67428 
        2.15985         50.0971         5.63493 
        2.16599         49.8561         5.59583 
        2.17213         49.6779         5.55714 
        2.17827         49.4186         5.51884 
         2.1844         49.1347         5.48092 
        2.19054          48.869         5.44335 
        2.19666         48.6364         5.40619 
         2.2028         48.5358         5.36934 
        2.20893         48.3221         5.33282 
        2.21508         48.0533         5.29659 
        2.22122         47.8259         5.26069 
        2.22736         47.6507          5.2252 
        2.23349         47.4204         5.19005 
        2.23962         47.0526          5.1552 
        2.24577         46.8463         5.12064 
         2.2519         46.5884         5.08644 
        2.25802         46.5355         5.05262 
        2.26417         46.2088         5.01901 
        2.27031          46.049         4.98567 
        2.27644         45.8395         4.95273 
        2.28257         45.5637         4.92009 
        2.28872          45.272         4.88769 
        2.29486         45.1856         4.85558 
        2.30099         45.0083         4.82383 
        2.30712         44.7736         4.79235 
        2.31326         44.4912          4.7611 
         2.3194         44.2473         4.73014 
        2.32553         44.0484         4.69951 
        2.33166         43.8912         4.66917 
         2.3378         43.6257         4.63905 
        2.34394         43.4263         4.60919 
        2.35007         43.1797         4.57963 
        2.35619         43.0228         4.55037 
        2.36233         42.9299         4.52129 
        2.36848         42.6453         4.49241 
        2.37462         42.4385         4.46385 
        2.38075         42.2811         4.43556 
        2.38689         42.1144         4.40749 
        2.39303         41.8865         4.37967 
        2.39916         41.6653         4.35212 
        2.40529         41.4992         4.32481 
        2.41143         41.3326         4.29771 
        2.41757          41.091         4.27083 
         2.4237         40.9951         4.24424 
        2.42983          40.748         4.21787 
        2.43598         40.5218         4.19166 
        2.44211         40.3871         4.16571 
        2.44823         40.1709         4.14004 
        2.45437         40.0038         4.11452 
        2.46052         39.7172         4.08919 
        2.46665         39.5902         4.06412 
        2.47279         39.4576         4.03927 
        2.47892         39.2648         4.01461 
        2.48507         39.0499         3.99013 
         2.4912         38.9307         3.96591 
