# k  (h/Mpc)    P(k)  (Mpc/h)^3    P_linear(k)  (Mpc/h)^3
     0.00783031         4426.27          4456.3 
       0.013688         5713.18         5813.87 
       0.019231         6142.29         6200.38 
      0.0249154         6049.33         6052.14 
      0.0312784          5521.7         5559.25 
      0.0375637         4922.85         4979.75 
      0.0433917         4472.01         4488.82 
      0.0492413         4047.73         4089.28 
      0.0555754         3744.02         3760.46 
      0.0619321         3418.35         3505.36 
       0.067871         3248.51         3296.15 
      0.0738098         3050.51         3085.68 
      0.0800417         2823.53         2848.84 
      0.0862327          2566.6         2600.54 
      0.0921407          2337.3         2365.95 
      0.0982031         2136.96         2145.16 
       0.104506         1924.57          1951.1 
       0.110769         1780.45         1799.25 
       0.116806         1695.09         1687.71 
       0.122832         1590.23         1600.82 
       0.129052          1519.9          1524.3 
       0.135211         1461.81         1450.46 
       0.141259         1371.09         1373.07 
       0.147318         1273.66         1289.25 
       0.153489         1199.18         1200.51 
       0.159709         1132.61         1113.45 
       0.165845         1035.53         1035.58 
       0.171974         1000.13         969.384 
       0.178125         953.087         915.417 
       0.184229         891.292           872.5 
        0.19034         869.611           836.8 
       0.196428         840.301         804.629 
       0.202534         790.992         772.521 
       0.208729         772.934         738.185 
       0.214876         743.207         702.107 
       0.220989         693.645         665.351 
       0.227147         676.258         629.265 
        0.23329         648.749         595.981 
       0.239377         630.465         566.846 
       0.245482         598.595         541.766 
       0.251667         574.637         520.088 
       0.257832         567.843         501.172 
       0.263955         538.444         483.821 
       0.270079         521.397         466.838 
        0.27624         499.544         449.505 
       0.282372          487.19         431.846 
        0.28843         482.917         414.289 
       0.294538         459.447         396.988 
       0.300721         442.194         380.442 
        0.30691          434.93         365.251 
       0.313033         417.127         351.714 
       0.319153          409.75          339.57 
       0.325316         398.484          328.43 
        0.33145         388.888         318.063 
       0.337538         376.313         308.138 
       0.343633          365.08         298.337 
       0.349808         355.281         288.462 
       0.355968         347.437         278.704 
       0.362074          339.31         269.268 
       0.368217         333.888         260.161 
       0.374374         326.699         251.559 
       0.380519         313.475         243.554 
       0.386598         308.263          236.19 
       0.392688         301.308           229.3 
        0.39888          294.52         222.668 
       0.405048          289.28         216.332 
       0.411186         285.892         210.208 
       0.417313         279.915         204.219 
       0.423458         272.667         198.346 
       0.429607         267.368         192.621 
       0.435692         262.353         187.146 
       0.441815         256.915          181.87 
       0.447964         250.085         176.827 
       0.454126          245.99         172.026 
       0.460267         243.569         167.482 
       0.466387         238.884         163.158 
        0.47254         236.124         158.976 
       0.478662         228.914         154.949 
       0.484765         226.147         151.052 
       0.490885         222.567         147.249 
       0.497035         220.582          143.53 
       0.503198         216.743         139.921 
       0.509342          211.15         136.447 
       0.515458         209.195         133.118 
       0.521598         204.356         129.902 
       0.527764         202.147           126.8 
       0.533884          201.55         123.837 
           0.54         196.576          120.98 
       0.546137         192.234         118.203 
       0.552299         190.609         115.496 
       0.558452         187.289         112.873 
       0.564573         186.389         110.339 
       0.570708         181.834         107.871 
       0.576825         179.619         105.484 
       0.582926          177.74         103.176 
       0.589034         175.369          100.94 
       0.595184         173.814         98.7628 
       0.601379         169.681         96.6399 
       0.607522          167.37         94.5994 
       0.613639         165.996         92.6273 
       0.619772          163.92         90.7064 
       0.625918         162.571         88.8358 
       0.632068         159.324         87.0162 
       0.638161         157.152         85.2628 
         0.6443         156.556         83.5443 
       0.650464         153.801         81.8667 
       0.656582         153.101         80.2478 
       0.662703         151.427         78.6735 
       0.668861         148.392         77.1346 
       0.675024          148.46         75.6374 
       0.681124         146.059         74.1965 
       0.687237         143.516         72.7909 
       0.693381         143.045         71.4154 
       0.699536         141.226         70.0727 
       0.705665         139.178           68.77 
       0.711789          137.57         67.5015 
       0.717957         136.205         66.2565 
        0.72409         135.426         65.0502 
       0.730186         134.509          63.882 
       0.736317         132.137         62.7367 
       0.742472         130.784          61.616 
       0.748622         128.902         60.5241 
        0.75476         128.493         59.4615 
       0.760888         127.709         58.4263 
       0.767043         125.582         57.4118 
       0.773185         124.227         56.4236 
       0.779291         122.916         55.4645 
       0.785407         121.435         54.5265 
       0.791564         121.306         53.6045 
       0.797719         120.016         52.7046 
       0.803834          118.96         51.8312 
       0.809972          118.37         50.9749 
       0.816124         116.981         50.1362 
       0.822261         115.546          49.319 
       0.828378          115.31         48.5227 
       0.834502         113.439         47.7434 
       0.840667             113         46.9765 
       0.846816         111.948         46.2287 
       0.852925         110.911         45.5021 
       0.859047         110.333         44.7897 
       0.865192         108.891         44.0904 
       0.871341         107.785         43.4056 
       0.877463         107.215         42.7386 
       0.883569         106.895         42.0875 
       0.889708         106.015         41.4468 
       0.895864         104.985         40.8178 
       0.902008         104.176         40.2034 
       0.908149         102.987         39.6021 
       0.914301         102.756         39.0122 
       0.920448         102.129          38.435 
       0.926574         100.374         37.8717 
       0.932687         100.087         37.3209 
       0.938823          99.259         36.7793 
       0.944975         98.1995         36.2472 
       0.951105          97.471         35.7277 
       0.957225         97.4759         35.2193 
       0.963368         96.3562         34.7193 
       0.969511         95.4963          34.229 
       0.975621         94.9048         33.7509 
       0.981748         94.0063         33.2808 
       0.987916         93.3758         32.8168 
        0.99406           92.95         32.3634 
        1.00019         91.9676         31.9196 
        1.00632         91.4626         31.4846 
        1.01246         90.8077         31.0572 
        1.01859         90.4303         30.6384 
        1.02471         89.4081          30.228 
        1.03085          88.879         29.8237 
        1.03698         88.3465         29.4278 
        1.04314         87.7919         29.0374 
        1.04929         87.2359          28.655 
        1.05541         86.6481         28.2812 
        1.06154          86.205         27.9131 
        1.06769         85.2056         27.5512 
        1.07382         84.7781         27.1968 
        1.07993         84.3958         26.8496 
        1.08607         83.6722          26.507 
        1.09222         83.4379         26.1701 
        1.09836         82.6613         25.8395 
        1.10449         82.1901         25.5151 
        1.11063         81.5211         25.1958 
        1.11677         81.3511         24.8823 
         1.1229         80.5177         24.5746 
        1.12903         80.3908         24.2719 
        1.13518         80.0897         23.9741 
        1.14131         79.2949         23.6814 
        1.14745           78.52         23.3939 
        1.15359          77.906         23.1112 
        1.15973         77.7711          22.833 
        1.16584         77.2558         22.5607 
        1.17197          76.475         22.2924 
        1.17811         76.1989         22.0278 
        1.18424         75.4011         21.7682 
        1.19038         75.3411         21.5121 
        1.19652         74.9954         21.2603 
        1.20267         74.4169         21.0125 
        1.20881         73.9041         20.7688 
        1.21495         73.6406         20.5293 
        1.22108         73.2272         20.2937 
         1.2272         72.6877         20.0623 
        1.23334         72.2938         19.8341 
        1.23949         71.9152         19.6089 
        1.24562         71.3352         19.3878 
        1.25174         70.9373         19.1706 
        1.25789         71.0185          18.956 
        1.26402         70.3364          18.745 
        1.27014          69.913         18.5379 
        1.27628         69.3457         18.3333 
        1.28244         69.1397         18.1313 
        1.28858         68.7309         17.9328 
        1.29471         68.4698         17.7376 
        1.30084         67.8731         17.5456 
        1.30697          67.771         17.3561 
        1.31312         67.1443         17.1692 
        1.31925         66.7391         16.9856 
        1.32537         66.4619         16.8049 
        1.33151         66.1158         16.6262 
        1.33765         65.7572         16.4503 
        1.34378         65.5423         16.2772 
        1.34992         65.0665         16.1066 
        1.35606         64.6808          15.938 
         1.3622         64.2604         15.7721 
        1.36833         63.8993          15.609 
        1.37445         63.4801         15.4484 
        1.38059         63.3432         15.2894 
        1.38675         62.6858         15.1324 
        1.39288         62.6779         14.9782 
        1.39901         62.1983         14.8263 
        1.40515          61.947         14.6761 
         1.4113         61.8574         14.5281 
        1.41742         61.4631         14.3826 
        1.42355         60.8953          14.239 
         1.4297         60.5969         14.0968 
        1.43585         60.1948         13.9567 
        1.44198         59.9088          13.819 
        1.44809         59.6391         13.6835 
        1.45423         59.4098         13.5493 
        1.46036         59.0876         13.4171 
        1.46649         58.9265         13.2867 
        1.47263         58.4795         13.1579 
        1.47877         58.2633         13.0308 
        1.48491         58.0547         12.9053 
        1.49104         57.5803         12.7817 
        1.49718         57.3265         12.6596 
        1.50333         57.1621          12.539 
        1.50947         56.6973         12.4201 
         1.5156         56.5007          12.303 
        1.52172         56.0969         12.1875 
        1.52787         55.8598         12.0731 
          1.534         55.6469         11.9604 
        1.54013         55.4171         11.8493 
        1.54627           54.95         11.7393 
        1.55241         54.7343         11.6308 
        1.55855         54.5763         11.5238 
        1.56467          54.282         11.4184 
         1.5708         54.0757         11.3141 
        1.57695         53.7746         11.2109 
        1.58308         53.3454         11.1092 
        1.58922         53.1432         11.0087 
        1.59535         52.9815         10.9096 
         1.6015         52.8575         10.8115 
        1.60764         52.5449         10.7146 
        1.61376         52.1869         10.6193 
        1.61989         51.9072          10.525 
        1.62604         51.7102         10.4316 
        1.63218         51.4221         10.3395 
        1.63831         51.3297         10.2487 
        1.64444         50.9586         10.1589 
        1.65059         50.7886           10.07 
        1.65673         50.4211         9.98231 
        1.66285           50.37         9.89588 
        1.66898         49.8661         9.81046 
        1.67512         49.8202         9.72588 
        1.68127          49.546         9.64222 
         1.6874         49.2866         9.55975 
        1.69353         49.1245         9.47829 
        1.69967         48.9402         9.39759 
        1.70581         48.4772         9.31787 
        1.71193         48.3162         9.23938 
        1.71806         48.1917         9.16163 
        1.72421         47.9726         9.08463 
        1.73035         47.6861         9.00861 
        1.73649         47.3762         8.93348 
        1.74262         47.1119         8.85927 
        1.74876         46.8824         8.78585 
        1.75489         46.7572         8.71342 
        1.76101         46.5948         8.64184 
        1.76715         46.3967         8.57096 
        1.77329         46.0603          8.5008 
        1.77943         46.0554          8.4314 
        1.78557         45.7342         8.36287 
        1.79171         45.5594          8.2951 
        1.79785         45.3009         8.22807 
        1.80399         45.1147         8.16179 
        1.81012         44.9472         8.09634 
        1.81625         44.5922         8.03164 
        1.82239          44.438         7.96755 
        1.82853         44.3199         7.90419 
        1.83466         44.0573         7.84158 
        1.84078         43.8302         7.77972 
        1.84692         43.6249         7.71844 
        1.85306         43.4013         7.65773 
         1.8592         43.2686         7.59778 
        1.86533         43.0793         7.53851 
        1.87147         42.8699         7.47981 
        1.87761         42.6174          7.4217 
        1.88375         42.5787         7.36429 
        1.88988          42.275         7.30755 
        1.89601         42.0472         7.25137 
        1.90215         41.9316         7.19575 
        1.90829          41.721         7.14074 
        1.91442         41.4977          7.0863 
        1.92056         41.3266         7.03248 
         1.9267          41.195         6.97916 
        1.93284         40.9449         6.92637 
        1.93897         40.7907         6.87423 
        1.94509         40.6212         6.82273 
        1.95123         40.4524         6.77164 
        1.95737         40.2353         6.72104 
        1.96349          40.024         6.67108 
        1.96964         39.9727         6.62149 
        1.97578         39.7213         6.57239 
        1.98192         39.5165         6.52388 
        1.98805         39.2673         6.47586 
        1.99419         39.2498         6.42832 
        2.00033         39.0017         6.38124 
        2.00647         38.8615         6.33465 
         2.0126         38.6391          6.2886 
        2.01874         38.4273         6.24294 
        2.02488         38.3493          6.1977 
        2.03101          38.084         6.15299 
        2.03714         37.9608         6.10876 
        2.04328         37.8265         6.06492 
        2.04941         37.6114         6.02155 
        2.05554         37.5229         5.97864 
        2.06167         37.2937         5.93609 
        2.06781         37.1712         5.89394 
        2.07396         37.0537         5.85215 
        2.08009         36.8583         5.81084 
        2.08622         36.6468         5.76997 
        2.09237         36.5298         5.72942 
        2.09851         36.2789         5.68925 
        2.10464         36.1277         5.64953 
        2.11077         36.0893         5.61024 
        2.11691         35.8743         5.57124 
        2.12305         35.7191         5.53261 
        2.12918         35.5413         5.49444 
        2.13531         35.4087         5.45663 
        2.14145         35.2515         5.41909 
         2.1476         35.0379         5.38186 
        2.15372         34.9126         5.34516 
        2.15985         34.8012         5.30878 
        2.16599         34.6208         5.27263 
        2.17213         34.5089         5.23685 
        2.17827         34.2937         5.20142 
         2.1844          34.168         5.16635 
        2.19054         34.0784         5.13159 
        2.19666         33.8617          5.0972 
         2.2028         33.7826          5.0631 
        2.20893          33.553         5.02929 
        2.21508          33.453         4.99576 
        2.22122         33.2989         4.96252 
        2.22736         33.1528         4.92965 
        2.23349         32.9847         4.89709 
        2.23962         32.9389         4.86481 
        2.24577          32.733         4.83279 
         2.2519         32.6135          4.8011 
        2.25802         32.4271         4.76975 
        2.26417         32.2734          4.7386 
        2.27031          32.208         4.70769 
        2.27644         32.1137         4.67715 
        2.28257         31.9386         4.64688 
        2.28872         31.8057         4.61683 
        2.29486         31.6438         4.58705 
        2.30099         31.4677         4.55759 
        2.30712         31.4292         4.52838 
        2.31326         31.2251         4.49938 
         2.3194         31.1452         4.47065 
        2.32553         30.9793         4.44222 
        2.33166         30.8214         4.41404 
         2.3378         30.7916         4.38608 
        2.34394         30.5982         4.35835 
        2.35007         30.5124          4.3309 
        2.35619         30.3321         4.30372 
        2.36233         30.2274         4.27671 
        2.36848         30.0814         4.24988 
        2.37462         29.9618         4.22333 
        2.38075         29.8147         4.19704 
        2.38689         29.6887         4.17095 
        2.39303         29.6455         4.14509 
        2.39916         29.4416         4.11947 
        2.40529         29.2683         4.09407 
        2.41143         29.2466         4.06887 
        2.41757         29.0487         4.04387 
         2.4237         28.9445         4.01913 
        2.42983         28.8496          3.9946 
        2.43598         28.7337          3.9702 
        2.44211         28.6218         3.94606 
        2.44823         28.4833         3.92216 
        2.45437         28.3877          3.8984 
        2.46052         28.2371         3.87482 
        2.46665         28.1511         3.85148 
        2.47279         27.9699         3.82833 
        2.47892         27.9059         3.80536 
        2.48507         27.7827         3.78256 
         2.4912         27.6954         3.75999 
