# k  (h/Mpc)    Pcb(k)  (Mpc/h)^3    Pcb_linear(k)  (Mpc/h)^3
     0.00783031           16492         16734.8 
       0.013688         18461.5         18289.8 
       0.019231         16523.9         16441.4 
      0.0249154           13156         13356.2 
      0.0312784         9999.74         10018.6 
      0.0375637         7678.53         7587.74 
      0.0433917         6178.11         6187.09 
      0.0492413         5448.42         5414.94 
      0.0555754         4917.12          4994.4 
      0.0619321         4765.26         4706.45 
       0.067871         4309.26         4365.39 
      0.0738098         3851.16         3888.66 
      0.0800417         3256.86         3292.55 
      0.0862327         2739.59         2715.08 
      0.0921407          2351.8         2268.02 
      0.0982031          2019.3         1954.29 
       0.104506          1884.2         1773.01 
       0.110769         1779.33          1694.2 
       0.116806          1720.6         1658.17 
       0.122832         1665.74         1611.04 
       0.129052         1539.48         1518.31 
       0.135211         1414.77         1379.62 
       0.141259         1295.38         1219.65 
       0.147318         1164.21         1065.71 
       0.153489         1033.92         939.329 
       0.159709         960.187         853.162 
       0.165845         917.153         805.166 
       0.171974         879.086         781.625 
       0.178125         850.392          766.52 
       0.184229         819.502          745.76 
        0.19034         766.033         711.132 
       0.196428         737.037         662.822 
       0.202534         697.311         606.923 
       0.208729         646.075          551.63 
       0.214876         604.892         505.533 
       0.220989         575.835          471.77 
       0.227147         550.898         449.324 
        0.23329         529.197         434.963 
       0.239377         518.639          423.93 
       0.245482         483.724         411.744 
       0.251667         478.755         395.538 
       0.257832         457.796         375.216 
       0.263955         438.208         352.606 
       0.270079         416.289         330.083 
        0.27624         407.363         309.903 
       0.282372         391.476          293.56 
        0.28843         378.875         281.178 
       0.294538          359.62         271.613 
       0.300721         356.188         263.463 
        0.30691          340.23         255.446 
       0.313033         332.318         246.669 
       0.319153         320.069         236.823 
       0.325316         311.057          226.13 
        0.33145          299.58         215.461 
       0.337538         293.566         205.545 
       0.343633         283.227         196.782 
       0.349808         272.538         189.249 
       0.355968          268.82         182.866 
       0.362074         263.688         177.292 
       0.368217          255.86          171.96 
       0.374374         244.663         166.576 
       0.380519         242.217         160.992 
       0.386598          235.48         155.288 
       0.392688         231.859         149.591 
        0.39888         225.705          144.01 
       0.405048         219.648         138.848 
       0.411186         215.266         134.205 
       0.417313         210.573         130.013 
       0.423458         205.391         126.162 
       0.429607          201.75         122.541 
       0.435692         195.641         119.049 
       0.441815         193.387         115.552 
       0.447964         189.032         112.061 
       0.454126          182.84         108.602 
       0.460267         179.725         105.245 
       0.466387         177.155         102.055 
        0.47254         173.013         99.0472 
       0.478662          172.44         96.2431 
       0.484765         165.925         93.6119 
       0.490885         163.652         91.1106 
       0.497035         160.776         88.6977 
       0.503198         157.304         86.3424 
       0.509342         155.571         84.0356 
       0.515458         152.966         81.7897 
       0.521598          149.28         79.6008 
       0.527764         147.755         77.4812 
       0.533884         145.518          75.461 
           0.54         142.927         73.5291 
       0.546137         141.686         71.6789 
       0.552299         138.711         69.9046 
       0.558452         137.363         68.2012 
       0.564573         135.067         66.5597 
       0.570708         131.971         64.9569 
       0.576825         130.318         63.3999 
       0.582926         127.825         61.8918 
       0.589034         126.415         60.4295 
       0.595184         124.928         59.0074 
       0.601379          122.67         57.6251 
       0.607522         120.843         56.3013 
       0.613639         119.628         55.0274 
       0.619772         117.259         53.7923 
       0.625918         116.054         52.5944 
       0.632068         114.336         51.4332 
       0.638161          113.37         50.3172 
         0.6443         111.706         49.2252 
       0.650464         110.647         48.1598 
       0.656582         108.525         47.1319 
       0.662703         107.908          46.133 
       0.668861         105.971         45.1574 
       0.675024         104.457         44.2099 
       0.681124          103.66         43.3005 
       0.687237         101.953         42.4163 
       0.693381         100.347         41.5536 
       0.699536         99.6647         40.7141 
       0.705665         98.8531         39.9016 
       0.711789         97.2211         39.1119 
       0.717957         97.0569         38.3379 
        0.72409         95.2611         37.5887 
       0.730186         93.9307         36.8638 
       0.736317         93.0917         36.1539 
       0.742472         92.2634         35.4602 
       0.748622         91.2622         34.7854 
        0.75476         90.3129         34.1298 
       0.760888         89.2844         33.4924 
       0.767043         88.7003         32.8689 
       0.773185         87.8545         32.2628 
       0.779291          86.202         31.6756 
       0.785407         85.7898         31.1023 
       0.791564         85.2933         30.5397 
       0.797719         83.3477         29.9913 
       0.803834         83.0089           29.46 
       0.809972         82.2126         28.9396 
       0.816124         81.6074         28.4308 
       0.822261           80.91         27.9356 
       0.828378         80.2839         27.4538 
       0.834502         79.7073         26.9829 
       0.840667          78.485         26.5201 
       0.846816         77.5785         26.0695 
       0.852925         77.0394         25.6322 
       0.859047         76.1951         25.2041 
       0.865192         75.5972         24.7844 
       0.871341         74.9077          24.374 
       0.877463         73.9305         23.9748 
       0.883569         73.8585         23.5856 
       0.889708         72.9562         23.2031 
       0.895864          72.331         22.8282 
       0.902008         71.7362         22.4623 
       0.908149          71.332         22.1047 
       0.914301         70.5285         21.7544 
       0.920448         69.9936          21.412 
       0.926574         69.3519         21.0783 
       0.932687         69.2742         20.7523 
       0.938823         68.2276         20.4322 
       0.944975           67.55         20.1181 
       0.951105         67.0249         19.8117 
       0.957225         66.5698         19.5123 
       0.963368          65.749         19.2181 
       0.969511         65.6351         18.9299 
       0.975621         65.1644         18.6493 
       0.981748         64.6794         18.3736 
       0.987916         63.9924         18.1018 
        0.99406         63.5794         17.8365 
        1.00019         63.2608         17.5771 
        1.00632         62.5686         17.3231 
        1.01246         62.2868         17.0738 
        1.01859          61.625         16.8298 
        1.02471         61.1213         16.5909 
        1.03085         60.5897         16.3558 
        1.03698         60.3733         16.1257 
        1.04314         59.8296         15.8991 
        1.04929          59.457         15.6775 
        1.05541         58.7849         15.4609 
        1.06154         58.7527         15.2479 
        1.06769         58.2943         15.0386 
        1.07382          57.859         14.8339 
        1.07993         57.5872         14.6336 
        1.08607         57.0091         14.4361 
        1.09222         56.8709          14.242 
        1.09836         56.2738         14.0518 
        1.10449         56.0292         13.8653 
        1.11063         55.5454         13.6819 
        1.11677         55.1502          13.502 
         1.1229         54.7354         13.3256 
        1.12903         54.3376         13.1522 
        1.13518         54.2198         12.9818 
        1.14131         53.8661         12.8145 
        1.14745         53.4892         12.6502 
        1.15359         53.1263         12.4888 
        1.15973         52.7492         12.3302 
        1.16584         52.3239          12.175 
        1.17197         51.9874         12.0223 
        1.17811         51.8437         11.8717 
        1.18424         51.2958         11.7242 
        1.19038         51.1616         11.5787 
        1.19652         50.8243         11.4358 
        1.20267         50.2453         11.2953 
        1.20881         50.1566         11.1572 
        1.21495          49.691         11.0217 
        1.22108         49.6989         10.8884 
         1.2272         49.0043         10.7576 
        1.23334         48.7611         10.6287 
        1.23949         48.6481         10.5016 
        1.24562         48.2055         10.3769 
        1.25174         48.0444         10.2545 
        1.25789         47.8561         10.1336 
        1.26402         47.3045         10.0149 
        1.27014         47.1826         9.89845 
        1.27628          46.867         9.78347 
        1.28244         46.6033         9.67009 
        1.28858         46.4322         9.55866 
        1.29471         46.1988         9.44923 
        1.30084         45.9052         9.34162 
        1.30697         45.5761         9.23553 
        1.31312         45.2945         9.13092 
        1.31925         45.0291         9.02828 
        1.32537         44.8005         8.92731 
        1.33151         44.4607         8.82753 
        1.33765         44.3205         8.72933 
        1.34378         44.0953         8.63283 
        1.34992         43.7676         8.53772 
        1.35606         43.5409         8.44384 
         1.3622         43.3037         8.35154 
        1.36833         43.1292         8.26084 
        1.37445         42.7893         8.17154 
        1.38059         42.5112         8.08329 
        1.38675         42.3062         7.99613 
        1.39288         42.1341         7.91061 
        1.39901         41.9436         7.82638 
        1.40515         41.6107         7.74319 
         1.4113         41.4197         7.66124 
        1.41742         41.3186         7.58079 
        1.42355         41.0428         7.50135 
         1.4297         40.9037         7.42281 
        1.43585         40.7101         7.34543 
        1.44198         40.3438         7.26945 
        1.44809         40.2157         7.19468 
        1.45423         40.0323         7.12069 
        1.46036         39.8013         7.04788 
        1.46649          39.617         6.97606 
        1.47263         39.3914         6.90518 
        1.47877         39.0921         6.83532 
        1.48491         39.0643         6.76632 
        1.49104         38.7835         6.69841 
        1.49718         38.5092         6.63138 
        1.50333          38.535         6.56517 
        1.50947          38.196         6.49999 
         1.5156         38.0509          6.4358 
        1.52172         37.8881         6.37247 
        1.52787         37.7329         6.30987 
          1.534         37.4391         6.24818 
        1.54013         37.2422         6.18739 
        1.54627         37.1819         6.12729 
        1.55241         36.8173         6.06799 
        1.55855         36.7258         6.00955 
        1.56467         36.4863         5.95204 
         1.5708          36.467         5.89513 
        1.57695         36.2719         5.83887 
        1.58308         36.0595         5.78348 
        1.58922         35.8158         5.72877 
        1.59535         35.7287         5.67478 
         1.6015         35.4519         5.62142 
        1.60764         35.2903         5.56877 
        1.61376         35.1583         5.51693 
        1.61989         35.0067         5.46572 
        1.62604          34.772         5.41504 
        1.63218         34.7601         5.36504 
        1.63831         34.4786         5.31578 
        1.64444         34.3493         5.26713 
        1.65059         34.3485         5.21896 
        1.65673         34.0059         5.17146 
        1.66285          33.803         5.12467 
        1.66898         33.7602         5.07845 
        1.67512         33.4766         5.03272 
        1.68127         33.3935          4.9875 
         1.6874         33.1891         4.94294 
        1.69353         33.0526         4.89895 
        1.69967         32.9203         4.85539 
        1.70581         32.8373         4.81238 
        1.71193         32.6609         4.77005 
        1.71806         32.3797         4.72814 
        1.72421         32.3786         4.68665 
        1.73035         32.1859         4.64571 
        1.73649         31.9751         4.60526 
        1.74262          31.803         4.56533 
        1.74876         31.6474         4.52584 
        1.75489         31.5816          4.4869 
        1.76101         31.4733         4.44843 
        1.76715         31.3012         4.41036 
        1.77329         31.1407         4.37269 
        1.77943         31.0087         4.33545 
        1.78557         30.8306         4.29869 
        1.79171         30.7674         4.26235 
        1.79785         30.5615         4.22643 
        1.80399         30.5326         4.19092 
        1.81012         30.3011         4.15587 
        1.81625         30.1951         4.12124 
        1.82239         30.0316         4.08695 
        1.82853         29.9569         4.05307 
        1.83466         29.6942          4.0196 
        1.84078         29.5539         3.98655 
        1.84692         29.5133         3.95382 
        1.85306         29.3472         3.92141 
         1.8592          29.215         3.88942 
        1.86533         29.0786          3.8578 
        1.87147         28.9754         3.82649 
        1.87761         28.8368         3.79552 
        1.88375         28.7257         3.76493 
        1.88988         28.6028         3.73471 
        1.89601         28.4598          3.7048 
        1.90215         28.4037          3.6752 
        1.90829         28.3034         3.64594 
        1.91442         28.1496         3.61699 
        1.92056         27.9556         3.58838 
         1.9267         27.9436         3.56005 
        1.93284         27.6863         3.53201 
        1.93897          27.636         3.50433 
        1.94509         27.5226           3.477 
        1.95123         27.3858         3.44989 
        1.95737         27.2367         3.42306 
        1.96349         27.1787         3.39657 
        1.96964         27.0353         3.37029 
        1.97578         26.8817         3.34428 
        1.98192         26.8201         3.31859 
        1.98805         26.7141         3.29317 
        1.99419         26.6113         3.26802 
        2.00033         26.4574         3.24311 
        2.00647         26.3975         3.21847 
         2.0126         26.2219         3.19413 
        2.01874         26.1451            3.17 
        2.02488         26.0644          3.1461 
        2.03101         25.9241         3.12249 
        2.03714          25.846         3.09915 
        2.04328         25.6708         3.07601 
        2.04941         25.5984         3.05314 
        2.05554         25.4873         3.03051 
        2.06167         25.3972         3.00808 
        2.06781         25.2776         2.98587 
        2.07396         25.2046         2.96386 
        2.08009         25.0367          2.9421 
        2.08622         24.9045         2.92059 
        2.09237         24.8816         2.89925 
        2.09851         24.7859         2.87812 
        2.10464         24.6446         2.85724 
        2.11077         24.5901         2.83659 
        2.11691         24.4119         2.81609 
        2.12305         24.3242          2.7958 
        2.12918         24.2294         2.77576 
        2.13531         24.1688         2.75591 
        2.14145         24.0246         2.73621 
         2.1476         23.9245         2.71668 
        2.15372         23.8407         2.69744 
        2.15985         23.8145         2.67836 
        2.16599         23.6376         2.65941 
        2.17213         23.6053         2.64067 
        2.17827         23.4601         2.62211 
         2.1844         23.3925         2.60375 
        2.19054         23.2902         2.58556 
        2.19666         23.1551         2.56756 
         2.2028         23.0857         2.54973 
        2.20893         23.0395         2.53205 
        2.21508         22.9319         2.51452 
        2.22122         22.7915         2.49715 
        2.22736         22.7424         2.47998 
        2.23349         22.5911         2.46297 
        2.23962         22.5544         2.44612 
        2.24577         22.4351         2.42941 
         2.2519         22.3591         2.41288 
        2.25802         22.2843         2.39652 
        2.26417         22.1729         2.38028 
        2.27031         22.0492         2.36417 
        2.27644         21.9946         2.34825 
        2.28257         21.9142         2.33248 
        2.28872         21.8409         2.31683 
        2.29486         21.7235         2.30132 
        2.30099         21.6312         2.28599 
        2.30712         21.5644         2.27079 
        2.31326         21.5018          2.2557 
         2.3194         21.3928         2.24076 
        2.32553         21.3266         2.22598 
        2.33166         21.2314         2.21133 
         2.3378          21.151          2.1968 
        2.34394         21.0613          2.1824 
        2.35007         20.9786         2.16814 
        2.35619         20.8955         2.15403 
        2.36233         20.7979         2.14001 
        2.36848         20.7177         2.12609 
        2.37462         20.6335         2.11232 
        2.38075         20.5775         2.09868 
        2.38689         20.4902         2.08515 
        2.39303         20.3925         2.07175 
        2.39916          20.289         2.05848 
        2.40529         20.2672         2.04532 
        2.41143         20.1797         2.03227 
        2.41757          20.078         2.01933 
         2.4237         20.0242         2.00652 
        2.42983         19.9045         1.99383 
        2.43598         19.8567         1.98121 
        2.44211         19.7548         1.96872 
        2.44823         19.6764         1.95637 
        2.45437         19.5841         1.94408 
        2.46052         19.5106          1.9319 
        2.46665         19.4543         1.91984 
        2.47279         19.3931         1.90788 
        2.47892         19.3194         1.89602 
        2.48507         19.2064         1.88425 
         2.4912         19.1413         1.87261 
