# k  (h/Mpc)    Pcb(k)  (Mpc/h)^3    Pcb_linear(k)  (Mpc/h)^3
     0.00783031           13274         13342.5 
       0.013688         16167.7         16573.9 
       0.019231         16558.6         16800.7 
      0.0249154         15508.1         15482.2 
      0.0312784         13154.2           13280 
      0.0375637         10965.1         11146.1 
      0.0433917         9512.14          9557.1 
      0.0492413         8315.12         8414.46 
      0.0555754         7575.74         7603.36 
      0.0619321         6827.86         7066.19 
       0.067871         6521.92         6655.24 
      0.0738098         6135.45         6218.11 
      0.0800417         5616.16         5676.87 
      0.0862327         4998.63         5070.37 
      0.0921407         4462.94         4484.16 
      0.0982031         3999.12         3940.29 
       0.104506         3509.17         3485.74 
       0.110769         3217.82         3161.75 
       0.116806         3064.68         2955.31 
       0.122832         2891.26         2820.19 
       0.129052         2763.64         2713.52 
       0.135211          2696.6         2603.03 
       0.141259         2513.39         2467.06 
       0.147318          2327.6         2299.24 
       0.153489         2172.58         2107.82 
       0.159709         2053.21         1915.31 
       0.165845         1856.44         1746.03 
       0.171974         1791.72         1610.08 
       0.178125         1715.38         1509.88 
       0.184229         1586.98         1440.92 
        0.19034         1564.95         1391.54 
       0.196428         1523.02         1349.45 
       0.202534         1431.83         1303.62 
       0.208729         1407.65            1247 
       0.214876         1343.77         1180.06 
       0.220989         1264.51         1106.99 
       0.227147         1225.82         1033.45 
        0.23329         1172.03         966.556 
       0.239377         1156.91         910.823 
       0.245482         1096.85         866.685 
       0.251667         1056.49         832.432 
       0.257832         1041.59         805.382 
       0.263955         991.981         781.467 
       0.270079         962.422         756.905 
        0.27624         923.266         729.434 
       0.282372          908.19         698.864 
        0.28843         895.899         666.612 
       0.294538          850.56         633.983 
       0.300721         829.853         602.919 
        0.30691         811.932         575.365 
       0.313033         776.818         552.169 
       0.319153         766.664         532.775 
       0.325316         755.728         516.038 
        0.33145         738.806         500.923 
       0.337538         712.925         486.219 
       0.343633         694.951         471.013 
       0.349808          679.41         454.822 
       0.355968         666.842         438.087 
       0.362074         643.644         421.502 
       0.368217         641.521         405.436 
       0.374374         630.788         390.539 
       0.380519         606.274         377.119 
       0.386598         601.238         365.283 
       0.392688         586.678          354.62 
        0.39888         572.285         344.576 
       0.405048         561.232         334.999 
       0.411186         560.026         325.558 
       0.417313         554.644          316.05 
       0.423458         538.167         306.474 
       0.429607         523.129         296.952 
       0.435692         516.813         287.779 
       0.441815         507.281         279.002 
       0.447964         498.556         270.748 
       0.454126         492.783         263.054 
       0.460267         484.877         255.943 
       0.466387         476.309         249.282 
        0.47254         469.432         242.867 
       0.478662         460.598         236.662 
       0.484765         455.328         230.593 
       0.490885         450.594         224.578 
       0.497035         441.256          218.62 
       0.503198          441.12         212.803 
       0.509342         431.449         207.213 
       0.515458         423.511         201.886 
       0.521598         418.968         196.789 
       0.527764         411.445         191.932 
       0.533884         408.529         187.346 
           0.54         403.837         182.946 
       0.546137         396.012         178.668 
       0.552299          394.97         174.482 
       0.558452         388.533         170.405 
       0.564573         385.484         166.446 
       0.570708         380.319         162.573 
       0.576825         373.276         158.817 
       0.582926         371.576         155.193 
       0.589034         365.423         151.697 
       0.595184         362.878         148.317 
       0.601379         357.247         145.039 
       0.607522         350.406         141.899 
       0.613639         349.468         138.867 
       0.619772         348.064         135.913 
       0.625918          341.58         133.034 
       0.632068         338.686         130.231 
       0.638161          336.18         127.526 
         0.6443         331.808         124.871 
       0.650464         327.944         122.278 
       0.656582         324.978         119.778 
       0.662703         322.933         117.351 
       0.668861         317.168         114.985 
       0.675024         315.868         112.692 
       0.681124         311.389         110.489 
       0.687237         309.688         108.344 
       0.693381         305.377         106.245 
       0.699536         303.998         104.194 
       0.705665         300.534         102.203 
       0.711789         298.396         100.263 
       0.717957          295.04         98.3591 
        0.72409         291.342         96.5154 
       0.730186         293.177         94.7317 
       0.736317         287.801         92.9861 
       0.742472         285.273         91.2804 
       0.748622         282.548         89.6209 
        0.75476         281.683         88.0074 
       0.760888         278.485         86.4365 
       0.767043         275.446         84.8976 
       0.773185         273.759         83.3989 
       0.779291         270.313         81.9444 
       0.785407         269.182         80.5222 
       0.791564         266.863         79.1248 
       0.797719         262.541         77.7614 
       0.803834         264.476         76.4392 
       0.809972         260.535         75.1437 
       0.816124         257.216          73.876 
       0.822261         255.323         72.6416 
       0.828378         254.679         71.4398 
       0.834502         251.041         70.2646 
       0.840667         251.342         69.1085 
       0.846816         246.582         67.9821 
       0.852925         246.797          66.888 
       0.859047         244.454         65.8158 
       0.865192          243.82         64.7636 
       0.871341         240.651         63.7339 
       0.877463         238.779         62.7313 
       0.883569         237.871         61.7529 
       0.889708         235.643         60.7904 
       0.895864         233.324         59.8462 
       0.902008         231.702         58.9242 
       0.908149         229.834         58.0223 
       0.914301         228.344          57.138 
       0.920448          227.52         56.2732 
       0.926574         225.492         55.4294 
       0.932687          224.77         54.6049 
       0.938823          222.48         53.7944 
       0.944975         221.836         52.9986 
       0.951105         219.353         52.2219 
       0.957225         217.649         51.4623 
       0.963368         217.533         50.7153 
       0.969511         213.873         49.9833 
       0.975621         212.453         49.2697 
       0.981748          211.95         48.5684 
       0.987916         210.816         47.8765 
        0.99406         209.003         47.2007 
        1.00019         207.718         46.5394 
        1.00632         206.811         45.8916 
        1.01246         205.131         45.2552 
        1.01859         203.201         44.6319 
        1.02471         201.778         44.0213 
        1.03085         200.747         43.4201 
        1.03698         199.842         42.8315 
        1.04314         199.141         42.2514 
        1.04929         197.891         41.6835 
        1.05541         196.548         41.1283 
        1.06154         194.734          40.582 
        1.06769          193.61         40.0449 
        1.07382         192.692         39.5193 
        1.07993         190.877         39.0044 
        1.08607         190.127         38.4966 
        1.09222          188.52         37.9974 
        1.09836         187.993         37.5077 
        1.10449         186.412         37.0273 
        1.11063         185.178         36.5548 
        1.11677         184.188         36.0907 
         1.1229         183.131         35.6356 
        1.12903         181.715          35.188 
        1.13518         180.611         34.7477 
        1.14131         179.992         34.3152 
        1.14745           178.3         33.8905 
        1.15359         176.996         33.4728 
        1.15973         176.506         33.0621 
        1.16584         175.382         32.6601 
        1.17197         174.472         32.2644 
        1.17811         173.003         31.8739 
        1.18424          172.23         31.4912 
        1.19038         171.319         31.1136 
        1.19652         169.723         30.7425 
        1.20267         168.898         30.3774 
        1.20881         167.694         30.0184 
        1.21495           167.6         29.6657 
        1.22108         166.164         29.3189 
         1.2272         164.897         28.9784 
        1.23334         164.217         28.6426 
        1.23949         163.487         28.3114 
        1.24562         162.331         27.9863 
        1.25174         161.633         27.6669 
        1.25789         160.186         27.3515 
        1.26402         159.915         27.0416 
        1.27014          159.15         26.7373 
        1.27628         157.711         26.4369 
        1.28244         156.826         26.1404 
        1.28858         155.919          25.849 
        1.29471         154.945         25.5626 
        1.30084         154.031         25.2809 
        1.30697         152.966         25.0031 
        1.31312         152.217          24.729 
        1.31925         151.163         24.4599 
        1.32537         150.702         24.1951 
        1.33151         149.891         23.9334 
        1.33765         148.728         23.6756 
        1.34378         148.455         23.4222 
        1.34992         147.377         23.1723 
        1.35606         146.624         22.9256 
         1.3622         145.853         22.6829 
        1.36833         144.594         22.4443 
        1.37445         144.522         22.2093 
        1.38059         143.196          21.977 
        1.38675         142.521         21.7474 
        1.39288         141.502          21.522 
        1.39901         140.695            21.3 
        1.40515         140.315         21.0806 
         1.4113         139.238         20.8644 
        1.41742         138.478          20.652 
        1.42355         138.232         20.4422 
         1.4297         137.005         20.2348 
        1.43585         136.433         20.0303 
        1.44198         135.139         19.8294 
        1.44809         134.741         19.6317 
        1.45423          134.31         19.4359 
        1.46036         133.069         19.2432 
        1.46649         132.368         19.0531 
        1.47263           131.8         18.8654 
        1.47877         130.874         18.6803 
        1.48491         130.385         18.4974 
        1.49104         129.066         18.3173 
        1.49718         128.856         18.1396 
        1.50333         128.172         17.9639 
        1.50947         127.509         17.7909 
         1.5156         126.657         17.6205 
        1.52172         126.018         17.4523 
        1.52787          125.49          17.286 
          1.534         124.799          17.122 
        1.54013         124.015         16.9604 
        1.54627         123.226         16.8005 
        1.55241         122.913         16.6428 
        1.55855         122.217         16.4872 
        1.56467         121.457         16.3341 
         1.5708          120.37         16.1825 
        1.57695         120.268         16.0326 
        1.58308          119.29          15.885 
        1.58922         118.968         15.7391 
        1.59535         118.477         15.5951 
         1.6015         117.496         15.4528 
        1.60764         116.749         15.3122 
        1.61376          116.29         15.1738 
        1.61989         115.838         15.0371 
        1.62604         114.915         14.9017 
        1.63218          114.48          14.768 
        1.63831         113.757         14.6363 
        1.64444         112.975         14.5062 
        1.65059         112.496         14.3774 
        1.65673         112.292         14.2503 
        1.66285         111.667          14.125 
        1.66898         110.774         14.0013 
        1.67512         110.137         13.8788 
        1.68127         109.818         13.7576 
         1.6874         108.899         13.6382 
        1.69353         108.447         13.5202 
        1.69967         107.791         13.4034 
        1.70581         107.536          13.288 
        1.71193         106.776         13.1745 
        1.71806         106.073          13.062 
        1.72421         105.585         12.9506 
        1.73035         105.062         12.8406 
        1.73649          104.33          12.732 
        1.74262         104.081         12.6247 
        1.74876          103.29         12.5185 
        1.75489         103.019         12.4139 
        1.76101         102.326         12.3104 
        1.76715          101.65          12.208 
        1.77329         101.195         12.1066 
        1.77943         100.646         12.0064 
        1.78557         100.338         11.9074 
        1.79171         99.6962         11.8095 
        1.79785         98.9452         11.7127 
        1.80399         98.7677         11.6171 
        1.81012          97.874         11.5226 
        1.81625         97.4881         11.4292 
        1.82239         97.1141         11.3367 
        1.82853         96.4385         11.2453 
        1.83466         95.8265          11.155 
        1.84078         95.6689         11.0658 
        1.84692         95.3338         10.9774 
        1.85306         94.7245         10.8899 
         1.8592         94.2786         10.8034 
        1.86533         93.5496          10.718 
        1.87147         93.2964         10.6334 
        1.87761         92.3989         10.5496 
        1.88375         92.0665         10.4669 
        1.88988         91.4568         10.3851 
        1.89601         91.3624         10.3042 
        1.90215         90.8264         10.2241 
        1.90829         90.1154         10.1449 
        1.91442           89.64         10.0665 
        1.92056         89.3112         9.98899 
         1.9267         88.8474         9.91224 
        1.93284         88.3934         9.83625 
        1.93897         87.9551          9.7612 
        1.94509         87.5081          9.6871 
        1.95123          87.061         9.61359 
        1.95737         86.7891         9.54078 
        1.96349         86.3365         9.46893 
        1.96964         85.7836          9.3976 
        1.97578         85.2729         9.32698 
        1.98192         84.9219         9.25723 
        1.98805         84.3095         9.18819 
        1.99419         84.1888         9.11986 
        2.00033         83.4677         9.05218 
        2.00647         83.0967         8.98522 
         2.0126         82.7011         8.91904 
        2.01874         82.5718         8.85344 
        2.02488         81.9284         8.78844 
        2.03101         81.4644         8.72421 
        2.03714         81.1205         8.66069 
        2.04328         80.8796         8.59773 
        2.04941         80.4337         8.53546 
        2.05554         79.9074         8.47384 
        2.06167         79.3742         8.41275 
        2.06781         78.9694         8.35226 
        2.07396         78.5961         8.29228 
        2.08009         78.1304         8.23299 
        2.08622         77.9604         8.17435 
        2.09237         77.5073         8.11616 
        2.09851         76.8836         8.05854 
        2.10464         76.7675         8.00157 
        2.11077         76.3932         7.94522 
        2.11691         76.0562         7.88929 
        2.12305         75.5582          7.8339 
        2.12918         75.1809         7.77918 
        2.13531         74.7387         7.72497 
        2.14145         74.4264         7.67115 
         2.1476         74.1893         7.61779 
        2.15372         73.6275         7.56521 
        2.15985         73.2679         7.51306 
        2.16599         72.9591         7.46127 
        2.17213         72.5101         7.41002 
        2.17827         72.0238         7.35926 
         2.1844         71.8319         7.30902 
        2.19054         71.4485         7.25924 
        2.19666         71.1935         7.20999 
         2.2028         70.7946         7.16116 
        2.20893         70.4826         7.11276 
        2.21508         70.0406         7.06475 
        2.22122         69.6115         7.01717 
        2.22736         69.3586         6.97013 
        2.23349          68.943         6.92353 
        2.23962         68.7106         6.87734 
        2.24577         68.3525         6.83152 
         2.2519         67.9589         6.78619 
        2.25802         67.5979         6.74135 
        2.26417         67.2511         6.69678 
        2.27031         66.9695         6.65258 
        2.27644         66.5914          6.6089 
        2.28257         66.3164         6.56562 
        2.28872         65.8944         6.52265 
        2.29486         65.7885         6.48007 
        2.30099         65.2447         6.43796 
        2.30712          65.052         6.39621 
        2.31326         64.7818         6.35476 
         2.3194         64.3989          6.3137 
        2.32553         64.0034         6.27307 
        2.33166         63.7514         6.23282 
         2.3378         63.5052         6.19287 
        2.34394         63.1114         6.15325 
        2.35007         62.7979         6.11404 
        2.35619         62.5424         6.07522 
        2.36233          62.194         6.03665 
        2.36848         61.8539         5.99833 
        2.37462         61.5702         5.96043 
        2.38075         61.2919         5.92289 
        2.38689          60.863         5.88564 
        2.39303         60.7169         5.84872 
        2.39916         60.3481         5.81216 
        2.40529         60.1527         5.77591 
        2.41143         59.9017         5.73995 
        2.41757         59.4036         5.70428 
         2.4237         59.3117         5.66898 
        2.42983         58.9596         5.63398 
        2.43598         58.6692         5.59918 
        2.44211         58.3359         5.56473 
        2.44823         58.1886         5.53066 
        2.45437         57.7282         5.49677 
        2.46052         57.4762         5.46314 
        2.46665         57.1355         5.42986 
        2.47279         56.9291         5.39686 
        2.47892         56.7371         5.36411 
        2.48507         56.3759         5.33161 
         2.4912          56.144         5.29944 
