# k  (h/Mpc)    Pcb(k)  (Mpc/h)^3    Pcb_linear(k)  (Mpc/h)^3
     0.00783031         19427.6         19729.1 
       0.013688         24049.8         23794.9 
       0.019231         23694.5         23649.7 
      0.0249154         21025.7         21537.2 
      0.0312784         18228.7         18475.4 
      0.0375637         15729.2         15749.3 
      0.0433917         13536.3         13833.6 
      0.0492413           12344         12478.8 
      0.0555754         11005.7         11436.7 
      0.0619321         10533.5         10564.8 
       0.067871         9397.71         9727.69 
      0.0738098         8534.25         8809.14 
      0.0800417         7492.93         7803.36 
      0.0862327         6719.23         6863.61 
      0.0921407         6130.53         6107.35 
      0.0982031         5509.76         5513.19 
       0.104506         5239.04         5076.71 
       0.110769         4891.92         4770.47 
       0.116806         4627.79         4528.64 
       0.122832         4384.53         4284.07 
       0.129052         4019.84         3997.89 
       0.135211         3755.61         3682.56 
       0.141259         3559.12         3366.71 
       0.147318         3332.92         3074.89 
       0.153489         3053.66         2826.19 
       0.159709         2903.54          2632.9 
       0.165845         2819.27         2490.86 
       0.171974         2681.97         2379.67 
       0.178125         2555.93          2278.9 
       0.184229         2435.67         2174.28 
        0.19034         2304.64         2058.31 
       0.196428         2241.63         1933.96 
       0.202534         2141.66         1808.68 
       0.208729         2042.19         1690.75 
       0.214876         1966.07         1589.78 
       0.220989         1898.67         1507.26 
       0.227147         1827.73         1439.65 
        0.23329         1759.34         1382.31 
       0.239377         1734.38         1329.53 
       0.245482         1629.06         1276.04 
       0.251667         1618.39         1219.26 
       0.257832         1551.38         1160.75 
       0.263955         1497.77         1103.15 
       0.270079         1447.05         1048.86 
        0.27624         1428.27         999.725 
       0.282372         1370.46         956.923 
        0.28843         1366.78          920.03 
       0.294538         1299.81         886.661 
       0.300721         1290.77         855.014 
        0.30691         1243.49         823.951 
       0.313033         1217.41         793.143 
       0.319153         1200.46         762.312 
       0.325316         1160.48          731.87 
        0.33145         1135.59         702.949 
       0.337538          1112.7         676.265 
       0.343633         1091.57          651.77 
       0.349808         1055.22         629.135 
       0.355968         1047.02         608.241 
       0.362074         1038.44         588.678 
       0.368217         1004.14         569.679 
       0.374374          968.87         551.017 
       0.380519         971.698         532.766 
       0.386598         942.141         515.171 
       0.392688         938.054         498.222 
        0.39888         911.702         481.878 
       0.405048         901.964         466.551 
       0.411186         889.198         452.239 
       0.417313         870.465         438.768 
       0.423458         854.181         425.892 
       0.429607         845.401         413.502 
       0.435692         827.629         401.633 
       0.441815         819.722         390.018 
       0.447964         803.802         378.704 
       0.454126         798.275         367.775 
       0.460267          777.54         357.326 
       0.466387         767.572         347.367 
        0.47254         765.793         337.817 
       0.478662         755.478         328.747 
       0.484765         734.229         320.072 
       0.490885         729.803         311.689 
       0.497035         714.461         303.546 
       0.503198         710.209         295.653 
       0.509342         702.742         288.031 
       0.515458         699.027         280.689 
       0.521598         681.487         273.573 
       0.527764         670.303          266.69 
       0.533884         667.085         260.119 
           0.54         661.249         253.794 
       0.546137         653.833         247.669 
       0.552299         646.329         241.726 
       0.558452          640.43         235.989 
       0.564573         633.297         230.463 
       0.570708         625.766         225.095 
       0.576825         610.118         219.907 
       0.582926         612.688         214.893 
       0.589034         605.729          210.03 
       0.595184         600.273         205.292 
       0.601379         591.799         200.676 
       0.607522         583.377         196.246 
       0.613639         582.664         191.971 
       0.619772         572.017         187.814 
       0.625918         567.846         183.771 
       0.632068         560.513         179.843 
       0.638161         557.858         176.064 
         0.6443         549.208         172.367 
       0.650464         547.239         168.764 
       0.656582         541.351         165.291 
       0.662703          539.92         161.917 
       0.668861         531.403          158.62 
       0.675024         526.684         155.413 
       0.681124          522.94         152.328 
       0.687237         519.153         149.321 
       0.693381         511.946         146.381 
       0.699536         503.586         143.516 
       0.705665         503.157          140.74 
       0.711789         500.446         138.041 
       0.717957         495.993         135.394 
        0.72409         493.625         132.833 
       0.730186         486.262         130.354 
       0.736317         483.374         127.925 
       0.742472         480.066         125.549 
       0.748622         475.065         123.237 
        0.75476          468.01         120.988 
       0.760888         464.326         118.799 
       0.767043         463.949         116.655 
       0.773185         459.805          114.57 
       0.779291         454.708         112.547 
       0.785407         451.248          110.57 
       0.791564         446.724         108.629 
       0.797719         445.055         106.736 
       0.803834          439.14           104.9 
       0.809972         438.501         103.101 
       0.816124         436.862         101.341 
       0.822261         430.953         99.6268 
       0.828378         428.259         97.9577 
       0.834502         423.612         96.3257 
       0.840667         420.605         94.7206 
       0.846816         418.657         93.1569 
       0.852925         415.753         91.6386 
       0.859047         413.641         90.1512 
       0.865192         408.283         88.6921 
       0.871341         404.876         87.2646 
       0.877463         404.955         85.8751 
       0.883569         400.551         84.5196 
       0.889708         398.174         83.1867 
       0.895864         397.429         81.8792 
       0.902008         393.626         80.6028 
       0.908149         387.842         79.3545 
       0.914301         386.417         78.1307 
       0.920448         384.618         76.9341 
       0.926574         378.706         75.7668 
       0.932687         377.934         74.6263 
       0.938823         374.479         73.5054 
       0.944975          374.52          72.405 
       0.951105          370.36         71.3312 
       0.957225         367.859         70.2811 
       0.963368         363.509         69.2486 
       0.969511           362.6          68.237 
       0.975621         360.763         67.2511 
       0.981748         357.934         66.2822 
       0.987916         356.121         65.3264 
        0.99406          351.16          64.393 
        1.00019         349.155         63.4799 
        1.00632         347.926         62.5853 
        1.01246         345.034         61.7067 
        1.01859         344.739         60.8465 
        1.02471         340.062         60.0038 
        1.03085         338.756         59.1742 
        1.03698         336.858         58.3621 
        1.04314         334.421         57.5619 
        1.04929         331.043         56.7786 
        1.05541         331.721         56.0131 
        1.06154         326.249         55.2599 
        1.06769         325.304         54.5195 
        1.07382         322.571         53.7951 
        1.07993         321.183         53.0856 
        1.08607          320.24          52.386 
        1.09222         316.322         51.6984 
        1.09836         314.348          51.024 
        1.10449         312.267         50.3624 
        1.11063         308.496          49.712 
        1.11677         309.271         49.0732 
         1.1229         306.383         48.4469 
        1.12903         304.746          47.831 
        1.13518         301.624         47.2254 
        1.14131         300.255         46.6306 
        1.14745         298.733         46.0464 
        1.15359         296.755         45.4721 
        1.15973         294.881         44.9075 
        1.16584         292.406          44.355 
        1.17197         292.207          43.811 
        1.17811         288.805         43.2746 
        1.18424         286.607         42.7487 
        1.19038         285.737           42.23 
        1.19652         283.561         41.7202 
        1.20267         282.851         41.2188 
        1.20881         280.323         40.7257 
        1.21495         278.402         40.2415 
        1.22108         276.667         39.7653 
         1.2272         275.036         39.2979 
        1.23334         274.008         38.8369 
        1.23949         270.849         38.3823 
        1.24562         269.992         37.9362 
        1.25174         268.699         37.4979 
        1.25789          266.18         37.0652 
        1.26402         264.372         36.6402 
        1.27014         262.793         36.2228 
        1.27628         260.754         35.8107 
        1.28244         260.893         35.4043 
        1.28858           258.4         35.0047 
        1.29471         257.337         34.6122 
        1.30084         254.682         34.2261 
        1.30697         254.022         33.8453 
        1.31312         251.282         33.4698 
        1.31925         249.881         33.1012 
        1.32537          249.41         32.7385 
        1.33151         246.959           32.38 
        1.33765         244.929          32.027 
        1.34378         244.443         31.6801 
        1.34992         243.112          31.338 
        1.35606         241.973         31.0003 
         1.3622         239.447         30.6682 
        1.36833         238.363         30.3417 
        1.37445         236.681         30.0202 
        1.38059         235.013         29.7023 
        1.38675         233.992         29.3883 
        1.39288         232.726         29.0801 
        1.39901         231.159         28.7765 
        1.40515         230.111         28.4765 
         1.4113         228.557         28.1809 
        1.41742         226.736         27.8907 
        1.42355         225.654          27.604 
         1.4297         223.968         27.3204 
        1.43585         222.754          27.041 
        1.44198         222.269         26.7665 
        1.44809         220.237         26.4964 
        1.45423         219.035         26.2291 
        1.46036         217.734         25.9658 
        1.46649         216.505         25.7062 
        1.47263         215.345         25.4498 
        1.47877         213.676         25.1971 
        1.48491         211.587         24.9474 
        1.49104         211.179         24.7017 
        1.49718          209.41          24.459 
        1.50333         208.887         24.2193 
        1.50947         207.269         23.9832 
         1.5156         205.681         23.7507 
        1.52172         204.915         23.5212 
        1.52787         203.183         23.2943 
          1.534         202.736         23.0707 
        1.54013         200.889         22.8503 
        1.54627         199.963         22.6323 
        1.55241         198.834         22.4171 
        1.55855          196.91         22.2051 
        1.56467         196.534         21.9964 
         1.5708         195.313         21.7898 
        1.57695         194.252         21.5855 
        1.58308         192.804         21.3843 
        1.58922         191.428         21.1856 
        1.59535         190.101         20.9894 
         1.6015         189.149         20.7955 
        1.60764         188.318         20.6041 
        1.61376         187.309         20.4156 
        1.61989         186.251         20.2294 
        1.62604         184.851          20.045 
        1.63218         184.063         19.8631 
        1.63831          182.49         19.6839 
        1.64444         181.676         19.5068 
        1.65059         180.862         19.3314 
        1.65673         179.699         19.1584 
        1.66285         178.186         18.9881 
        1.66898         177.557         18.8197 
        1.67512         176.586          18.653 
        1.68127          174.99         18.4882 
         1.6874         174.457         18.3258 
        1.69353         173.176         18.1654 
        1.69967          171.95         18.0066 
        1.70581           171.2         17.8497 
        1.71193         169.785         17.6953 
        1.71806         169.314         17.5424 
        1.72421         168.144          17.391 
        1.73035         167.461         17.2416 
        1.73649         166.358         17.0939 
        1.74262         165.352         16.9481 
        1.74876         164.047         16.8039 
        1.75489         163.498         16.6617 
        1.76101         161.936         16.5212 
        1.76715         161.663         16.3821 
        1.77329         160.442         16.2444 
        1.77943         159.764         16.1082 
        1.78557         158.652         15.9738 
        1.79171         157.937          15.841 
        1.79785          156.66         15.7096 
        1.80399         155.976         15.5797 
        1.81012         155.113         15.4515 
        1.81625         154.383         15.3247 
        1.82239         153.175         15.1992 
        1.82853         152.525         15.0752 
        1.83466         151.656         14.9527 
        1.84078         150.806         14.8316 
        1.84692         149.616         14.7117 
        1.85306         149.216          14.593 
         1.8592          148.18         14.4758 
        1.86533         147.705         14.3599 
        1.87147         146.513         14.2452 
        1.87761         145.499         14.1317 
        1.88375         144.783         14.0195 
        1.88988         143.378         13.9087 
        1.89601         143.283          13.799 
        1.90215         142.416         13.6904 
        1.90829          141.24         13.5831 
        1.91442         140.834         13.4768 
        1.92056          139.81         13.3719 
         1.9267         138.884         13.2679 
        1.93284         138.072         13.1649 
        1.93897         137.559         13.0633 
        1.94509         136.851         12.9629 
        1.95123         136.107         12.8634 
        1.95737          135.14         12.7648 
        1.96349          134.56         12.6675 
        1.96964         133.577         12.5709 
        1.97578         132.736         12.4753 
        1.98192         132.073         12.3809 
        1.98805         131.507         12.2875 
        1.99419         130.586          12.195 
        2.00033         129.959         12.1034 
        2.00647         129.256         12.0128 
         2.0126         128.351         11.9233 
        2.01874         127.821         11.8345 
        2.02488         127.448         11.7466 
        2.03101         126.136         11.6597 
        2.03714         125.726         11.5738 
        2.04328         124.813         11.4886 
        2.04941         124.356         11.4044 
        2.05554         123.355         11.3211 
        2.06167         122.903         11.2385 
        2.06781         121.975         11.1567 
        2.07396         121.609         11.0756 
        2.08009         120.686         10.9955 
        2.08622         119.801         10.9162 
        2.09237         119.444         10.8376 
        2.09851         118.682         10.7597 
        2.10464          118.27         10.6827 
        2.11077         117.579         10.6066 
        2.11691         116.901          10.531 
        2.12305          116.38         10.4562 
        2.12918         115.602         10.3823 
        2.13531         114.884         10.3091 
        2.14145         114.228         10.2364 
         2.1476         113.413         10.1643 
        2.15372         113.247         10.0933 
        2.15985         112.401         10.0229 
        2.16599         111.753         9.95301 
        2.17213         111.284         9.88382 
        2.17827         110.489         9.81531 
         2.1844         109.887          9.7475 
        2.19054         109.477         9.68032 
        2.19666         108.703         9.61386 
         2.2028         108.111         9.54796 
        2.20893         107.702         9.48265 
        2.21508         106.932         9.41788 
        2.22122         106.409         9.35369 
        2.22736           105.9         9.29023 
        2.23349         105.419         9.22738 
        2.23962         104.817         9.16507 
        2.24577         104.065         9.10329 
         2.2519         103.642         9.04216 
        2.25802         102.853         8.98169 
        2.26417         102.611          8.9216 
        2.27031         101.875         8.86201 
        2.27644         101.413         8.80313 
        2.28257         100.871          8.7448 
        2.28872         100.263         8.68688 
        2.29486         99.6329          8.6295 
        2.30099          99.129         8.57275 
        2.30712         98.6176         8.51648 
        2.31326         98.1011         8.46063 
         2.3194         97.5044         8.40531 
        2.32553         96.9633         8.35057 
        2.33166          96.433         8.29635 
         2.3378         96.1587         8.24253 
        2.34394         95.4895         8.18917 
        2.35007         95.0049         8.13636 
        2.35619         94.4911         8.08408 
        2.36233         94.0901         8.03214 
        2.36848         93.4787         7.98054 
        2.37462         93.0702         7.92951 
        2.38075         92.4777         7.87897 
        2.38689         92.0194         7.82883 
        2.39303         91.4444         7.77913 
        2.39916         91.0426         7.72992 
        2.40529         90.8364         7.68113 
        2.41143         90.1751         7.63274 
        2.41757         89.6558         7.58473 
         2.4237         89.1473         7.53723 
        2.42983         88.6918         7.49014 
        2.43598         88.1311         7.44332 
        2.44211          87.803         7.39699 
        2.44823          87.263         7.35115 
        2.45437          86.817         7.30557 
        2.46052         86.2462         7.26035 
        2.46665         86.0181         7.21558 
        2.47279         85.4968         7.17121 
        2.47892         85.0126         7.12717 
        2.48507         84.6534         7.08347 
         2.4912         84.2261         7.04022 
