# k  (h/Mpc)    Pcb(k)  (Mpc/h)^3    Pcb_linear(k)  (Mpc/h)^3
     0.00783031         173.198           174.8 
       0.013688         210.265         211.093 
       0.019231         209.732         209.907 
      0.0249154         190.681         191.206 
      0.0312784         164.127         164.051 
      0.0375637         140.162         139.858 
      0.0433917         122.942         122.854 
      0.0492413         110.962         110.827 
      0.0555754         101.455         101.575 
      0.0619321         93.9908         93.8337 
       0.067871         86.2892         86.4001 
      0.0738098         78.1281         78.2428 
      0.0800417         69.1743         69.3104 
      0.0862327         60.9579         60.9641 
      0.0921407         54.2894         54.2473 
      0.0982031         48.9576         48.9701 
       0.104506         45.2029         45.0933 
       0.110769         42.4282         42.3733 
       0.116806         40.1637         40.2255 
       0.122832         38.0572         38.0532 
       0.129052         35.4442         35.5113 
       0.135211         32.6453         32.7105 
       0.141259         29.9156          29.905 
       0.147318         27.3829          27.313 
       0.153489         25.1398         25.1039 
       0.159709          23.418         23.3871 
       0.165845         22.2235         22.1254 
       0.171974         21.1399         21.1378 
       0.178125         20.2561         20.2427 
       0.184229         19.3495         19.3134 
        0.19034          18.254         18.2833 
       0.196428         17.1962         17.1788 
       0.202534         16.1489          16.066 
       0.208729         15.0649         15.0184 
       0.214876         14.1361         14.1216 
       0.220989         13.4643         13.3886 
       0.227147         12.8006         12.7881 
        0.23329           12.29         12.2787 
       0.239377         11.8276         11.8098 
       0.245482         11.3321         11.3347 
       0.251667         10.8679         10.8303 
       0.257832         10.3328         10.3107 
       0.263955         9.83336         9.79904 
       0.270079         9.35751         9.31677 
        0.27624         8.94794         8.88031 
       0.282372         8.56567         8.50012 
        0.28843         8.21355         8.17241 
       0.294538         7.91654           7.876 
       0.300721         7.65752         7.59488 
        0.30691         7.35605         7.31896 
       0.313033         7.08584         7.04531 
       0.319153         6.77698         6.77144 
       0.325316         6.55991         6.50103 
        0.33145         6.29582         6.24414 
       0.337538         6.05679         6.00711 
       0.343633          5.8283         5.78953 
       0.349808         5.63745         5.58847 
       0.355968         5.45415         5.40287 
       0.362074         5.27318          5.2291 
       0.368217         5.10547         5.06034 
       0.374374         4.92514         4.89457 
       0.380519         4.77717         4.73245 
       0.386598         4.62647         4.57616 
       0.392688         4.48463          4.4256 
        0.39888         4.33184         4.28042 
       0.405048           4.198         4.14428 
       0.411186         4.07359         4.01715 
       0.417313         3.94505         3.89748 
       0.423458         3.83773         3.78311 
       0.429607         3.71816         3.67305 
       0.435692         3.61248         3.56762 
       0.441815          3.5107         3.46445 
       0.447964         3.42178         3.36395 
       0.454126         3.31171         3.26687 
       0.460267         3.21886         3.17405 
       0.466387         3.12533         3.08559 
        0.47254         3.04448         3.00076 
       0.478662         2.96774         2.92019 
       0.484765          2.8844         2.84314 
       0.490885         2.81223         2.76867 
       0.497035         2.75214         2.69634 
       0.503198         2.67447         2.62623 
       0.509342          2.6107         2.55853 
       0.515458         2.53971         2.49331 
       0.521598         2.47783         2.43009 
       0.527764         2.41042         2.36896 
       0.533884         2.36158         2.31059 
           0.54         2.30243          2.2544 
       0.546137         2.25011         2.19999 
       0.552299         2.19609         2.14721 
       0.558452         2.13925         2.09624 
       0.564573         2.09469         2.04716 
       0.570708         2.04649         1.99948 
       0.576825         1.99689         1.95339 
       0.582926         1.95729         1.90885 
       0.589034         1.90347         1.86566 
       0.595184          1.8642         1.82357 
       0.601379         1.82288         1.78257 
       0.607522         1.78811         1.74322 
       0.613639          1.7547         1.70524 
       0.619772         1.70947         1.66832 
       0.625918         1.67648          1.6324 
       0.632068         1.64485         1.59751 
       0.638161         1.60705         1.56394 
         0.6443         1.57355          1.5311 
       0.650464         1.53773          1.4991 
       0.656582         1.51073         1.46825 
       0.662703         1.48093         1.43828 
       0.668861         1.45542         1.40899 
       0.675024         1.42301         1.38051 
       0.681124         1.39197          1.3531 
       0.687237         1.36942         1.32639 
       0.693381         1.34365         1.30028 
       0.699536         1.31091         1.27483 
       0.705665         1.28779         1.25017 
       0.711789         1.26648         1.22619 
       0.717957         1.23992         1.20268 
        0.72409         1.21797         1.17993 
       0.730186          1.1947         1.15791 
       0.736317         1.17844         1.13633 
       0.742472         1.15552         1.11523 
       0.748622         1.13312         1.09469 
        0.75476         1.11038         1.07471 
       0.760888         1.09047         1.05527 
       0.767043         1.07735         1.03623 
       0.773185         1.05443          1.0177 
       0.779291         1.03671        0.999734 
       0.785407         1.01926        0.982177 
       0.791564         1.00264        0.964935 
       0.797719        0.986866        0.948117 
       0.803834        0.970663         0.93181 
       0.809972        0.953492         0.91583 
       0.816124        0.936434        0.900194 
       0.822261          0.9195        0.884967 
       0.828378        0.906587        0.870141 
       0.834502        0.893653        0.855644 
       0.840667        0.875678        0.841387 
       0.846816        0.862108        0.827496 
       0.852925        0.851474         0.81401 
       0.859047        0.837642        0.800797 
       0.865192         0.82271        0.787836 
       0.871341        0.809953        0.775156 
       0.877463        0.799946        0.762814 
       0.883569        0.785528        0.750773 
       0.889708        0.773614        0.738933 
       0.895864        0.761602        0.727319 
       0.902008        0.749322        0.715981 
       0.908149        0.738192        0.704892 
       0.914301        0.724247        0.694022 
       0.920448        0.714975        0.683392 
       0.926574        0.704033        0.673023 
       0.932687        0.693517        0.662893 
       0.938823        0.686221        0.652935 
       0.944975        0.675467        0.643161 
       0.951105        0.666203        0.633622 
       0.957225        0.658154        0.624295 
       0.963368        0.647878        0.615124 
       0.969511        0.637424        0.606138 
       0.975621        0.627683         0.59738 
       0.981748        0.621578        0.588774 
       0.987916        0.611862        0.580283 
        0.99406        0.602733        0.571992 
        1.00019        0.596151        0.563881 
        1.00632        0.585628        0.555934 
        1.01246        0.577796         0.54813 
        1.01859        0.571105        0.540489 
        1.02471        0.562901        0.533003 
        1.03085         0.55719        0.525634 
        1.03698        0.548286        0.518421 
        1.04314        0.541501        0.511313 
        1.04929        0.533507        0.504355 
        1.05541        0.527714        0.497555 
        1.06154        0.519909        0.490864 
        1.06769        0.512638        0.484287 
        1.07382        0.506664        0.477853 
        1.07993        0.499212         0.47155 
        1.08607        0.495027        0.465336 
        1.09222        0.487297        0.459228 
        1.09836        0.483129        0.453237 
        1.10449        0.476647        0.447361 
        1.11063        0.469265        0.441583 
        1.11677        0.462701         0.43591 
         1.1229        0.458056        0.430346 
        1.12903        0.451772        0.424875 
        1.13518        0.447276        0.419495 
        1.14131        0.441165        0.414212 
        1.14745        0.433913        0.409022 
        1.15359        0.430377        0.403922 
        1.15973        0.423821        0.398906 
        1.16584        0.420925        0.393998 
        1.17197        0.415301        0.389166 
        1.17811         0.41099        0.384401 
        1.18424        0.406976        0.379729 
        1.19038        0.400984        0.375122 
        1.19652        0.395389        0.370594 
        1.20267         0.39239         0.36614 
        1.20881        0.387118         0.36176 
        1.21495        0.383701        0.357459 
        1.22108        0.378955        0.353228 
         1.2272         0.37509        0.349077 
        1.23334        0.370189        0.344982 
        1.23949        0.366256        0.340944 
        1.24562        0.362201        0.336981 
        1.25174        0.358519        0.333088 
        1.25789        0.354889        0.329244 
        1.26402         0.34967        0.325469 
        1.27014        0.346299        0.321761 
        1.27628        0.343381        0.318101 
        1.28244        0.338067        0.314491 
        1.28858        0.335159        0.310941 
        1.29471        0.332487        0.307455 
        1.30084        0.328056        0.304025 
        1.30697        0.324603        0.300643 
        1.31312        0.320047        0.297307 
        1.31925        0.317257        0.294033 
        1.32537        0.314508        0.290811 
        1.33151        0.311657        0.287626 
        1.33765        0.308257        0.284491 
        1.34378        0.304198        0.281409 
        1.34992         0.30155        0.278371 
        1.35606        0.298341        0.275371 
         1.3622        0.295354        0.272421 
        1.36833        0.292154        0.269521 
        1.37445        0.288421        0.266665 
        1.38059        0.285841        0.263841 
        1.38675         0.28436        0.261052 
        1.39288         0.28079        0.258314 
        1.39901        0.278112        0.255617 
        1.40515        0.275586        0.252952 
         1.4113        0.272132        0.250327 
        1.41742        0.269594        0.247749 
        1.42355        0.267706        0.245202 
         1.4297        0.264274        0.242683 
        1.43585        0.262084        0.240201 
        1.44198        0.260143        0.237763 
        1.44809        0.256978        0.235364 
        1.45423        0.254656        0.232989 
        1.46036        0.252144        0.230651 
        1.46649        0.250251        0.228344 
        1.47263        0.247513        0.226067 
        1.47877        0.244671        0.223822 
        1.48491        0.242832        0.221604 
        1.49104        0.239977        0.219421 
        1.49718        0.237936        0.217266 
        1.50333        0.236263        0.215136 
        1.50947        0.233795         0.21304 
         1.5156        0.231427        0.210974 
        1.52172        0.229503        0.208935 
        1.52787        0.227325         0.20692 
          1.534        0.225107        0.204934 
        1.54013        0.222926        0.202975 
        1.54627        0.221431        0.201039 
        1.55241        0.219028        0.199128 
        1.55855        0.216786        0.197245 
        1.56467        0.215841        0.195391 
         1.5708        0.213335        0.193555 
        1.57695        0.211516        0.191741 
        1.58308        0.209511        0.189954 
        1.58922        0.207879        0.188188 
        1.59535        0.205921        0.186446 
         1.6015        0.203974        0.184723 
        1.60764        0.202432        0.183023 
        1.61376        0.200167        0.181349 
        1.61989        0.198711        0.179695 
        1.62604        0.197225        0.178057 
        1.63218        0.195605        0.176441 
        1.63831        0.193988        0.174849 
        1.64444        0.192274        0.173276 
        1.65059        0.190562        0.171718 
        1.65673        0.189094        0.170182 
        1.66285        0.187706        0.168668 
        1.66898        0.186091        0.167173 
        1.67512        0.184156        0.165692 
        1.68127        0.182518        0.164229 
         1.6874        0.181502        0.162786 
        1.69353        0.179457        0.161361 
        1.69967        0.178606         0.15995 
        1.70581        0.176595        0.158557 
        1.71193        0.175319        0.157185 
        1.71806        0.173667        0.155827 
        1.72421        0.172751        0.154482 
        1.73035        0.171014        0.153155 
        1.73649         0.16995        0.151843 
        1.74262        0.168451        0.150548 
        1.74876           0.167        0.149267 
        1.75489        0.165868        0.148004 
        1.76101         0.16424        0.146755 
        1.76715        0.163018         0.14552 
        1.77329        0.161539        0.144297 
        1.77943         0.16036        0.143087 
        1.78557        0.159402        0.141894 
        1.79171        0.158147        0.140713 
        1.79785        0.156821        0.139546 
        1.80399        0.155585        0.138392 
        1.81012        0.154441        0.137253 
        1.81625        0.153201        0.136128 
        1.82239        0.152114        0.135013 
        1.82853        0.150677        0.133911 
        1.83466        0.149706        0.132823 
        1.84078        0.148551        0.131747 
        1.84692        0.147347        0.130683 
        1.85306        0.146518        0.129628 
         1.8592        0.145098        0.128587 
        1.86533        0.144302        0.127558 
        1.87147        0.143148        0.126538 
        1.87761        0.142235         0.12553 
        1.88375        0.140911        0.124534 
        1.88988        0.139958        0.123549 
        1.89601        0.138788        0.122575 
        1.90215         0.13794         0.12161 
        1.90829          0.1367        0.120657 
        1.91442        0.136113        0.119713 
        1.92056        0.134851         0.11878 
         1.9267        0.133773        0.117857 
        1.93284        0.132832        0.116942 
        1.93897        0.131844         0.11604 
        1.94509        0.131176        0.115148 
        1.95123        0.130098        0.114264 
        1.95737        0.129317        0.113388 
        1.96349        0.128224        0.112524 
        1.96964         0.12721        0.111666 
        1.97578        0.126362        0.110817 
        1.98192         0.12562        0.109978 
        1.98805        0.124876        0.109148 
        1.99419        0.123665        0.108327 
        2.00033        0.122823        0.107513 
        2.00647        0.122293        0.106708 
         2.0126        0.121146        0.105913 
        2.01874        0.120537        0.105124 
        2.02488        0.119639        0.104343 
        2.03101        0.118838        0.103572 
        2.03714         0.11788        0.102808 
        2.04328        0.117304        0.102052 
        2.04941        0.116279        0.101304 
        2.05554        0.115657        0.100564 
        2.06167         0.11504       0.0998301 
        2.06781        0.113989       0.0991036 
        2.07396        0.113253       0.0983834 
        2.08009         0.11253       0.0976715 
        2.08622        0.111883       0.0969674 
        2.09237        0.111146       0.0962689 
        2.09851        0.110435       0.0955772 
        2.10464        0.109725       0.0948935 
        2.11077        0.108866       0.0942172 
        2.11691        0.108234        0.093546 
        2.12305        0.107483       0.0928813 
        2.12918        0.106925       0.0922247 
        2.13531        0.106021       0.0915744 
        2.14145        0.105244       0.0909288 
         2.1476        0.104719       0.0902887 
        2.15372        0.104244        0.089658 
        2.15985        0.103395       0.0890327 
        2.16599        0.102686       0.0884115 
        2.17213        0.102115       0.0877969 
        2.17827        0.101326       0.0871883 
         2.1844        0.100876        0.086586 
        2.19054        0.100165       0.0859892 
        2.19666       0.0993596       0.0853988 
         2.2028       0.0988883       0.0848135 
        2.20893       0.0984375       0.0842334 
        2.21508       0.0975534        0.083658 
        2.22122       0.0969077       0.0830878 
        2.22736       0.0965734       0.0825242 
        2.23349       0.0958339       0.0819658 
        2.23962       0.0953796       0.0814124 
        2.24577       0.0946341       0.0808636 
         2.2519        0.094168       0.0803206 
        2.25802        0.093499       0.0797834 
        2.26417       0.0930038       0.0792497 
        2.27031       0.0923576       0.0787203 
        2.27644         0.09181       0.0781973 
        2.28257       0.0912435       0.0776791 
        2.28872       0.0907439       0.0771647 
        2.29486       0.0903694       0.0766549 
        2.30099       0.0895818       0.0761508 
        2.30712       0.0891329       0.0756511 
        2.31326       0.0884359       0.0751549 
         2.3194         0.08829       0.0746635 
        2.32553       0.0876372       0.0741773 
        2.33166       0.0872497       0.0736956 
         2.3378        0.086648       0.0732176 
        2.34394       0.0860672       0.0727436 
        2.35007       0.0855618       0.0722745 
        2.35619        0.084952       0.0718101 
        2.36233       0.0845357       0.0713487 
        2.36848       0.0842101       0.0708904 
        2.37462       0.0835107       0.0704371 
        2.38075       0.0832073       0.0699881 
        2.38689       0.0827318       0.0695427 
        2.39303       0.0823517       0.0691013 
        2.39916       0.0816841       0.0686641 
        2.40529       0.0813026       0.0682308 
        2.41143       0.0807703       0.0678009 
        2.41757       0.0803379       0.0673745 
         2.4237       0.0800146       0.0669525 
        2.42983       0.0794851       0.0665342 
        2.43598       0.0791939       0.0661184 
        2.44211       0.0785968       0.0657068 
        2.44823       0.0783108       0.0652996 
        2.45437       0.0776839       0.0648947 
        2.46052       0.0773806        0.064493 
        2.46665       0.0768422       0.0640953 
        2.47279       0.0764144       0.0637012 
        2.47892       0.0758872       0.0633101 
        2.48507       0.0755085       0.0629219 
         2.4912       0.0751949       0.0625376 
