# k  (h/Mpc)    Pcb(k)  (Mpc/h)^3    Pcb_linear(k)  (Mpc/h)^3
     0.00783031         533.484         538.559 
       0.013688          654.82         656.459 
       0.019231         660.178         660.381 
      0.0249154         606.727         609.239 
      0.0312784         527.633         527.816 
      0.0375637         450.844         449.816 
      0.0433917         391.127         391.219 
      0.0492413         348.312         347.768 
      0.0555754          314.07         314.786 
      0.0619321         291.548         290.481 
       0.067871         269.978         270.511 
      0.0738098          249.23         249.853 
      0.0800417         225.317         226.281 
      0.0862327          201.66         201.914 
      0.0921407         179.806         179.718 
      0.0982031          159.72         159.888 
       0.104506         144.282         143.565 
       0.110769         132.271           131.7 
       0.116806         123.516         123.528 
       0.122832         117.638         117.304 
       0.129052         111.398         111.553 
       0.135211          105.31         105.513 
       0.141259         98.9751         98.8246 
       0.147318         91.9666         91.5165 
       0.153489         84.2495         83.9808 
       0.159709         77.3009           76.94 
       0.165845         71.8256         71.0168 
       0.171974         66.6716         66.3026 
       0.178125         63.1528         62.6778 
       0.184229         60.4415         59.8758 
        0.19034         57.6201          57.481 
       0.196428         55.5545         55.1568 
       0.202534         53.3642         52.6635 
       0.208729         50.4027         49.9057 
       0.214876         47.3653         47.0283 
       0.220989         44.8765         44.1953 
       0.227147         41.9353         41.5463 
        0.23329         39.6525         39.2307 
       0.239377          37.819         37.2989 
       0.245482         36.0243         35.6858 
       0.251667         34.8765          34.291 
       0.257832         33.5361         33.0297 
       0.263955         32.3415         31.8077 
       0.270079         31.0932         30.5576 
        0.27624         29.9657         29.2601 
       0.282372         28.6575         27.9523 
        0.28843         27.2842         26.6903 
       0.294538         26.0948         25.4929 
       0.300721         25.1409         24.3913 
        0.30691         24.0129         23.4093 
       0.313033         23.1702         22.5459 
       0.319153          22.186         21.7651 
       0.325316         21.7219         21.0306 
        0.33145         20.9582         20.3244 
       0.337538         20.2705         19.6317 
       0.343633          19.518         18.9412 
       0.349808          18.891         18.2513 
       0.355968         18.2308         17.5828 
       0.362074         17.5736         16.9527 
       0.368217         16.9984         16.3591 
       0.374374         16.3804         15.8078 
       0.380519         15.9331         15.2982 
       0.386598         15.4853         14.8268 
       0.392688         15.0801         14.3795 
        0.39888          14.605         13.9417 
       0.405048         14.2025         13.5177 
       0.411186         13.8037         13.1059 
       0.417313         13.3434          12.705 
       0.423458         12.9829         12.3159 
       0.429607         12.5737         11.9425 
       0.435692         12.2083         11.5903 
       0.441815         11.8907         11.2541 
       0.447964         11.6323         10.9342 
       0.454126         11.2411         10.6291 
       0.460267         10.9694         10.3383 
       0.466387         10.6417         10.0595 
        0.47254          10.412         9.78812 
       0.478662         10.1758         9.52609 
       0.484765         9.87598         9.27286 
       0.490885         9.62994          9.0272 
       0.497035         9.46888         8.78892 
       0.503198         9.19916         8.55923 
       0.509342         8.97924         8.33948 
       0.515458         8.74892         8.12963 
       0.521598           8.558         7.92706 
       0.527764         8.33497         7.73107 
       0.533884           8.185         7.54328 
           0.54         7.98705         7.36178 
       0.546137         7.82057         7.18524 
       0.552299         7.65304         7.01332 
       0.558452         7.43542         6.84702 
       0.564573         7.30888         6.68688 
       0.570708         7.15047         6.53168 
       0.576825         6.96994          6.3821 
       0.582926         6.84529         6.23783 
       0.589034         6.65128          6.0981 
       0.595184         6.53445         5.96197 
       0.601379         6.39021          5.8292 
       0.607522         6.29005         5.70157 
       0.613639         6.19079         5.57823 
       0.619772         6.02113         5.45812 
       0.625918         5.93504         5.34124 
       0.632068         5.83596         5.22771 
       0.638161         5.69441         5.11854 
         0.6443         5.57764         5.01179 
       0.650464         5.45518         4.90778 
       0.656582         5.38691         4.80753 
       0.662703         5.28334         4.71011 
       0.668861         5.19501         4.61486 
       0.675024         5.08188          4.5222 
       0.681124         4.98172         4.43304 
       0.687237         4.90866         4.34612 
       0.693381         4.82416         4.26114 
       0.699536         4.69727         4.17829 
       0.705665         4.62882         4.09802 
       0.711789         4.55499         4.01994 
       0.717957         4.46777         3.94337 
        0.72409         4.39148         3.86925 
       0.730186         4.31807          3.7975 
       0.736317         4.27217         3.72721 
       0.742472         4.19752         3.65847 
       0.748622          4.1156         3.59154 
        0.75476         4.03135         3.52646 
       0.760888         3.97126          3.4631 
       0.767043         3.92525         3.40106 
       0.773185         3.84198         3.34068 
       0.779291         3.79478         3.28212 
       0.785407         3.73011          3.2249 
       0.791564          3.6744         3.16869 
       0.797719         3.61939         3.11386 
       0.803834         3.57272         3.06069 
       0.809972         3.51886         3.00858 
       0.816124          3.4517         2.95758 
       0.822261          3.3902         2.90792 
       0.828378         3.34839         2.85955 
       0.834502         3.31289         2.81226 
       0.840667         3.24127         2.76574 
       0.846816         3.19217         2.72041 
       0.852925         3.16311         2.67639 
       0.859047         3.11581         2.63326 
       0.865192         3.07148         2.59095 
       0.871341         3.03143         2.54954 
       0.877463         2.99201         2.50924 
       0.883569          2.9372         2.46991 
       0.889708         2.89307         2.43123 
       0.895864         2.85691         2.39328 
       0.902008          2.8119         2.35623 
       0.908149         2.77972         2.31999 
       0.914301         2.72679         2.28446 
       0.920448         2.69427         2.24971 
       0.926574          2.6552         2.21581 
       0.932687         2.62332         2.18268 
       0.938823         2.59626         2.15012 
       0.944975         2.55914         2.11815 
       0.951105         2.52888         2.08695 
       0.957225         2.50805         2.05644 
       0.963368            2.47         2.02643 
       0.969511         2.43259         1.99703 
       0.975621         2.39543         1.96838 
       0.981748          2.3742         1.94021 
       0.987916         2.34126         1.91243 
        0.99406          2.3038          1.8853 
        1.00019         2.28263         1.85875 
        1.00632         2.25107         1.83274 
        1.01246         2.22477         1.80719 
        1.01859         2.19957         1.78218 
        1.02471         2.16951         1.75767 
        1.03085         2.14715         1.73355 
        1.03698         2.11658         1.70993 
        1.04314         2.09577         1.68665 
        1.04929         2.06724         1.66387 
        1.05541         2.04545          1.6416 
        1.06154         2.02025         1.61969 
        1.06769         1.99912         1.59814 
        1.07382         1.97356         1.57707 
        1.07993         1.94434         1.55642 
        1.08607         1.93385         1.53606 
        1.09222         1.90605         1.51604 
        1.09836         1.89202         1.49641 
        1.10449          1.8691         1.47715 
        1.11063         1.84213         1.45821 
        1.11677         1.82108         1.43961 
         1.1229         1.80207         1.42136 
        1.12903         1.77983         1.40342 
        1.13518         1.76563         1.38578 
        1.14131         1.74042         1.36845 
        1.14745         1.71197         1.35142 
        1.15359         1.70354         1.33469 
        1.15973         1.67711         1.31823 
        1.16584          1.6709         1.30213 
        1.17197         1.64952         1.28627 
        1.17811         1.63367         1.27063 
        1.18424         1.62063         1.25529 
        1.19038         1.59892         1.24017 
        1.19652          1.5807          1.2253 
        1.20267         1.56939         1.21068 
        1.20881         1.54698         1.19629 
        1.21495         1.53619         1.18217 
        1.22108         1.52046         1.16828 
         1.2272           1.509         1.15464 
        1.23334         1.48892          1.1412 
        1.23949         1.47264         1.12793 
        1.24562         1.46168         1.11492 
        1.25174          1.4455         1.10213 
        1.25789         1.43239          1.0895 
        1.26402         1.41334          1.0771 
        1.27014         1.40031         1.06492 
        1.27628         1.39386         1.05289 
        1.28244         1.37272         1.04102 
        1.28858         1.36196         1.02936 
        1.29471         1.34913          1.0179 
        1.30084         1.33419         1.00663 
        1.30697         1.32365        0.995512 
        1.31312         1.30435        0.984547 
        1.31925         1.29804        0.973783 
        1.32537         1.28606        0.963191 
        1.33151         1.27553         0.95272 
        1.33765          1.2611        0.942411 
        1.34378          1.2468        0.932276 
        1.34992         1.24109        0.922283 
        1.35606         1.22455        0.912416 
         1.3622         1.21671        0.902711 
        1.36833         1.20459        0.893171 
        1.37445          1.1905        0.883773 
        1.38059         1.18138        0.874483 
        1.38675         1.17816        0.865304 
        1.39288         1.16165        0.856294 
        1.39901         1.15108        0.847417 
        1.40515         1.14211        0.838646 
         1.4113         1.13103        0.830003 
        1.41742         1.12124        0.821514 
        1.42355         1.11716         0.81313 
         1.4297          1.1013        0.804837 
        1.43585         1.09339        0.796664 
        1.44198         1.08832        0.788636 
        1.44809         1.07326        0.780734 
        1.45423         1.06538        0.772911 
        1.46036         1.05672        0.765211 
        1.46649         1.04755        0.757612 
        1.47263         1.03798        0.750112 
        1.47877         1.02797        0.742716 
        1.48491         1.01987        0.735409 
        1.49104         1.01123        0.728216 
        1.49718         1.00554        0.721114 
        1.50333        0.994921        0.714096 
        1.50947        0.988976        0.707186 
         1.5156        0.979303        0.700378 
        1.52172        0.971278         0.69366 
        1.52787        0.962426        0.687018 
          1.534        0.956976         0.68047 
        1.54013         0.94588        0.674015 
        1.54627        0.938539        0.667632 
        1.55241        0.930704        0.661331 
        1.55855        0.923758        0.655121 
        1.56467        0.918801        0.649008 
         1.5708        0.908098        0.642956 
        1.57695        0.904157        0.636972 
        1.58308        0.896617        0.631078 
        1.58922        0.888881        0.625255 
        1.59535        0.882212        0.619508 
         1.6015        0.875473        0.613825 
        1.60764        0.869687        0.608217 
        1.61376        0.861017        0.602694 
        1.61989         0.85583        0.597236 
        1.62604        0.848324        0.591833 
        1.63218        0.844318          0.5865 
        1.63831        0.835617        0.581246 
        1.64444        0.829221        0.576054 
        1.65059        0.824172        0.570914 
        1.65673         0.81667        0.565842 
        1.66285        0.810553        0.560846 
        1.66898        0.807103        0.555909 
        1.67512        0.797981        0.551022 
        1.68127        0.792408        0.546189 
         1.6874        0.789027        0.541426 
        1.69353        0.781036        0.536722 
        1.69967        0.775392        0.532062 
        1.70581        0.771066        0.527461 
        1.71193        0.764774        0.522931 
        1.71806        0.760108        0.518445 
        1.72421        0.754016        0.514002 
        1.73035        0.747613        0.509617 
        1.73649        0.744231        0.505284 
        1.74262        0.738645        0.501005 
        1.74876        0.732447        0.496773 
        1.75489        0.726522        0.492599 
        1.76101        0.721531        0.488474 
        1.76715        0.717042         0.48439 
        1.77329        0.712449        0.480349 
        1.77943         0.70647        0.476352 
        1.78557        0.701565        0.472406 
        1.79171        0.698024        0.468505 
        1.79785        0.692569        0.464647 
        1.80399        0.687815        0.460833 
        1.81012        0.683999        0.457068 
        1.81625        0.678237        0.453346 
        1.82239        0.674664         0.44966 
        1.82853         0.66708        0.446017 
        1.83466        0.664367        0.442418 
        1.84078        0.658999        0.438863 
        1.84692        0.656345        0.435341 
        1.85306        0.651538        0.431853 
         1.8592        0.647872         0.42841 
        1.86533         0.64312        0.425005 
        1.87147        0.638793        0.421634 
        1.87761        0.634809        0.418299 
        1.88375        0.628555        0.415003 
        1.88988        0.626403        0.411746 
        1.89601        0.621268        0.408523 
        1.90215        0.618057        0.405332 
        1.90829        0.613074        0.402176 
        1.91442         0.60919        0.399054 
        1.92056        0.605927        0.395968 
         1.9267          0.6012        0.392911 
        1.93284        0.598612        0.389885 
        1.93897        0.594375        0.386897 
        1.94509        0.590634        0.383946 
        1.95123        0.586126        0.381019 
        1.95737        0.583162         0.37812 
        1.96349        0.578495        0.375259 
        1.96964        0.575538        0.372419 
        1.97578        0.571546        0.369608 
        1.98192        0.569565        0.366831 
        1.98805        0.564599        0.364082 
        1.99419        0.561564        0.361361 
        2.00033        0.559193        0.358667 
        2.00647        0.554565        0.356002 
         2.0126        0.551254        0.353367 
        2.01874          0.5483        0.350756 
        2.02488        0.545445        0.348169 
        2.03101        0.540547        0.345612 
        2.03714        0.536952        0.343084 
        2.04328        0.535351        0.340578 
        2.04941        0.531685          0.3381 
        2.05554        0.528117        0.335648 
        2.06167        0.525105        0.333216 
        2.06781        0.520889        0.330809 
        2.07396        0.517607        0.328422 
        2.08009        0.515238        0.326063 
        2.08622        0.512031         0.32373 
        2.09237        0.510628        0.321415 
        2.09851        0.507402        0.319122 
        2.10464        0.504361        0.316855 
        2.11077        0.500894        0.314614 
        2.11691        0.497675        0.312389 
        2.12305        0.494917        0.310185 
        2.12918        0.492169        0.308008 
        2.13531        0.489043        0.305852 
        2.14145        0.486601        0.303711 
         2.1476        0.483392        0.301589 
        2.15372        0.481854        0.299497 
        2.15985        0.477716        0.297423 
        2.16599        0.474616        0.295363 
        2.17213        0.472609        0.293325 
        2.17827        0.470879        0.291306 
         2.1844        0.468377        0.289309 
        2.19054        0.465685        0.287329 
        2.19666        0.462075        0.285371 
         2.2028         0.45998        0.283429 
        2.20893        0.457423        0.281505 
        2.21508        0.455033        0.279596 
        2.22122        0.451213        0.277704 
        2.22736         0.44925        0.275834 
        2.23349         0.44796        0.273981 
        2.23962        0.445169        0.272145 
        2.24577        0.441529        0.270323 
         2.2519        0.440108        0.268521 
        2.25802        0.437256        0.266739 
        2.26417        0.434576        0.264967 
        2.27031        0.432252         0.26321 
        2.27644         0.43065        0.261474 
        2.28257        0.428124        0.259754 
        2.28872        0.425671        0.258046 
        2.29486        0.423175        0.256354 
        2.30099        0.420982        0.254681 
        2.30712        0.419221        0.253021 
        2.31326        0.416581        0.251374 
         2.3194        0.415957        0.249742 
        2.32553         0.41334        0.248128 
        2.33166        0.411071        0.246528 
         2.3378        0.408841        0.244941 
        2.34394        0.405229        0.243367 
        2.35007        0.403918        0.241809 
        2.35619        0.401958        0.240267 
        2.36233        0.398979        0.238734 
        2.36848        0.397926        0.237212 
        2.37462        0.395172        0.235706 
        2.38075        0.394344        0.234215 
        2.38689        0.391562        0.232735 
        2.39303        0.390429        0.231269 
        2.39916         0.38719        0.229816 
        2.40529        0.385707        0.228376 
        2.41143        0.384143        0.226948 
        2.41757        0.381994        0.225531 
         2.4237         0.38014        0.224129 
        2.42983        0.378413        0.222739 
        2.43598        0.376603        0.221357 
        2.44211        0.374962        0.219989 
        2.44823        0.373227        0.218636 
        2.45437        0.370497         0.21729 
        2.46052        0.369885        0.215954 
        2.46665        0.367244        0.214633 
        2.47279          0.3653        0.213322 
        2.47892        0.363241        0.212022 
        2.48507        0.362007        0.210731 
         2.4912        0.360357        0.209454 
