# k  (h/Mpc)    Pcb(k)  (Mpc/h)^3    Pcb_linear(k)  (Mpc/h)^3
     0.00783031         620.621         624.934 
       0.013688         797.444         804.751 
       0.019231          843.88         847.092 
      0.0249154         814.853         815.273 
      0.0312784          735.11         736.101 
      0.0375637         645.939         647.342 
      0.0433917         574.444         573.607 
      0.0492413          514.18         514.617 
      0.0555754         468.768         467.532 
      0.0619321         430.574         433.111 
       0.067871         406.454          406.91 
      0.0738098         381.499         381.759 
      0.0800417         353.853         353.499 
      0.0862327         322.586         322.983 
      0.0921407         292.632         292.998 
      0.0982031         264.209         263.665 
       0.104506         236.369         236.996 
       0.110769         215.375         215.687 
       0.116806         200.996         200.129 
       0.122832          188.56         188.612 
       0.129052         179.941         179.457 
       0.135211         172.359         171.511 
       0.141259         163.704         163.517 
       0.147318          154.11          154.63 
       0.153489          144.66         144.634 
       0.159709         134.627         134.109 
       0.165845         123.612         124.045 
       0.171974         115.968         115.012 
       0.178125         108.362         107.402 
       0.184229         101.873         101.381 
        0.19034         97.8049         96.6684 
       0.196428         93.8495         92.8743 
       0.202534         89.6672         89.4986 
       0.208729         86.8601         86.0897 
       0.214876         83.5977         82.4594 
       0.220989         78.8271         78.5412 
       0.227147          75.627         74.3976 
        0.23329         71.6713         70.2826 
       0.239377         68.0257         66.4498 
       0.245482         64.4787         63.0195 
       0.251667         61.2244         60.0459 
       0.257832         59.2659          57.559 
       0.263955          56.734         55.4584 
       0.270079         54.8461         53.5863 
        0.27624         52.7508         51.7925 
       0.282372         51.0184         49.9932 
        0.28843         49.6939         48.1534 
       0.294538         47.6506         46.2412 
       0.300721         45.4518         44.2978 
        0.30691         43.9852         42.4101 
       0.313033          42.126         40.6633 
       0.319153         40.9677          39.075 
       0.325316         39.0277         37.6474 
        0.33145         37.7271          36.378 
       0.337538         36.6749         35.2336 
       0.343633         35.7006         34.1593 
       0.349808         34.5407         33.1066 
       0.355968         33.4506         32.0646 
       0.362074          32.634         31.0311 
       0.368217         31.5552         29.9964 
       0.374374         30.7795         28.9787 
       0.380519         29.5173         28.0024 
       0.386598         28.5448         27.0892 
       0.392688          27.661         26.2362 
        0.39888          26.998         25.4323 
       0.405048         26.2953         24.6872 
       0.411186         25.5568         23.9904 
       0.417313         24.8765         23.3253 
       0.423458           24.11         22.6784 
       0.429607         23.6581         22.0452 
       0.435692         23.1311         21.4295 
       0.441815         22.3269         20.8227 
       0.447964         21.6417         20.2312 
       0.454126         21.2154         19.6602 
       0.460267         20.8594         19.1163 
       0.466387         20.2358         18.6019 
        0.47254         19.8347          18.111 
       0.478662         19.2832         17.6458 
       0.484765         18.8444         17.2022 
       0.490885         18.3251         16.7738 
       0.497035         17.8833         16.3562 
       0.503198         17.5302         15.9487 
       0.509342         17.0482         15.5533 
       0.515458         16.7683         15.1704 
       0.521598         16.3855         14.7974 
       0.527764         16.1113         14.4353 
       0.533884         15.6267         14.0893 
           0.54         15.3389         13.7569 
       0.546137         14.9062         13.4361 
       0.552299         14.6355         13.1258 
       0.558452         14.3285         12.8268 
       0.564573         14.0961          12.539 
       0.570708         13.7844         12.2591 
       0.576825           13.52         11.9877 
       0.582926         13.2322         11.7243 
       0.589034         12.9961          11.468 
       0.595184         12.8013         11.2174 
       0.601379         12.4686         10.9728 
       0.607522         12.2378         10.7378 
       0.613639         11.9627          10.511 
       0.619772         11.7917         10.2908 
       0.625918         11.5486         10.0771 
       0.632068         11.3881         9.86962 
       0.638161         11.1622         9.67001 
         0.6443         10.9478         9.47439 
       0.650464         10.7009         9.28325 
       0.656582         10.6041         9.09855 
       0.662703         10.4338         8.91873 
       0.668861         10.1588         8.74276 
       0.675024         10.0005         8.57149 
       0.681124         9.96137         8.40667 
       0.687237         9.73049         8.24598 
       0.693381         9.48507         8.08885 
       0.699536         9.42118         7.93565 
       0.705665         9.24859         7.78718 
       0.711789         9.05369         7.64272 
       0.717957         8.88346           7.501 
        0.72409         8.78234          7.3637 
       0.730186         8.70007         7.23068 
       0.736317          8.5109         7.10023 
       0.742472         8.40346         6.97251 
       0.748622         8.27742         6.84805 
        0.75476         8.07869         6.72692 
       0.760888         8.01063         6.60895 
       0.767043          7.8263         6.49338 
       0.773185          7.7362         6.38089 
       0.779291         7.68804         6.27176 
       0.785407         7.53429         6.16508 
       0.791564         7.43661         6.06026 
       0.797719         7.30342         5.95796 
       0.803834         7.22047          5.8587 
       0.809972           7.097         5.76137 
       0.816124         7.00673         5.66606 
       0.822261         6.91364         5.57317 
       0.828378         6.80547         5.48267 
       0.834502         6.72248         5.39412 
       0.840667         6.65187         5.30697 
       0.846816         6.52738         5.22202 
       0.852925         6.44453         5.13949 
       0.859047         6.36112         5.05859 
       0.865192         6.27511         4.97919 
       0.871341         6.18759         4.90146 
       0.877463         6.10214         4.82576 
       0.883569         6.03328         4.75187 
       0.889708         5.95539         4.67917 
       0.895864         5.87864         4.60782 
       0.902008         5.78849         4.53812 
       0.908149         5.71801         4.46991 
       0.914301         5.66191         4.40301 
       0.920448         5.58847         4.33755 
       0.926574         5.55006         4.27367 
       0.932687         5.45833         4.21121 
       0.938823         5.36918          4.1498 
       0.944975          5.3276         4.08948 
       0.951105         5.23377         4.03058 
       0.957225         5.19454         3.97296 
       0.963368         5.14185         3.91628 
       0.969511         5.08234         3.86071 
       0.975621         5.01202         3.80653 
       0.981748         4.92335         3.75326 
       0.987916         4.88187         3.70069 
        0.99406         4.85005         3.64933 
        1.00019         4.79125         3.59906 
        1.00632         4.74428         3.54979 
        1.01246         4.67535         3.50138 
        1.01859         4.62492         3.45396 
        1.02471         4.55352         3.40748 
        1.03085         4.52332         3.36171 
        1.03698         4.47607         3.31689 
        1.04314         4.43231          3.2727 
        1.04929         4.37541         3.22943 
        1.05541         4.32071         3.18713 
        1.06154         4.28872         3.14548 
        1.06769         4.26066         3.10453 
        1.07382          4.1913         3.06444 
        1.07993         4.13999         3.02517 
        1.08607         4.11358         2.98642 
        1.09222         4.05594         2.94832 
        1.09836         4.04383         2.91094 
        1.10449         3.96211         2.87425 
        1.11063         3.93638         2.83816 
        1.11677         3.90371         2.80271 
         1.1229         3.85375         2.76793 
        1.12903         3.83103         2.73372 
        1.13518         3.77455         2.70006 
        1.14131         3.74154         2.66699 
        1.14745          3.6997         2.63449 
        1.15359         3.66769         2.60254 
        1.15973         3.62902         2.57111 
        1.16584         3.59444         2.54034 
        1.17197         3.55564         2.51003 
        1.17811          3.5215         2.48013 
        1.18424         3.48732         2.45081 
        1.19038         3.45448         2.42187 
        1.19652         3.43107         2.39342 
        1.20267         3.40222         2.36543 
        1.20881         3.36311          2.3379 
        1.21495         3.33411         2.31085 
        1.22108         3.30664         2.28424 
         1.2272         3.26033         2.25811 
        1.23334         3.24969         2.23234 
        1.23949          3.2144          2.2069 
        1.24562         3.18695         2.18194 
        1.25174         3.16156         2.15741 
        1.25789         3.12155         2.13318 
        1.26402         3.09139         2.10937 
        1.27014         3.06499         2.08598 
        1.27628         3.03998         2.06289 
        1.28244         3.01842          2.0401 
        1.28858         2.99091         2.01768 
        1.29471         2.95437         1.99566 
        1.30084         2.93386         1.97399 
        1.30697         2.91576         1.95261 
        1.31312         2.88947         1.93152 
        1.31925         2.86423         1.91081 
        1.32537         2.84366         1.89043 
        1.33151         2.81309         1.87027 
        1.33765          2.7931         1.85042 
        1.34378         2.77033          1.8309 
        1.34992          2.7502         1.81165 
        1.35606         2.72575         1.79264 
         1.3622         2.70628         1.77394 
        1.36833         2.67709         1.75555 
        1.37445         2.65472         1.73743 
        1.38059         2.63483         1.71951 
        1.38675         2.61461         1.70181 
        1.39288         2.59864         1.68442 
        1.39901         2.57153         1.66729 
        1.40515         2.55127         1.65036 
         1.4113         2.53805         1.63368 
        1.41742         2.50932         1.61729 
        1.42355         2.48779         1.60109 
         1.4297          2.4774         1.58507 
        1.43585         2.45429         1.56928 
        1.44198         2.43633         1.55376 
        1.44809         2.42009         1.53848 
        1.45423         2.40263         1.52335 
        1.46036         2.38432         1.50846 
        1.46649         2.35468         1.49376 
        1.47263         2.34873         1.47924 
        1.47877         2.33562         1.46493 
        1.48491         2.30678         1.45078 
        1.49104         2.29508         1.43685 
        1.49718         2.27622          1.4231 
        1.50333         2.25969          1.4095 
        1.50947         2.24526         1.39611 
         1.5156         2.22775         1.38292 
        1.52172         2.21339         1.36989 
        1.52787         2.19614         1.35701 
          1.534          2.1839         1.34432 
        1.54013         2.16416          1.3318 
        1.54627         2.14924         1.31941 
        1.55241         2.13007         1.30719 
        1.55855         2.11902         1.29513 
        1.56467         2.10423         1.28327 
         1.5708         2.08934         1.27152 
        1.57695          2.0706         1.25989 
        1.58308         2.05418         1.24845 
        1.58922         2.04928         1.23714 
        1.59535         2.02691         1.22597 
         1.6015         2.01194         1.21492 
        1.60764          2.0025         1.20402 
        1.61376         1.98539         1.19329 
        1.61989         1.97451         1.18267 
        1.62604         1.95584         1.17217 
        1.63218         1.95144         1.16179 
        1.63831         1.93588         1.15157 
        1.64444         1.92124         1.14147 
        1.65059         1.91249         1.13146 
        1.65673         1.89432         1.12159 
        1.66285         1.88297         1.11186 
        1.66898         1.87391         1.10225 
        1.67512         1.85491         1.09273 
        1.68127         1.84271         1.08331 
         1.6874         1.83938         1.07403 
        1.69353         1.82025         1.06486 
        1.69967         1.81056         1.05578 
        1.70581          1.8038         1.04681 
        1.71193         1.78353         1.03797 
        1.71806         1.77489         1.02922 
        1.72421         1.76671         1.02056 
        1.73035         1.74868           1.012 
        1.73649         1.74766         1.00355 
        1.74262         1.73175        0.995198 
        1.74876         1.71992        0.986937 
        1.75489          1.7112        0.978788 
        1.76101         1.69636        0.970733 
        1.76715         1.68871        0.962759 
        1.77329          1.6786        0.954865 
        1.77943         1.66874        0.947056 
        1.78557         1.66117        0.939347 
        1.79171         1.65108        0.931723 
        1.79785         1.63941        0.924182 
        1.80399         1.62833        0.916727 
        1.81012         1.61825        0.909364 
        1.81625         1.60626        0.902086 
        1.82239         1.59894        0.894877 
        1.82853          1.5896        0.887751 
        1.83466         1.57765         0.88071 
        1.84078         1.56859        0.873753 
        1.84692         1.56116        0.866861 
        1.85306         1.55527        0.860034 
         1.8592         1.54185        0.853293 
        1.86533         1.53471        0.846628 
        1.87147           1.522        0.840026 
        1.87761         1.51667        0.833493 
        1.88375         1.50738        0.827037 
        1.88988         1.49781        0.820657 
        1.89601         1.48931        0.814341 
        1.90215         1.48146        0.808086 
        1.90829         1.47409        0.801901 
        1.91442         1.46389         0.79578 
        1.92056         1.45905        0.789729 
         1.9267         1.45015        0.783735 
        1.93284         1.43917        0.777799 
        1.93897         1.43092        0.771937 
        1.94509         1.42677        0.766147 
        1.95123          1.4145        0.760403 
        1.95737         1.40896        0.754714 
        1.96349         1.40064        0.749098 
        1.96964         1.39508        0.743523 
        1.97578         1.38313        0.738002 
        1.98192         1.37603        0.732549 
        1.98805         1.37008        0.727151 
        1.99419         1.36279        0.721807 
        2.00033         1.35585        0.716515 
        2.00647         1.34931        0.711277 
         2.0126         1.34406        0.706101 
        2.01874         1.33472        0.700968 
        2.02488         1.32514        0.695883 
        2.03101         1.31984        0.690857 
        2.03714         1.31445        0.685886 
        2.04328         1.30526        0.680959 
        2.04941         1.29811        0.676084 
        2.05554         1.29231        0.671261 
        2.06167         1.28553        0.666478 
        2.06781         1.27631        0.661742 
        2.07396         1.27324        0.657045 
        2.08009         1.26549        0.652402 
        2.08622         1.25883        0.647809 
        2.09237         1.25318        0.643252 
        2.09851         1.24492        0.638738 
        2.10464         1.24189        0.634275 
        2.11077         1.23232         0.62986 
        2.11691         1.22654        0.625478 
        2.12305         1.22276        0.621137 
        2.12918         1.21344        0.616848 
        2.13531         1.20813          0.6126 
        2.14145         1.20192        0.608382 
         2.1476         1.19736        0.604199 
        2.15372         1.18954        0.600076 
        2.15985         1.18411        0.595988 
        2.16599         1.18017        0.591926 
        2.17213         1.17325        0.587907 
        2.17827         1.16554        0.583927 
         2.1844         1.16162        0.579987 
        2.19054         1.15588        0.576082 
        2.19666         1.15108        0.572218 
         2.2028         1.14413        0.568387 
        2.20893         1.13875        0.564589 
        2.21508         1.13358        0.560822 
        2.22122         1.13021        0.557088 
        2.22736         1.11988        0.553396 
        2.23349         1.11628        0.549738 
        2.23962         1.11224        0.546111 
        2.24577         1.10633        0.542515 
         2.2519         1.10052        0.538955 
        2.25802         1.09814        0.535434 
        2.26417         1.08996        0.531934 
        2.27031         1.08601        0.528462 
        2.27644         1.08229        0.525032 
        2.28257         1.07389        0.521632 
        2.28872         1.07252        0.518256 
        2.29486         1.06541        0.514911 
        2.30099         1.06097        0.511603 
        2.30712         1.05702        0.508322 
        2.31326         1.05213        0.505064 
         2.3194         1.04735        0.501837 
        2.32553         1.04127        0.498644 
        2.33166         1.03849         0.49548 
         2.3378         1.03276        0.492339 
        2.34394         1.02802        0.489225 
        2.35007         1.02081        0.486142 
        2.35619         1.01721        0.483089 
        2.36233          1.0125        0.480056 
        2.36848         1.01048        0.477042 
        2.37462           1.006        0.474061 
        2.38075        0.999455        0.471108 
        2.38689        0.996446        0.468178 
        2.39303        0.991764        0.465274 
        2.39916        0.986868        0.462397 
        2.40529        0.985112        0.459545 
        2.41143        0.976938        0.456715 
        2.41757        0.975052        0.453907 
         2.4237        0.970224        0.451129 
        2.42983         0.96496        0.448374 
        2.43598        0.962185        0.445634 
        2.44211        0.956818        0.442923 
        2.44823        0.953822         0.44024 
        2.45437        0.950148        0.437572 
        2.46052        0.946564        0.434924 
        2.46665        0.942065        0.432303 
        2.47279        0.937491        0.429704 
        2.47892         0.93339        0.427125 
        2.48507        0.931013        0.424565 
         2.4912        0.925388        0.422031 
