# k  (h/Mpc)    Pcb(k)  (Mpc/h)^3    Pcb_linear(k)  (Mpc/h)^3
     0.00783031         7741.95         7780.52 
       0.013688         9814.32         10015.6 
       0.019231         10419.5         10540.2 
      0.0249154           10144         10142.9 
      0.0312784          9075.3         9157.04 
      0.0375637         7930.51         8052.39 
      0.0433917          7092.9         7134.91 
      0.0492413         6316.21         6400.98 
      0.0555754         5778.19         5815.18 
      0.0619321          5215.9         5386.96 
       0.067871         4962.47         5061.02 
      0.0738098         4676.83         4748.15 
      0.0800417         4338.81         4396.62 
      0.0862327         3943.56         4017.06 
      0.0921407         3587.82          3644.1 
      0.0982031         3267.28         3279.27 
       0.104506         2908.01         2947.56 
       0.110769         2664.46         2682.52 
       0.116806         2520.53         2489.02 
       0.122832         2352.25         2345.78 
       0.129052         2242.01         2231.91 
       0.135211         2172.91         2133.08 
       0.141259         2042.81         2033.66 
       0.147318         1906.79         1923.13 
       0.153489         1803.64         1798.81 
       0.159709         1714.46         1667.91 
       0.165845         1559.69         1542.74 
       0.171974         1505.28         1430.39 
       0.178125         1431.59         1335.75 
       0.184229         1323.42         1260.86 
        0.19034         1293.04         1202.25 
       0.196428         1252.29         1155.07 
       0.202534         1178.49         1113.08 
       0.208729         1159.74         1070.69 
       0.214876          1116.8         1025.54 
       0.220989         1049.91         976.805 
       0.227147         1024.69         925.271 
        0.23329         983.226         874.093 
       0.239377         962.519         826.426 
       0.245482         911.341         783.763 
       0.251667         874.585         746.781 
       0.257832         863.334         715.851 
       0.263955         819.085         689.726 
       0.270079         794.202         666.443 
        0.27624         762.218         644.134 
       0.282372         748.133         621.756 
        0.28843         742.468         598.874 
       0.294538         705.315         575.092 
       0.300721         684.205         550.923 
        0.30691         672.357         527.446 
       0.313033         643.355         505.721 
       0.319153         632.612         485.968 
       0.325316         621.001         468.214 
        0.33145         607.527         452.425 
       0.337538         586.364         438.193 
       0.343633         569.817         424.832 
       0.349808         556.198          411.74 
       0.355968         545.841          398.78 
       0.362074         529.622         385.928 
       0.368217         525.714         373.059 
       0.374374         515.469         360.402 
       0.380519         495.347          348.26 
       0.386598         489.648         336.902 
       0.392688          479.21         326.293 
        0.39888         466.574         316.296 
       0.405048         458.972         307.029 
       0.411186         456.369         298.363 
       0.417313         450.119         290.092 
       0.423458         437.226         282.046 
       0.429607         426.513         274.172 
       0.435692          419.52         266.514 
       0.441815         412.815         258.968 
       0.447964          403.65          251.61 
       0.454126         398.411         244.509 
       0.460267         392.573         237.745 
       0.466387         386.137         231.347 
        0.47254         380.812         225.242 
       0.478662         371.619         219.457 
       0.484765         367.711          213.94 
       0.490885         363.617         208.612 
       0.497035         357.495         203.418 
       0.503198         355.839          198.35 
       0.509342         346.655         193.432 
       0.515458         342.185         188.671 
       0.521598         335.876         184.032 
       0.527764         331.442         179.528 
       0.533884         330.595         175.225 
           0.54         324.695         171.092 
       0.546137         317.784         167.102 
       0.552299          316.78         163.242 
       0.558452         311.613         159.524 
       0.564573         308.833         155.945 
       0.570708         303.901         152.464 
       0.576825         299.041         149.088 
       0.582926         296.306         145.812 
       0.589034         292.425         142.624 
       0.595184         290.513         139.509 
       0.601379         285.309         136.467 
       0.607522         280.358         133.543 
       0.613639         278.723         130.723 
       0.619772         276.971         127.985 
       0.625918         273.567         125.326 
       0.632068         268.772         122.746 
       0.638161         266.478         120.264 
         0.6443         264.792         117.831 
       0.650464         260.368         115.453 
       0.656582          258.34         113.156 
       0.662703         256.466          110.92 
       0.668861          251.94         108.731 
       0.675024         251.256         106.601 
       0.681124         248.176         104.552 
       0.687237         245.553         102.553 
       0.693381         243.236         100.599 
       0.699536          240.53         98.6937 
       0.705665         238.098         96.8472 
       0.711789         235.986         95.0506 
       0.717957         233.326         93.2881 
        0.72409         231.272         91.5805 
       0.730186         231.848         89.9262 
       0.736317         227.788         88.3037 
       0.742472         224.936         86.7153 
       0.748622         221.972         85.1675 
        0.75476         222.682          83.661 
       0.760888         219.957         82.1938 
       0.767043         217.042         80.7566 
       0.773185         215.487         79.3575 
       0.779291         212.509         78.0003 
       0.785407         211.574         76.6735 
       0.791564         209.626         75.3698 
       0.797719         206.715         74.0976 
       0.803834         207.468         72.8632 
       0.809972         205.647         71.6527 
       0.816124         202.743         70.4673 
       0.822261         200.839         69.3121 
       0.828378         200.916         68.1865 
       0.834502         197.599         67.0852 
       0.840667         197.276         66.0014 
       0.846816         194.859         64.9449 
       0.852925         193.484         63.9185 
       0.859047         191.554         62.9123 
       0.865192         191.117         61.9248 
       0.871341         188.635         60.9581 
       0.877463         187.173         60.0167 
       0.883569         187.003         59.0978 
       0.889708         185.369         58.1936 
       0.895864          183.65         57.3062 
       0.902008         181.972         56.4394 
       0.908149         180.051         55.5911 
       0.914301         179.865         54.7591 
       0.920448         178.876          53.945 
       0.926574         176.537         53.1505 
       0.932687         175.998         52.3738 
       0.938823         174.716           51.61 
       0.944975         173.104         50.8598 
       0.951105         171.736         50.1273 
       0.957225         171.229         49.4107 
       0.963368         169.625         48.7057 
       0.969511         167.846         48.0147 
       0.975621         166.757         47.3408 
       0.981748         165.528         46.6784 
       0.987916         164.804         46.0245 
        0.99406         163.747         45.3858 
        1.00019         162.537         44.7605 
        1.00632         161.723         44.1478 
        1.01246         160.553         43.5457 
        1.01859         159.349          42.956 
        1.02471          158.17          42.378 
        1.03085          157.11         41.8088 
        1.03698         155.971         41.2513 
        1.04314         155.392         40.7017 
        1.04929         154.675         40.1636 
        1.05541         153.569         39.6375 
        1.06154         152.495         39.1195 
        1.06769         151.226         38.6102 
        1.07382         150.505         38.1117 
        1.07993         149.548         37.6232 
        1.08607         148.358         37.1413 
        1.09222         147.733         36.6675 
        1.09836         146.506         36.2025 
        1.10449         145.426         35.7463 
        1.11063          144.65         35.2975 
        1.11677         143.898         34.8566 
         1.1229         142.738          34.424 
        1.12903         142.218         33.9985 
        1.13518         141.256         33.5799 
        1.14131         140.427         33.1686 
        1.14745         139.489         32.7645 
        1.15359         138.061         32.3671 
        1.15973         137.695         31.9762 
        1.16584         136.911         31.5935 
        1.17197         136.168         31.2166 
        1.17811         135.006         30.8447 
        1.18424          134.37           30.48 
        1.19038         133.822         30.1202 
        1.19652         132.731         29.7663 
        1.20267         131.963         29.4182 
        1.20881         131.142         29.0758 
        1.21495         130.681         28.7394 
        1.22108         129.753         28.4085 
         1.2272         128.772         28.0835 
        1.23334         128.451          27.763 
        1.23949         127.804         27.4467 
        1.24562         126.721         27.1362 
        1.25174         125.768         26.8311 
        1.25789          125.45         26.5298 
        1.26402         124.795         26.2337 
        1.27014         124.067         25.9428 
        1.27628         122.713         25.6555 
        1.28244         122.605         25.3721 
        1.28858         121.567         25.0934 
        1.29471         120.844         24.8195 
        1.30084         120.186           24.55 
        1.30697         119.864         24.2841 
        1.31312         118.986         24.0218 
        1.31925          118.12         23.7642 
        1.32537         117.697         23.5107 
        1.33151         117.306           23.26 
        1.33765         116.137         23.0132 
        1.34378         116.044         22.7704 
        1.34992         115.505          22.531 
        1.35606         114.566         22.2946 
         1.3622         114.306          22.062 
        1.36833          113.06         21.8332 
        1.37445         112.712         21.6079 
        1.38059         112.214         21.3851 
        1.38675         111.322         21.1649 
        1.39288         110.905         20.9487 
        1.39901         109.896         20.7357 
        1.40515         109.679         20.5251 
         1.4113         109.126         20.3176 
        1.41742         108.283         20.1137 
        1.42355          107.94         19.9123 
         1.4297         107.178         19.7131 
        1.43585         106.506         19.5167 
        1.44198         105.933         19.3237 
        1.44809         105.238         19.1337 
        1.45423         104.885         18.9455 
        1.46036         104.076         18.7603 
        1.46649          103.52         18.5774 
        1.47263         103.224         18.3969 
        1.47877         102.563         18.2189 
        1.48491         101.942          18.043 
        1.49104         101.029         17.8697 
        1.49718         100.974         17.6986 
        1.50333         100.341         17.5296 
        1.50947         99.9955          17.363 
         1.5156         99.4746         17.1989 
        1.52172         98.7314          17.037 
        1.52787         98.1748         16.8768 
          1.534           97.81         16.7189 
        1.54013         97.3738         16.5632 
        1.54627         96.5341         16.4092 
        1.55241         96.1288         16.2571 
        1.55855         95.6563         16.1072 
        1.56467          94.799         15.9596 
         1.5708         94.5693         15.8135 
        1.57695          94.166          15.669 
        1.58308         93.6513         15.5266 
        1.58922         93.3235         15.3859 
        1.59535         92.9157          15.247 
         1.6015         92.3749         15.1097 
        1.60764         91.7966         14.9741 
        1.61376         91.2151         14.8406 
        1.61989         90.6359         14.7086 
        1.62604         90.3039         14.5779 
        1.63218         90.0104         14.4489 
        1.63831         89.3766         14.3218 
        1.64444         89.0042         14.1961 
        1.65059         88.4655         14.0717 
        1.65673          87.891         13.9489 
        1.66285         87.3342         13.8279 
        1.66898         86.8902         13.7083 
        1.67512         86.6235         13.5899 
        1.68127         86.2124         13.4728 
         1.6874         85.6528         13.3574 
        1.69353         85.1981         13.2434 
        1.69967         84.9298         13.1304 
        1.70581         84.4607         13.0188 
        1.71193         83.9821          12.909 
        1.71806          83.344         12.8002 
        1.72421           83.12         12.6924 
        1.73035         82.8953          12.586 
        1.73649         82.2502         12.4809 
        1.74262         81.6382          12.377 
        1.74876          81.389         12.2743 
        1.75489         80.7954         12.1729 
        1.76101         80.3829         12.0727 
        1.76715         80.1712         11.9736 
        1.77329          79.605         11.8754 
        1.77943         79.3423         11.7783 
        1.78557         79.0228         11.6824 
        1.79171         78.5417         11.5876 
        1.79785         78.0701         11.4938 
        1.80399         77.7036         11.4011 
        1.81012         77.2624         11.3095 
        1.81625         77.0346          11.219 
        1.82239         76.6969         11.1293 
        1.82853         76.0541         11.0407 
        1.83466         75.7579         10.9531 
        1.84078         75.4205         10.8666 
        1.84692         75.1668         10.7809 
        1.85306         74.7215          10.696 
         1.8592         74.3716         10.6121 
        1.86533          73.912         10.5293 
        1.87147         73.5185         10.4472 
        1.87761         73.0784         10.3659 
        1.88375         72.6747         10.2856 
        1.88988         72.3474         10.2063 
        1.89601         71.9561         10.1277 
        1.90215         71.5507         10.0499 
        1.90829         71.3392           9.973 
        1.91442         70.9481         9.89688 
        1.92056          70.606         9.82162 
         1.9267         70.2322         9.74707 
        1.93284         70.0101         9.67325 
        1.93897         69.6509         9.60034 
        1.94509         69.1957         9.52835 
        1.95123         68.9092          9.4569 
        1.95737         68.4507         9.38615 
        1.96349         68.1979          9.3163 
        1.96964          67.829         9.24697 
        1.97578         67.4154         9.17831 
        1.98192          67.128          9.1105 
        1.98805         66.7167         9.04336 
        1.99419          66.392          8.9769 
        2.00033         66.0604         8.91108 
        2.00647         65.8332         8.84594 
         2.0126         65.4236         8.78156 
        2.01874          65.251         8.71773 
        2.02488         64.8867         8.65448 
        2.03101         64.5252         8.59198 
        2.03714         64.3604         8.53016 
        2.04328         63.8888         8.46888 
        2.04941         63.4394         8.40825 
        2.05554         63.3766         8.34827 
        2.06167         63.1484         8.28879 
        2.06781         62.5592         8.22988 
        2.07396         62.2763         8.17147 
        2.08009         62.1016         8.11372 
        2.08622         61.7055          8.0566 
        2.09237         61.3935         7.99993 
        2.09851         61.0459         7.94379 
        2.10464          60.809         7.88828 
        2.11077         60.5618         7.83338 
        2.11691         60.1994         7.77887 
        2.12305         59.8412         7.72489 
        2.12918         59.5751         7.67155 
        2.13531         59.3509         7.61871 
        2.14145         58.9508         7.56626 
         2.1476          58.767         7.51423 
        2.15372         58.5417         7.46296 
        2.15985         58.1261         7.41212 
        2.16599         57.8235         7.36161 
        2.17213         57.5901         7.31162 
        2.17827         57.3188         7.26211 
         2.1844         57.0431         7.21311 
        2.19054         56.7625         7.16455 
        2.19666         56.4137          7.1165 
         2.2028         56.1967         7.06885 
        2.20893         55.8501         7.02162 
        2.21508         55.5528         6.97477 
        2.22122          55.329         6.92833 
        2.22736         55.0058         6.88241 
        2.23349         54.8765         6.83692 
        2.23962         54.5669         6.79182 
        2.24577         54.2978         6.74708 
         2.2519         53.9992         6.70282 
        2.25802         53.7764         6.65902 
        2.26417         53.5076         6.61549 
        2.27031         53.2152         6.57232 
        2.27644         53.0368         6.52966 
        2.28257         52.6681         6.48738 
        2.28872          52.602         6.44539 
        2.29486         52.2846         6.40379 
        2.30099         51.8885         6.36264 
        2.30712          51.779         6.32184 
        2.31326         51.4719         6.28132 
         2.3194          51.168         6.24119 
        2.32553         51.0948         6.20148 
        2.33166         50.6412         6.16212 
         2.3378         50.4296         6.12306 
        2.34394         50.1698         6.08433 
        2.35007         49.9369         6.04599 
        2.35619         49.8112         6.00802 
        2.36233         49.4115          5.9703 
        2.36848         49.2452         5.93282 
        2.37462         48.9682         5.89574 
        2.38075         48.8261         5.85902 
        2.38689         48.6146         5.82258 
        2.39303         48.3866         5.78646 
        2.39916         48.1382         5.75068 
        2.40529         47.8862         5.71521 
        2.41143         47.6224         5.68001 
        2.41757         47.4462          5.6451 
         2.4237         47.2801         5.61054 
        2.42983         46.9424         5.57628 
        2.43598         46.6904         5.54221 
        2.44211         46.5416         5.50849 
        2.44823         46.2999         5.47512 
        2.45437         46.1046         5.44194 
        2.46052         45.7822         5.40901 
        2.46665         45.6033         5.37641 
        2.47279         45.3936         5.34409 
        2.47892         45.1642         5.31202 
        2.48507         45.0371         5.28018 
         2.4912         44.7135         5.24866 
