# k  (h/Mpc)    P(k)  (Mpc/h)^3    P_linear(k)  (Mpc/h)^3
     0.00783031         222.264         224.134 
       0.013688          286.21         288.474 
       0.019231         302.698         303.593 
      0.0249154         291.863          292.16 
      0.0312784         263.585         263.771 
      0.0375637           231.8         231.957 
      0.0433917         205.902         205.532 
      0.0492413         184.466         184.392 
      0.0555754          167.98         167.519 
      0.0619321         154.755         155.184 
       0.067871         145.811         145.795 
      0.0738098         136.803         136.783 
      0.0800417         126.814         126.657 
      0.0862327         115.705         115.723 
      0.0921407         104.965         104.979 
      0.0982031          94.655         94.4692 
       0.104506         84.8305         84.9136 
       0.110769         77.2535         77.2785 
       0.116806         71.9188         71.7042 
       0.122832         67.5847         67.5776 
       0.129052         64.4254         64.2975 
       0.135211          61.633         61.4504 
       0.141259         58.6207         58.5862 
       0.147318         55.2883          55.402 
       0.153489         51.8296         51.8206 
       0.159709         48.1419         48.0498 
       0.165845         44.3297         44.4438 
       0.171974          41.379         41.2072 
       0.178125         38.6391         38.4807 
       0.184229          36.389         36.3235 
        0.19034         34.8415         34.6351 
       0.196428         33.4266         33.2757 
       0.202534         32.0491         32.0662 
       0.208729         30.9505         30.8448 
       0.214876         29.7329         29.5441 
       0.220989         28.1471         28.1403 
       0.227147         26.8654         26.6557 
        0.23329         25.4157         25.1813 
       0.239377         24.0644         23.8081 
       0.245482         22.8274          22.579 
       0.251667         21.6854         21.5137 
       0.257832         20.8932         20.6226 
       0.263955         20.0632           19.87 
       0.270079         19.3902         19.1992 
        0.27624         18.6776         18.5565 
       0.282372          18.045         17.9119 
        0.28843         17.4863         17.2527 
       0.294538         16.7794         16.5676 
       0.300721         16.0242         15.8713 
        0.30691         15.4373         15.1949 
       0.313033         14.7893         14.5691 
       0.319153         14.3182              14 
       0.325316         13.6759         13.4886 
        0.33145         13.2191         13.0337 
       0.337538         12.8355         12.6237 
       0.343633         12.4775         12.2388 
       0.349808         12.0727         11.8616 
       0.355968          11.689         11.4883 
       0.362074         11.3594          11.118 
       0.368217         10.9769         10.7473 
       0.374374         10.6714         10.3827 
       0.380519          10.262         10.0329 
       0.386598         9.91564         9.70566 
       0.392688         9.60123         9.40005 
        0.39888         9.34016         9.11205 
       0.405048         9.08071         8.84508 
       0.411186         8.82147          8.5954 
       0.417313          8.5882         8.35716 
       0.423458         8.32305         8.12534 
       0.429607         8.13871          7.8985 
       0.435692         7.93059         7.67789 
       0.441815          7.6821         7.46049 
       0.447964         7.44557         7.24853 
       0.454126         7.27551         7.04396 
       0.460267         7.11467          6.8491 
       0.466387         6.91012         6.66479 
        0.47254         6.74757         6.48891 
       0.478662         6.56859         6.32225 
       0.484765         6.41297          6.1633 
       0.490885         6.24293          6.0098 
       0.497035         6.07312         5.86018 
       0.503198         5.94845         5.71419 
       0.509342         5.78613         5.57251 
       0.515458          5.6691         5.43534 
       0.521598         5.53709         5.30169 
       0.527764          5.4271         5.17195 
       0.533884         5.26601         5.04797 
           0.54         5.15945         4.92892 
       0.546137         5.02476         4.81397 
       0.552299         4.92361         4.70278 
       0.558452         4.81696         4.59567 
       0.564573         4.72023         4.49255 
       0.570708         4.61745         4.39227 
       0.576825         4.51922         4.29502 
       0.582926         4.41503         4.20065 
       0.589034         4.33861          4.1088 
       0.595184         4.25692         4.01904 
       0.601379         4.15267         3.93141 
       0.607522         4.06508          3.8472 
       0.613639         3.96941         3.76595 
       0.619772         3.90823         3.68705 
       0.625918         3.82839         3.61046 
       0.632068         3.75691         3.53614 
       0.638161         3.68207         3.46462 
         0.6443         3.60776         3.39454 
       0.650464         3.53582         3.32605 
       0.656582         3.48441         3.25988 
       0.662703         3.41713         3.19545 
       0.668861         3.33374          3.1324 
       0.675024          3.2776         3.07104 
       0.681124         3.24961         3.01199 
       0.687237         3.17216         2.95441 
       0.693381         3.09743         2.89812 
       0.699536         3.06352         2.84323 
       0.705665         3.00638         2.79003 
       0.711789           2.941         2.73828 
       0.717957         2.89116          2.6875 
        0.72409         2.84288         2.63831 
       0.730186         2.80695         2.59065 
       0.736317         2.74743         2.54391 
       0.742472         2.70896         2.49815 
       0.748622         2.66611         2.45356 
        0.75476         2.60902         2.41016 
       0.760888         2.57782         2.36789 
       0.767043         2.51118         2.32649 
       0.773185          2.4816         2.28618 
       0.779291         2.45577         2.24708 
       0.785407         2.40896         2.20886 
       0.791564         2.37089          2.1713 
       0.797719         2.33063         2.13465 
       0.803834         2.29368         2.09909 
       0.809972         2.25857         2.06422 
       0.816124         2.22372         2.03007 
       0.822261         2.19188         1.99679 
       0.828378         2.15395         1.96436 
       0.834502         2.12269         1.93263 
       0.840667         2.09596         1.90141 
       0.846816         2.06174         1.87097 
       0.852925         2.02595          1.8414 
       0.859047         1.99767         1.81242 
       0.865192            1.97         1.78397 
       0.871341          1.9437         1.75612 
       0.877463         1.90917           1.729 
       0.883569         1.88351         1.70253 
       0.889708          1.8612         1.67648 
       0.895864         1.83469         1.65091 
       0.902008         1.80334         1.62594 
       0.908149         1.78158          1.6015 
       0.914301         1.76107         1.57753 
       0.920448         1.73644         1.55408 
       0.926574         1.71768         1.53119 
       0.932687         1.69125         1.50882 
       0.938823         1.66148         1.48681 
       0.944975         1.64474          1.4652 
       0.951105         1.61475          1.4441 
       0.957225         1.59556         1.42345 
       0.963368         1.57888         1.40315 
       0.969511         1.56055         1.38324 
       0.975621         1.53588         1.36383 
       0.981748         1.50914         1.34474 
       0.987916          1.4928          1.3259 
        0.99406         1.47849          1.3075 
        1.00019          1.4578         1.28949 
        1.00632         1.44442         1.27184 
        1.01246         1.42369         1.25449 
        1.01859         1.40635          1.2375 
        1.02471         1.38316         1.22085 
        1.03085         1.36628         1.20445 
        1.03698         1.35345         1.18839 
        1.04314         1.33711         1.17256 
        1.04929         1.32376         1.15706 
        1.05541         1.30108          1.1419 
        1.06154         1.28979         1.12698 
        1.06769         1.27574         1.11231 
        1.07382          1.2591         1.09795 
        1.07993         1.24416         1.08387 
        1.08607         1.23017         1.06999 
        1.09222         1.21289         1.05634 
        1.09836         1.20202         1.04295 
        1.10449         1.18416          1.0298 
        1.11063         1.17058         1.01687 
        1.11677         1.16055         1.00417 
         1.1229         1.14222        0.991709 
        1.12903         1.13367        0.979451 
        1.13518         1.11826        0.967391 
        1.14131         1.10792        0.955543 
        1.14745          1.0977        0.943901 
        1.15359         1.08311        0.932453 
        1.15973         1.07253        0.921191 
        1.16584         1.05835        0.910166 
        1.17197          1.0462        0.899308 
        1.17811         1.03458        0.888594 
        1.18424         1.02356        0.878088 
        1.19038         1.01114        0.867722 
        1.19652         1.00479        0.857529 
        1.20267        0.994646          0.8475 
        1.20881        0.979166        0.837636 
        1.21495        0.971157        0.827945 
        1.22108        0.961651         0.81841 
         1.2272         0.94853        0.809049 
        1.23334         0.94038        0.799814 
        1.23949        0.932808        0.790702 
        1.24562        0.922172        0.781759 
        1.25174         0.91248        0.772968 
        1.25789        0.900628        0.764288 
        1.26402        0.892765        0.755757 
        1.27014        0.881543        0.747378 
        1.27628        0.875687        0.739102 
        1.28244         0.86726        0.730937 
        1.28858        0.856093        0.722907 
        1.29471          0.8479        0.715016 
        1.30084        0.840164        0.707252 
        1.30697        0.834345        0.699592 
        1.31312        0.825236        0.692036 
        1.31925        0.816697        0.684616 
        1.32537         0.80923        0.677312 
        1.33151        0.800509        0.670091 
        1.33765        0.792966        0.662979 
        1.34378        0.783556        0.655986 
        1.34992        0.779839        0.649089 
        1.35606        0.770276        0.642277 
         1.3622        0.763627        0.635576 
        1.36833        0.757359        0.628987 
        1.37445        0.750419        0.622495 
        1.38059        0.742777        0.616076 
        1.38675        0.735245        0.609733 
        1.39288        0.727542        0.603505 
        1.39901        0.722656        0.597367 
        1.40515        0.715066        0.591301 
         1.4113        0.711174        0.585323 
        1.41742        0.702933         0.57945 
        1.42355        0.694199        0.573648 
         1.4297         0.69142        0.567908 
        1.43585         0.68309        0.562249 
        1.44198        0.678093        0.556689 
        1.44809        0.670927        0.551216 
        1.45423        0.666404        0.545796 
        1.46036        0.659997        0.540459 
        1.46649        0.653644        0.535192 
        1.47263        0.647027        0.529991 
        1.47877        0.645065        0.524862 
        1.48491        0.635354        0.519794 
        1.49104        0.633454        0.514803 
        1.49718        0.625799        0.509875 
        1.50333         0.62169        0.505004 
        1.50947        0.617011        0.500206 
         1.5156        0.610879        0.495479 
        1.52172        0.606473        0.490813 
        1.52787        0.599342        0.486199 
          1.534        0.596451        0.481649 
        1.54013        0.591181        0.477163 
        1.54627        0.586108        0.472726 
        1.55241        0.580483        0.468346 
        1.55855        0.576129        0.464027 
        1.56467        0.571834        0.459776 
         1.5708        0.566388        0.455565 
        1.57695        0.561604        0.451402 
        1.58308        0.555378        0.447301 
        1.58922         0.55332        0.443248 
        1.59535        0.547533        0.439247 
         1.6015        0.543484         0.43529 
        1.60764         0.53919        0.431384 
        1.61376        0.534818        0.427537 
        1.61989        0.530408        0.423735 
        1.62604        0.525806         0.41997 
        1.63218        0.523085        0.416254 
        1.63831        0.517684        0.412591 
        1.64444        0.514245        0.408971 
        1.65059        0.509473        0.405387 
        1.65673        0.505921        0.401849 
        1.66285         0.50274        0.398364 
        1.66898        0.498308        0.394919 
        1.67512        0.493828        0.391508 
        1.68127        0.489659        0.388135 
         1.6874         0.48702        0.384809 
        1.69353        0.482999        0.381524 
        1.69967        0.479106         0.37827 
        1.70581         0.47634        0.375056 
        1.71193        0.473046        0.371891 
        1.71806        0.469077        0.368756 
        1.72421         0.46529        0.365652 
        1.73035        0.461002        0.362586 
        1.73649        0.459568        0.359557 
        1.74262        0.454349        0.356565 
        1.74876        0.452074        0.353605 
        1.75489          0.4489        0.350686 
        1.76101        0.444764          0.3478 
        1.76715        0.442142        0.344943 
        1.77329        0.438583        0.342114 
        1.77943        0.435212        0.339317 
        1.78557        0.433501        0.336554 
        1.79171         0.43001        0.333823 
        1.79785         0.42623        0.331121 
        1.80399        0.422353         0.32845 
        1.81012        0.420506        0.325812 
        1.81625         0.41808        0.323204 
        1.82239         0.41531        0.320622 
        1.82853        0.411432        0.318068 
        1.83466        0.408431        0.315546 
        1.84078        0.405333        0.313053 
        1.84692        0.402953        0.310584 
        1.85306         0.40045        0.308138 
         1.8592        0.397446        0.305722 
        1.86533         0.39526        0.303334 
        1.87147        0.391672        0.300969 
        1.87761        0.389123        0.298628 
        1.88375        0.386514        0.296315 
        1.88988         0.38354         0.29403 
        1.89601        0.380195        0.291767 
        1.90215        0.378588        0.289526 
        1.90829        0.375385         0.28731 
        1.91442        0.373806        0.285117 
        1.92056        0.371956        0.282948 
         1.9267        0.368435        0.280801 
        1.93284        0.365609        0.278674 
        1.93897         0.36391        0.276574 
        1.94509         0.36164          0.2745 
        1.95123        0.358453        0.272441 
        1.95737        0.356446        0.270403 
        1.96349        0.354064        0.268391 
        1.96964        0.351601        0.266393 
        1.97578        0.349093        0.264416 
        1.98192        0.347636        0.262462 
        1.98805        0.345466        0.260528 
        1.99419        0.343605        0.258613 
        2.00033        0.340925        0.256717 
        2.00647        0.338522         0.25484 
         2.0126         0.33668        0.252986 
        2.01874        0.334724        0.251147 
        2.02488        0.332401        0.249325 
        2.03101        0.329903        0.247524 
        2.03714        0.328986        0.245743 
        2.04328        0.325738        0.243978 
        2.04941        0.324561        0.242231 
        2.05554        0.322505        0.240503 
        2.06167        0.320282         0.23879 
        2.06781        0.317215        0.237093 
        2.07396        0.316309         0.23541 
        2.08009        0.314144        0.233746 
        2.08622        0.312567        0.232101 
        2.09237         0.31047        0.230468 
        2.09851        0.308122        0.228851 
        2.10464        0.306518        0.227252 
        2.11077         0.30433         0.22567 
        2.11691        0.303003          0.2241 
        2.12305        0.300658        0.222545 
        2.12918        0.298921        0.221008 
        2.13531        0.297566        0.219486 
        2.14145        0.295498        0.217974 
         2.1476        0.294062        0.216476 
        2.15372        0.292302        0.214999 
        2.15985         0.29013        0.213534 
        2.16599        0.288543        0.212079 
        2.17213         0.28716        0.210639 
        2.17827         0.28515        0.209213 
         2.1844        0.283903        0.207801 
        2.19054        0.282345        0.206402 
        2.19666        0.280689        0.205018 
         2.2028        0.278259        0.203645 
        2.20893        0.277236        0.202284 
        2.21508        0.275648        0.200934 
        2.22122         0.27441        0.199597 
        2.22736        0.272148        0.198274 
        2.23349        0.270416        0.196963 
        2.23962         0.26911        0.195664 
        2.24577        0.267908        0.194375 
         2.2519        0.266404          0.1931 
        2.25802        0.264763        0.191838 
        2.26417         0.26352        0.190584 
        2.27031        0.261733         0.18934 
        2.27644        0.261146        0.188111 
        2.28257        0.259152        0.186893 
        2.28872        0.257696        0.185684 
        2.29486        0.256291        0.184485 
        2.30099        0.254679          0.1833 
        2.30712         0.25338        0.182124 
        2.31326        0.251742        0.180957 
         2.3194         0.25079        0.179801 
        2.32553        0.249386        0.178657 
        2.33166        0.248046        0.177523 
         2.3378        0.246626        0.176398 
        2.34394        0.245341        0.175282 
        2.35007        0.243984        0.174178 
        2.35619        0.242769        0.173084 
        2.36233        0.241138        0.171997 
        2.36848        0.240118        0.170917 
        2.37462         0.23925        0.169849 
        2.38075        0.237746        0.168791 
        2.38689        0.236598        0.167742 
        2.39303        0.235219        0.166701 
        2.39916        0.233842         0.16567 
        2.40529          0.2328        0.164648 
        2.41143        0.231077        0.163634 
        2.41757        0.230172        0.162628 
         2.4237        0.229101        0.161633 
        2.42983        0.228416        0.160646 
        2.43598        0.226758        0.159664 
        2.44211        0.224873        0.158693 
        2.44823        0.224727        0.157732 
        2.45437         0.22342        0.156776 
        2.46052        0.222242        0.155827 
        2.46665         0.22094        0.154888 
        2.47279         0.21971        0.153957 
        2.47892        0.219128        0.153033 
        2.48507        0.217574        0.152116 
         2.4912        0.216845        0.151208 
