#  k  (h/Mpc)          P(k)  (Mpc/h)^3     P_linear(k) (Mpc/h)^3
     0.00783031         2342.29         2367.62 
       0.013688         2893.17         2892.43 
       0.019231         2871.91          2869.6 
      0.0249154         2557.89         2576.68 
      0.0312784         2145.38         2147.42 
      0.0375637         1771.64         1764.44 
      0.0433917         1497.98         1500.31 
      0.0492413         1327.16         1324.63 
      0.0555754         1200.83         1208.44 
      0.0619321         1137.33         1130.76 
       0.067871         1056.47         1062.15 
      0.0738098         973.546         979.481 
      0.0800417         866.727         874.788 
      0.0862327         760.632         762.983 
      0.0921407         665.304         663.347 
      0.0982031         579.768          579.72 
       0.104506          524.64         517.803 
       0.110769         484.935         479.386 
       0.116806          459.23         457.464 
       0.122832         445.367         441.989 
       0.129052         423.962         424.689 
       0.135211         400.492           401.2 
       0.141259         373.765         371.296 
       0.147318         342.141         337.435 
       0.153489         307.452         303.559 
       0.159709         279.849         274.285 
       0.165845         260.803         252.445 
       0.171974         243.577         237.663 
       0.178125          234.33         228.219 
       0.184229          227.65         221.615 
        0.19034         217.423         215.131 
       0.196428          211.42         206.902 
       0.202534         202.791         196.191 
       0.208729         189.141         183.376 
       0.214876         175.266         170.095 
       0.220989         165.353         157.822 
       0.227147         153.777         147.493 
        0.23329         146.145         139.631 
       0.239377         141.281         133.995 
       0.245482          134.72         129.781 
       0.251667         132.499         126.079 
       0.257832         128.314         122.151 
       0.263955         123.518         117.542 
       0.270079         118.253         112.189 
        0.27624         113.958         106.355 
       0.282372         108.437         100.585 
        0.28843          102.88          95.372 
       0.294538         98.2367         90.8857 
       0.300721         95.6511         87.2084 
        0.30691         91.6093         84.2407 
       0.313033         89.0443          81.749 
       0.319153         85.2741          79.392 
       0.325316         84.0345         76.9278 
        0.33145         80.8226         74.2586 
       0.337538         78.5501          71.425 
       0.343633         75.4012         68.5097 
       0.349808         72.8375         65.6433 
       0.355968         70.5112         63.0084 
       0.362074         68.0717         60.6952 
       0.368217          65.996         58.6803 
       0.374374         64.0065         56.9052 
       0.380519         62.5101         55.2934 
       0.386598         60.8595         53.7547 
       0.392688         59.5817         52.1979 
        0.39888         57.7807          50.576 
       0.405048         56.2864         48.9222 
       0.411186         54.7984         47.2852 
       0.417313         52.9432         45.7114 
       0.423458         51.5072         44.2299 
       0.429607         50.0875          42.869 
       0.435692         48.4993         41.6445 
       0.441815           47.71          40.506 
       0.447964         46.8782         39.4285 
       0.454126         44.9914          38.387 
       0.460267         44.2462         37.3609 
       0.466387          42.976         36.3383 
        0.47254         42.2461         35.3195 
       0.478662          41.483         34.3267 
       0.484765         40.1998         33.3695 
       0.490885         39.2764         32.4544 
       0.497035         38.7399         31.5901 
       0.503198          37.684         30.7771 
       0.509342         36.7179         30.0089 
       0.515458          35.958          29.276 
       0.521598         35.3471         28.5644 
       0.527764         34.5996         27.8675 
       0.533884         34.0077         27.1882 
           0.54         33.2374         26.5205 
       0.546137         32.7096         25.8669 
       0.552299         32.1549         25.2328 
       0.558452         31.1656         24.6255 
       0.564573          30.685         24.0468 
       0.570708         30.1831         23.4901 
       0.576825         29.4602         22.9566 
       0.582926         28.8833         22.4439 
       0.589034         28.1397         21.9472 
       0.595184         27.7815         21.4611 
       0.601379         27.2454         20.9831 
       0.607522         26.7379         20.5198 
       0.613639         26.4727         20.0699 
       0.619772         25.7802          19.632 
       0.625918         25.6218         19.2077 
       0.632068          25.207         18.7981 
       0.638161         24.6595         18.4062 
         0.6443         24.1731         18.0241 
       0.650464         23.7374         17.6517 
       0.656582         23.5827         17.2923 
       0.662703         23.1264          16.942 
       0.668861         22.6896         16.5988 
       0.675024         22.2904         16.2646 
       0.681124         21.9033         15.9429 
       0.687237         21.5357         15.6294 
       0.693381         21.3392         15.3232 
       0.699536         20.7861         15.0249 
       0.705665         20.7039          14.736 
       0.711789         20.2467         14.4552 
       0.717957         19.9631         14.1799 
        0.72409         19.6694         13.9133 
       0.730186         19.3939         13.6552 
       0.736317         19.1782         13.4022 
       0.742472         18.8502         13.1548 
       0.748622         18.6444          12.914 
        0.75476         18.2988         12.6798 
       0.760888         18.0348         12.4518 
       0.767043         17.8171         12.2286 
       0.773185         17.4934         12.0114 
       0.779291         17.3974         11.8009 
       0.785407         17.1826         11.5951 
       0.791564          16.873         11.3929 
       0.797719         16.5019         11.1958 
       0.803834         16.4731         11.0045 
       0.809972         16.3186         10.8171 
       0.816124         15.9433         10.6336 
       0.822261          15.774         10.4549 
       0.828378         15.6098         10.2809 
       0.834502         15.4646         10.1107 
       0.840667         15.2356         9.94334 
       0.846816         14.9578         9.78025 
       0.852925         14.8188          9.6219 
       0.859047         14.6545         9.46676 
       0.865192         14.5132         9.31458 
       0.871341         14.3881         9.16568 
       0.877463         14.1322         9.02076 
       0.883569         13.9491         8.87937 
       0.889708         13.7331         8.74032 
       0.895864         13.6212         8.60392 
       0.902008         13.5177         8.47075 
       0.908149         13.3668          8.3405 
       0.914301         13.2578          8.2128 
       0.920448         13.0131         8.08792 
       0.926574         12.8893         7.96609 
       0.932687         12.7493         7.84705 
       0.938823         12.5802         7.73003 
       0.944975         12.4379         7.61515 
       0.951105         12.3229         7.50304 
       0.957225         12.2203          7.3934 
       0.963368         12.0997         7.28559 
       0.969511         11.9832         7.17994 
       0.975621         11.8583         7.07697 
       0.981748         11.7042         6.97577 
       0.987916         11.6292         6.87593 
        0.99406         11.4613         6.77843 
        1.00019          11.293         6.68303 
        1.00632         11.2662         6.58957 
        1.01246         11.1471         6.49777 
        1.01859           10.97         6.40788 
        1.02471         10.9204         6.31981 
        1.03085         10.8075         6.23311 
        1.03698         10.6411         6.14822 
        1.04314         10.5821         6.06457 
        1.04929         10.4473         5.98268 
        1.05541          10.331         5.90264 
        1.06154         10.2631         5.82388 
        1.06769         10.2114         5.74645 
        1.07382         10.0632         5.67069 
        1.07993         9.98228         5.59648 
        1.08607         9.89189         5.52331 
        1.09222         9.81193         5.45137 
        1.09836         9.69399         5.38081 
        1.10449         9.61917          5.3116 
        1.11063         9.51426         5.24353 
        1.11677         9.47027         5.17669 
         1.1229         9.40615         5.11114 
        1.12903         9.28266         5.04667 
        1.13518         9.16997         4.98327 
        1.14131            9.12         4.92101 
        1.14745         9.03283         4.85985 
        1.15359         8.97382         4.79972 
        1.15973         8.88823          4.7406 
        1.16584         8.76071         4.68274 
        1.17197         8.71355         4.62577 
        1.17811         8.66806         4.56959 
        1.18424         8.58492          4.5145 
        1.19038         8.54839         4.46017 
        1.19652         8.44823         4.40676 
        1.20267         8.36495         4.35423 
        1.20881         8.33815         4.30257 
        1.21495         8.26867         4.25183 
        1.22108          8.1672         4.20193 
         1.2272         8.11218         4.15295 
        1.23334          8.0302         4.10464 
        1.23949         7.96153         4.05699 
        1.24562         7.92506         4.01023 
        1.25174         7.86513         3.96429 
        1.25789         7.80111         3.91892 
        1.26402         7.76466         3.87436 
        1.27014         7.69341          3.8306 
        1.27628          7.5995         3.78738 
        1.28244         7.53551         3.74476 
        1.28858         7.53224         3.70285 
        1.29471         7.44364         3.66168 
        1.30084         7.37084         3.62117 
        1.30697         7.36169         3.58122 
        1.31312         7.24889         3.54182 
        1.31925         7.20059         3.50314 
        1.32537         7.16014         3.46508 
        1.33151         7.12698         3.42745 
        1.33765         7.05576          3.3904 
        1.34378         7.00385         3.35398 
        1.34992         6.95539         3.31807 
        1.35606         6.90477         3.28262 
         1.3622         6.86574         3.24775 
        1.36833         6.80191         3.21347 
        1.37445         6.76388          3.1797 
        1.38059         6.73717         3.14632 
        1.38675         6.67296         3.11335 
        1.39288         6.64366         3.08097 
        1.39901         6.56628         3.04908 
        1.40515         6.53736         3.01757 
         1.4113          6.4913         2.98652 
        1.41742         6.44561         2.95602 
        1.42355         6.38942          2.9259 
         1.4297         6.35823         2.89611 
        1.43585         6.32817         2.86675 
        1.44198         6.29743         2.83791 
        1.44809         6.24083         2.80952 
        1.45423         6.19195         2.78141 
        1.46036         6.14679         2.75375 
        1.46649         6.11674         2.72645 
        1.47263         6.06057          2.6995 
        1.47877         6.02419         2.67293 
        1.48491          5.9933         2.64668 
        1.49104         5.95326         2.62083 
        1.49718         5.92053         2.59531 
        1.50333         5.88605         2.57009 
        1.50947         5.83619         2.54526 
         1.5156         5.80765          2.5208 
        1.52172         5.77716         2.49666 
        1.52787         5.73801         2.47279 
          1.534         5.69312         2.44926 
        1.54013         5.66873         2.42606 
        1.54627         5.61911         2.40312 
        1.55241         5.58903         2.38048 
        1.55855         5.56736         2.35816 
        1.56467         5.52289         2.33619 
         1.5708         5.50259         2.31444 
        1.57695         5.45415         2.29294 
        1.58308         5.41312         2.27176 
        1.58922          5.4013         2.25083 
        1.59535         5.37552         2.23018 
         1.6015         5.32601         2.20976 
        1.60764         5.28846          2.1896 
        1.61376         5.27227         2.16976 
        1.61989         5.24029         2.15014 
        1.62604         5.20527         2.13072 
        1.63218         5.19315         2.11156 
        1.63831         5.15468         2.09268 
        1.64444         5.12837         2.07402 
        1.65059         5.07187         2.05555 
        1.65673         5.07596         2.03732 
        1.66285         5.02292         2.01936 
        1.66898         4.99906         2.00162 
        1.67512         4.97614         1.98406 
        1.68127         4.94401         1.96669 
         1.6874         4.92722         1.94957 
        1.69353         4.88384         1.93266 
        1.69967         4.86905         1.91592 
        1.70581          4.8439         1.89938 
        1.71193         4.80975          1.8831 
        1.71806         4.79264         1.86697 
        1.72421         4.76011         1.85101 
        1.73035         4.74461         1.83525 
        1.73649         4.71518         1.81967 
        1.74262         4.68415         1.80429 
        1.74876         4.66873         1.78908 
        1.75489         4.64502         1.77408 
        1.76101         4.60745         1.75925 
        1.76715         4.59457         1.74457 
        1.77329         4.56735         1.73005 
        1.77943          4.5318         1.71568 
        1.78557         4.52228          1.7015 
        1.79171         4.49605         1.68747 
        1.79785           4.471          1.6736 
        1.80399         4.44425         1.65989 
        1.81012         4.42445         1.64636 
        1.81625          4.4031         1.63298 
        1.82239         4.38458         1.61973 
        1.82853         4.35491         1.60663 
        1.83466         4.33792          1.5937 
        1.84078         4.32045         1.58091 
        1.84692         4.30793         1.56825 
        1.85306         4.27084         1.55572 
         1.8592         4.24584         1.54334 
        1.86533         4.22876          1.5311 
        1.87147         4.21185         1.51898 
        1.87761         4.18889         1.50699 
        1.88375         4.16537         1.49514 
        1.88988         4.14913         1.48343 
        1.89601         4.12846         1.47184 
        1.90215         4.10885         1.46037 
        1.90829         4.08445         1.44902 
        1.91442         4.06842          1.4378 
        1.92056         4.04974          1.4267 
         1.9267         4.02438         1.41571 
        1.93284         4.00927         1.40483 
        1.93897         3.98836         1.39409 
        1.94509         3.97473         1.38348 
        1.95123           3.953         1.37295 
        1.95737         3.92633         1.36253 
        1.96349         3.91801         1.35224 
        1.96964         3.90159         1.34203 
        1.97578         3.87248         1.33192 
        1.98192         3.86506         1.32194 
        1.98805         3.84697         1.31205 
        1.99419         3.82544         1.30227 
        2.00033         3.81532         1.29258 
        2.00647         3.79226           1.283 
         2.0126          3.7814         1.27353 
        2.01874         3.75441         1.26414 
        2.02488          3.7463         1.25483 
        2.03101         3.71771         1.24564 
        2.03714         3.70239         1.23655 
        2.04328         3.68757         1.22754 
        2.04941         3.66554         1.21862 
        2.05554         3.65468          1.2098 
        2.06167         3.64062         1.20106 
        2.06781         3.62343          1.1924 
        2.07396         3.61419         1.18382 
        2.08009         3.59543         1.17533 
        2.08622         3.57541         1.16694 
        2.09237         3.55881         1.15862 
        2.09851         3.55088         1.15037 
        2.10464         3.53524         1.14222 
        2.11077         3.51199         1.13416 
        2.11691          3.4979         1.12615 
        2.12305         3.48819         1.11823 
        2.12918         3.47803          1.1104 
        2.13531         3.46116         1.10264 
        2.14145         3.44588         1.09494 
         2.1476         3.42586         1.08731 
        2.15372         3.41116         1.07979 
        2.15985         3.40971         1.07233 
        2.16599         3.38256         1.06492 
        2.17213         3.36979         1.05759 
        2.17827         3.36234         1.05033 
         2.1844         3.34427         1.04314 
        2.19054         3.32959         1.03602 
        2.19666         3.31381         1.02897 
         2.2028         3.30043         1.02199 
        2.20893         3.28948         1.01507 
        2.21508         3.27378          1.0082 
        2.22122         3.25895          1.0014 
        2.22736         3.24871        0.994667 
        2.23349         3.24015        0.988003 
        2.23962         3.22383        0.981396 
        2.24577         3.21105        0.974845 
         2.2519         3.20329        0.968362 
        2.25802         3.18566        0.961949 
        2.26417          3.1758        0.955576 
        2.27031         3.15968        0.949255 
        2.27644         3.14437        0.943009 
        2.28257         3.13012        0.936821 
        2.28872         3.12779        0.930676 
        2.29486         3.11006        0.924588 
        2.30099         3.09451        0.918567 
        2.30712          3.0837        0.912597 
        2.31326         3.06883         0.90667 
         2.3194         3.06109        0.900799 
        2.32553         3.05161         0.89499 
        2.33166         3.04193        0.889235 
         2.3378         3.02682        0.883523 
        2.34394         3.01603         0.87786 
        2.35007         3.00152        0.872254 
        2.35619         2.99456        0.866704 
        2.36233         2.98235         0.86119 
        2.36848         2.96681        0.855712 
        2.37462         2.96353        0.850293 
        2.38075         2.94683        0.844927 
        2.38689         2.94196        0.839603 
        2.39303         2.92527        0.834325 
        2.39916         2.91564        0.829099 
        2.40529         2.90496        0.823918 
        2.41143         2.89367        0.818777 
        2.41757         2.88644        0.813678 
         2.4237          2.8766        0.808632 
        2.42983         2.85523         0.80363 
        2.43598         2.85134        0.798656 
        2.44211         2.83637        0.793733 
        2.44823         2.83099        0.788863 
        2.45437         2.81732         0.78402 
        2.46052         2.81222        0.779214 
        2.46665          2.8021        0.774457 
        2.47279         2.78831        0.769741 
        2.47892         2.77997        0.765061 
        2.48507          2.7704        0.760416 
         2.4912         2.75527        0.755818 
