# k  (h/Mpc)    P(k)  (Mpc/h)^3    P_linear(k)  (Mpc/h)^3
     0.00783031         17163.6         17328.5 
       0.013688         19299.5         19865.2 
       0.019231         18497.4         18803.8 
      0.0249154         16334.8         16260.7 
      0.0312784         13102.5         13187.4 
      0.0375637         10602.6         10739.5 
      0.0433917         9175.41         9181.49 
      0.0492413         8130.06         8189.25 
      0.0555754         7500.21         7500.92 
      0.0619321          6733.2         6937.52 
       0.067871         6267.08          6357.3 
      0.0738098         5668.09         5679.96 
      0.0800417         4957.82         4921.86 
      0.0862327         4261.74         4223.71 
      0.0921407          3770.4         3685.38 
      0.0982031            3426            3291 
       0.104506         3097.24         3030.15 
       0.110769         2939.45         2867.67 
       0.116806         2840.81         2742.42 
       0.122832         2668.74         2601.26 
       0.129052         2482.15         2416.26 
       0.135211          2341.2         2200.65 
       0.141259         2107.85         1982.94 
       0.147318         1913.19         1786.58 
       0.153489         1776.63         1627.42 
       0.159709         1701.81          1512.8 
       0.165845         1572.95         1436.05 
       0.171974         1546.03         1379.68 
       0.178125         1495.16          1326.9 
       0.184229          1381.6          1266.6 
        0.19034         1345.17         1194.49 
       0.196428         1288.62         1114.55 
       0.202534         1190.01            1034 
       0.208729         1159.54         959.989 
       0.214876         1098.06         899.217 
       0.220989         1037.22          852.12 
       0.227147         1010.62         815.405 
        0.23329         972.335         784.861 
       0.239377         964.249         755.997 
       0.245482         914.225         725.276 
       0.251667         878.244         691.299 
       0.257832         860.725          655.65 
       0.263955         814.883         620.662 
       0.270079         785.246         588.244 
        0.27624         752.169         559.696 
       0.282372         738.677         535.538 
        0.28843         727.592         515.154 
       0.294538         691.534         496.814 
       0.300721         675.397         479.177 
        0.30691         659.796         461.476 
       0.313033          630.63         443.575 
       0.319153         621.699         425.526 
       0.325316         611.473         407.739 
        0.33145          595.79         391.023 
       0.337538         573.593         375.821 
       0.343633         558.841          362.06 
       0.349808         545.492          349.46 
       0.355968         535.236         337.839 
       0.362074         515.181         326.899 
       0.368217         512.658         316.166 
       0.374374         504.256         305.548 
       0.380519         483.858         295.128 
       0.386598         479.121         285.096 
       0.392688         466.771         275.491 
        0.39888         455.439         266.291 
       0.405048         445.248         257.717 
       0.411186         444.744         249.749 
       0.417313         438.751         242.246 
       0.423458         426.796         235.057 
       0.429607         413.736         228.119 
       0.435692         408.463         221.452 
       0.441815         400.907         214.917 
       0.447964          392.93         208.564 
       0.454126         388.522         202.443 
       0.460267         382.104         196.608 
       0.466387         373.849         191.064 
        0.47254         369.531         185.761 
       0.478662         361.884         180.724 
       0.484765         356.574         175.903 
       0.490885         353.521         171.237 
       0.497035         345.444         166.704 
       0.503198         344.941         162.309 
       0.509342          337.54         158.066 
       0.515458         331.017         153.984 
       0.521598         327.096         150.035 
       0.527764         321.673         146.223 
       0.533884         318.793         142.585 
           0.54         314.957         139.084 
       0.546137         308.398         135.694 
       0.552299          306.91         132.406 
       0.558452         301.816         129.231 
       0.564573         300.167         126.173 
       0.570708         294.788         123.203 
       0.576825         289.695         120.334 
       0.582926         288.488         117.564 
       0.589034         283.069         114.879 
       0.595184         281.282         112.266 
       0.601379         276.805         109.721 
       0.607522         270.845         107.278 
       0.613639         270.191         104.921 
       0.619772         269.142         102.629 
       0.625918         263.711         100.401 
       0.632068         261.562         98.2363 
       0.638161         259.686         96.1552 
         0.6443         255.678         94.1201 
       0.650464             253         92.1377 
       0.656582         250.271         90.2277 
       0.662703         249.299         88.3724 
       0.668861         244.116         86.5595 
       0.675024         243.394         84.7966 
       0.681124         239.644         83.1011 
       0.687237         238.591         81.4489 
       0.693381         234.581         79.8343 
       0.699536         234.049          78.261 
       0.705665         231.165         76.7374 
       0.711789         228.557         75.2563 
       0.717957         226.966         73.8046 
        0.72409         223.805         72.3997 
       0.730186         224.913         71.0404 
       0.736317         221.234         69.7091 
       0.742472         219.028         68.4073 
       0.748622         216.931         67.1402 
        0.75476         216.301         65.9083 
       0.760888         213.601         64.7093 
       0.767043          210.78         63.5357 
       0.773185         209.091         62.3938 
       0.779291         207.366         61.2868 
       0.785407         206.014         60.2052 
       0.791564          204.59         59.1432 
       0.797719         201.205         58.1076 
       0.803834         202.083         57.1036 
       0.809972         199.304           56.12 
       0.816124         196.503         55.1576 
       0.822261         195.389         54.2206 
       0.828378         194.617         53.3084 
       0.834502         192.322         52.4166 
       0.840667         192.344         51.5397 
       0.846816          188.69         50.6854 
       0.852925         188.738          49.856 
       0.859047         186.724         49.0436 
       0.865192         186.127         48.2468 
       0.871341         184.178         47.4673 
       0.877463         182.625         46.7087 
       0.883569         182.204         45.9688 
       0.889708         180.694         45.2412 
       0.895864         178.428         44.5277 
       0.902008         177.157         43.8311 
       0.908149         175.662           43.15 
       0.914301         174.541         42.4825 
       0.920448         174.047         41.8297 
       0.926574         172.117         41.1931 
       0.932687          171.95         40.5712 
       0.938823          170.26         39.9601 
       0.944975         169.817         39.3602 
       0.951105         167.828         38.7749 
       0.957225         166.598         38.2026 
       0.963368         166.437           37.64 
       0.969511         164.204         37.0888 
       0.975621         162.242         36.5517 
       0.981748         162.235         36.0239 
       0.987916         161.378         35.5034 
        0.99406         160.022         34.9951 
        1.00019         159.271         34.4979 
        1.00632         158.145         34.0108 
        1.01246         157.066         33.5325 
        1.01859         155.633         33.0643 
        1.02471         154.602         32.6056 
        1.03085         153.688         32.1541 
        1.03698          153.08         31.7121 
        1.04314         152.458         31.2767 
        1.04929         151.496         30.8504 
        1.05541         150.936         30.4339 
        1.06154         149.343         30.0241 
        1.06769         148.598         29.6212 
        1.07382         147.465         29.2272 
        1.07993         146.545         28.8412 
        1.08607          146.35         28.4607 
        1.09222         144.783         28.0867 
        1.09836          144.14         27.7199 
        1.10449         143.378         27.3601 
        1.11063         142.092         27.0063 
        1.11677         141.514          26.659 
         1.1229         140.725         26.3184 
        1.12903         139.411         25.9835 
        1.13518         138.742         25.6542 
        1.14131         138.408         25.3309 
        1.14745         137.051         25.0133 
        1.15359         136.382         24.7011 
        1.15973         135.835         24.3942 
        1.16584         134.934         24.0939 
        1.17197         134.427         23.7983 
        1.17811         133.247         23.5067 
        1.18424          132.59          23.221 
        1.19038         131.967         22.9392 
        1.19652         130.863         22.6621 
        1.20267         130.095         22.3897 
        1.20881         129.305         22.1219 
        1.21495         129.232         21.8589 
        1.22108         128.081         21.6002 
         1.2272         127.661         21.3464 
        1.23334         126.703          21.096 
        1.23949         126.182         20.8491 
        1.24562         125.245         20.6069 
        1.25174         125.133         20.3689 
        1.25789         124.014          20.134 
        1.26402         123.497         19.9032 
        1.27014           122.7         19.6766 
        1.27628         122.283         19.4529 
        1.28244         121.457         19.2322 
        1.28858         120.806         19.0153 
        1.29471         119.944         18.8022 
        1.30084         119.317         18.5926 
        1.30697         118.573         18.3858 
        1.31312         118.209          18.182 
        1.31925         117.099         17.9818 
        1.32537         116.769         17.7849 
        1.33151         116.271         17.5903 
        1.33765         115.587         17.3987 
        1.34378         115.286         17.2104 
        1.34992         114.407         17.0247 
        1.35606         114.064         16.8414 
         1.3622         113.412         16.6611 
        1.36833          112.64         16.4839 
        1.37445         112.294         16.3094 
        1.38059         111.524         16.1369 
        1.38675         110.976         15.9665 
        1.39288         110.339         15.7992 
        1.39901         109.665         15.6344 
        1.40515         109.268         15.4717 
         1.4113         108.679         15.3113 
        1.41742         108.366         15.1538 
        1.42355         107.713         14.9982 
         1.4297         107.052         14.8444 
        1.43585         106.618         14.6928 
        1.44198          105.84         14.5439 
        1.44809         105.459         14.3974 
        1.45423          105.16         14.2523 
        1.46036         104.186         14.1095 
        1.46649         103.747         13.9687 
        1.47263         103.166         13.8296 
        1.47877         102.818         13.6925 
        1.48491          102.25         13.5571 
        1.49104         101.582         13.4238 
        1.49718         101.124         13.2922 
        1.50333         100.531         13.1621 
        1.50947         100.435          13.034 
         1.5156         99.6775         12.9079 
        1.52172         98.9993         12.7834 
        1.52787         98.8237         12.6604 
          1.534         98.2964         12.5391 
        1.54013         97.6466         12.4195 
        1.54627         97.1959         12.3013 
        1.55241         96.9605         12.1846 
        1.55855         96.1994         12.0696 
        1.56467         95.7651         11.9563 
         1.5708         94.9413         11.8443 
        1.57695          94.921         11.7335 
        1.58308         94.3197         11.6244 
        1.58922         93.9246         11.5166 
        1.59535         93.7927         11.4102 
         1.6015          92.978          11.305 
        1.60764         92.5034         11.2012 
        1.61376         92.3578          11.099 
        1.61989         91.7594          10.998 
        1.62604         91.3221          10.898 
        1.63218         90.7785         10.7994 
        1.63831         90.3575         10.7021 
        1.64444         89.8209         10.6061 
        1.65059         89.4301          10.511 
        1.65673         89.3031         10.4172 
        1.66285         88.8588         10.3248 
        1.66898         88.0762         10.2335 
        1.67512         87.5632         10.1431 
        1.68127         87.4351         10.0537 
         1.6874         86.9992         9.96567 
        1.69353         86.4685          9.8787 
        1.69967         85.9972         9.79256 
        1.70581         85.7304         9.70749 
        1.71193         85.2962         9.62376 
        1.71806         84.7655         9.54084 
        1.72421         84.3318         9.45873 
        1.73035         83.9411         9.37769 
        1.73649         83.6406         9.29761 
        1.74262          83.191         9.21854 
        1.74876         82.6259         9.14034 
        1.75489          82.551         9.06321 
        1.76101         82.2249         8.98699 
        1.76715         81.6239         8.91155 
        1.77329         81.2085         8.83689 
        1.77943         80.8688         8.76305 
        1.78557         80.6419         8.69017 
        1.79171         80.0804         8.61811 
        1.79785         79.7103         8.54685 
        1.80399         79.4025         8.47642 
        1.81012         78.8511         8.40688 
        1.81625         78.5668         8.33815 
        1.82239         78.1454         8.27009 
        1.82853         77.7879         8.20283 
        1.83466         77.4058         8.13638 
        1.84078         77.1236         8.07074 
        1.84692         76.8554         8.00572 
        1.85306         76.6678         7.94134 
         1.8592          76.218         7.87777 
        1.86533         75.7249         7.81493 
        1.87147         75.3612         7.75271 
        1.87761         74.7871         7.69115 
        1.88375         74.6563         7.63032 
        1.88988         74.2015         7.57022 
        1.89601         74.1092         7.51074 
        1.90215         73.7213         7.45185 
        1.90829          73.138         7.39362 
        1.91442         72.7406         7.33601 
        1.92056         72.5678         7.27907 
         1.9267         72.2601         7.22268 
        1.93284         72.0731         7.16686 
        1.93897         71.5532         7.11173 
        1.94509         71.3102          7.0573 
        1.95123         70.9041         7.00331 
        1.95737         70.6657         6.94984 
        1.96349         70.4754         6.89707 
        1.96964         70.0789         6.84469 
        1.97578         69.5909         6.79284 
        1.98192         69.2382         6.74164 
        1.98805         68.9628         6.69095 
        1.99419         68.9076         6.64078 
        2.00033          68.334         6.59111 
        2.00647         67.9312         6.54196 
         2.0126         67.8262         6.49339 
        2.01874         67.5664         6.44525 
        2.02488         67.2066         6.39755 
        2.03101         66.7549         6.35042 
        2.03714         66.5569         6.30382 
        2.04328         66.3886         6.25763 
        2.04941         65.9909         6.21194 
        2.05554         65.6072         6.16674 
        2.06167         65.2977         6.12193 
        2.06781         65.0447         6.07757 
        2.07396         64.5931         6.03358 
        2.08009         64.4745          5.9901 
        2.08622         64.0439          5.9471 
        2.09237          63.862         5.90445 
        2.09851         63.4615          5.8622 
        2.10464         63.1919         5.82044 
        2.11077         63.0112         5.77913 
        2.11691         62.7288         5.73814 
        2.12305         62.3412         5.69754 
        2.12918         62.0384         5.65744 
        2.13531         61.8543         5.61772 
        2.14145          61.504         5.57829 
         2.1476         61.4145         5.53919 
        2.15372         60.9097         5.50066 
        2.15985         60.7219         5.46247 
        2.16599         60.5012         5.42453 
        2.17213         60.1554         5.38699 
        2.17827          59.712         5.34981 
         2.1844         59.6072         5.31302 
        2.19054         59.4097         5.27657 
        2.19666          59.075         5.24051 
         2.2028         58.8733         5.20475 
        2.20893         58.4961         5.16931 
        2.21508         58.2966         5.13417 
        2.22122         57.8971         5.09934 
        2.22736          57.648          5.0649 
        2.23349         57.4626          5.0308 
        2.23962          57.259         4.99699 
        2.24577         56.9907         4.96346 
         2.2519         56.6716         4.93029 
        2.25802         56.4215         4.89747 
        2.26417         56.2437         4.86486 
        2.27031         56.0028         4.83252 
        2.27644         55.5827         4.80057 
        2.28257         55.4708         4.76891 
        2.28872         55.1305         4.73748 
        2.29486         54.9877         4.70633 
        2.30099         54.6233         4.67553 
        2.30712         54.4507           4.645 
        2.31326         54.1912         4.61468 
         2.3194         53.9635         4.58465 
        2.32553         53.6842         4.55495 
        2.33166         53.4834         4.52551 
         2.3378           53.22          4.4963 
        2.34394         53.0254         4.46734 
        2.35007         52.7275         4.43867 
        2.35619         52.5544          4.4103 
        2.36233          52.352          4.3821 
        2.36848         52.0388         4.35409 
        2.37462         51.8142         4.32639 
        2.38075         51.5128         4.29895 
        2.38689         51.3064         4.27173 
        2.39303         51.1993         4.24475 
        2.39916          50.913         4.21804 
        2.40529         50.7717         4.19155 
        2.41143         50.5513         4.16528 
        2.41757         50.2305         4.13921 
         2.4237         50.1115         4.11342 
        2.42983         49.8519         4.08786 
        2.43598         49.6522         4.06244 
        2.44211         49.3595         4.03728 
        2.44823         49.2183         4.01239 
        2.45437         48.8667         3.98764 
        2.46052         48.7321         3.96309 
        2.46665         48.4464         3.93878 
        2.47279         48.2673         3.91468 
        2.47892         48.0526         3.89077 
        2.48507         47.8912         3.86704 
         2.4912         47.6403         3.84355 
