# k  (h/Mpc)    Pcb(k)  (Mpc/h)^3    Pcb_linear(k)  (Mpc/h)^3
     0.00783031         5856.48         5925.52 
       0.013688         7402.89         7372.54 
       0.019231         7508.87          7498.2 
      0.0249154          6857.7         6943.41 
      0.0312784          5981.5         6010.02 
      0.0375637         5127.32         5115.38 
      0.0433917         4422.06         4458.17 
      0.0492413         3980.91         3988.16 
      0.0555754         3588.86         3645.52 
      0.0619321         3410.62         3394.46 
       0.067871         3132.86         3175.22 
      0.0738098         2889.52         2930.89 
      0.0800417         2586.76         2640.36 
      0.0862327         2313.03         2338.94 
      0.0921407         2070.43         2070.53 
      0.0982031         1833.16         1840.37 
       0.104506         1690.97         1661.68 
       0.110769         1565.12         1540.68 
       0.116806         1472.69          1461.7 
       0.122832         1416.59         1399.93 
       0.129052         1330.86          1335.2 
       0.135211         1256.97         1258.46 
       0.141259         1184.83         1169.21 
       0.147318         1098.91         1072.43 
       0.153489         998.647         976.729 
       0.159709         927.549          892.94 
       0.165845         877.778         827.969 
       0.171974         823.099         780.687 
       0.178125         788.125         746.844 
       0.184229         761.192         720.481 
        0.19034         716.908          694.98 
       0.196428         701.162         665.992 
       0.202534         675.305         631.751 
       0.208729         635.302         593.069 
       0.214876         595.265         553.977 
       0.220989         570.677         517.888 
       0.227147         536.243         486.875 
        0.23329         513.216         462.191 
       0.239377         500.067         443.238 
       0.245482         469.843         427.955 
       0.251667         464.511         414.043 
       0.257832         449.081         399.826 
       0.263955         432.776         384.251 
       0.270079          415.92         367.129 
        0.27624         407.109         349.125 
       0.282372         389.308          331.55 
        0.28843          374.95         315.611 
       0.294538         357.758         301.608 
       0.300721         353.392         289.691 
        0.30691         337.346         279.642 
       0.313033         329.529         270.871 
       0.319153         316.976         262.537 
       0.325316          309.43         254.013 
        0.33145         299.052         245.122 
       0.337538         294.147         235.966 
       0.343633         283.854         226.739 
       0.349808         274.566         217.736 
       0.355968         269.678         209.403 
       0.362074         262.403         201.992 
       0.368217         255.242         195.356 
       0.374374         246.781         189.385 
       0.380519         242.545         183.866 
       0.386598         236.282         178.584 
       0.392688         232.986         173.326 
        0.39888         226.749         167.924 
       0.405048         221.412         162.521 
       0.411186         216.408         157.239 
       0.417313         211.748         152.164 
       0.423458         207.194         147.374 
       0.429607         202.271         142.941 
       0.435692         196.167         138.883 
       0.441815         194.665         135.068 
       0.447964         191.159         131.442 
       0.454126         183.034         127.925 
       0.460267         180.975         124.474 
       0.466387         178.414         121.079 
        0.47254         174.647         117.724 
       0.478662         172.973         114.462 
       0.484765         167.975         111.325 
       0.490885         165.295         108.329 
       0.497035         163.046         105.483 
       0.503198         158.636         102.778 
       0.509342         156.123         100.209 
       0.515458         153.945         97.7575 
       0.521598         151.704         95.3775 
       0.527764         149.354         93.0445 
       0.533884         146.936         90.7743 
           0.54         144.432         88.5592 
       0.546137         143.207         86.4009 
       0.552299         140.779         84.3079 
       0.558452         138.005         82.2956 
       0.564573          135.56         80.3697 
       0.570708         133.603         78.5153 
       0.576825         131.776          76.739 
       0.582926         129.423         75.0299 
       0.589034         127.298         73.3705 
       0.595184         125.818         71.7432 
       0.601379         124.425         70.1433 
       0.607522         121.456         68.5977 
       0.613639         121.161         67.1027 
       0.619772         118.412         65.6499 
       0.625918         117.183         64.2419 
       0.632068         115.855         62.8785 
       0.638161         114.584         61.5698 
         0.6443         113.016         60.2907 
       0.650464         111.654         59.0442 
       0.656582         110.201         57.8422 
       0.662703         108.293         56.6731 
       0.668861         107.043         55.5295 
       0.675024         105.802         54.4161 
       0.681124         104.694         53.3437 
       0.687237         102.798         52.2974 
       0.693381          101.64          51.274 
       0.699536         100.525         50.2762 
       0.705665          100.86         49.3095 
       0.711789         98.1172         48.3699 
       0.717957         97.6183         47.4492 
        0.72409         96.1891         46.5584 
       0.730186         94.5946         45.6964 
       0.736317         94.3719          44.852 
       0.742472         93.3216          44.026 
       0.748622         92.4368         43.2216 
        0.75476          91.432         42.4389 
       0.760888         90.1445         41.6766 
       0.767043         89.3481         40.9299 
       0.773185         88.3171          40.203 
       0.779291         87.5702          39.498 
       0.785407         86.8495         38.8089 
       0.791564         85.7769          38.132 
       0.797719         84.5403         37.4718 
       0.803834         84.2043         36.8316 
       0.809972         82.7715         36.2042 
       0.816124         82.2962         35.5902 
       0.822261         81.6249         34.9923 
       0.828378         80.8978           34.41 
       0.834502         80.1489         33.8406 
       0.840667         79.3508         33.2805 
       0.846816         78.3847         32.7347 
       0.852925         77.7303         32.2048 
       0.859047         76.7252         31.6855 
       0.865192         76.3841         31.1761 
       0.871341         75.8538         30.6776 
       0.877463         74.6296         30.1923 
       0.883569         74.1826         29.7189 
       0.889708         73.7529         29.2532 
       0.895864          73.091         28.7964 
       0.902008         72.4328         28.3503 
       0.908149         71.9228         27.9141 
       0.914301         71.2135         27.4863 
       0.920448         70.6481          27.068 
       0.926574          70.031         26.6598 
       0.932687         69.6569          26.261 
       0.938823         68.5672          25.869 
       0.944975         68.3225         25.4841 
       0.951105         67.6742         25.1085 
       0.957225         66.8324         24.7411 
       0.963368         66.7236         24.3798 
       0.969511         66.2547         24.0258 
       0.975621         65.7801         23.6807 
       0.981748         65.0647         23.3416 
       0.987916         64.6126          23.007 
        0.99406         64.2481         22.6802 
        1.00019         63.4689         22.3605 
        1.00632         63.2136         22.0473 
        1.01246         62.6318         21.7396 
        1.01859         61.8321         21.4383 
        1.02471          62.022         21.1431 
        1.03085         61.2987         20.8525 
        1.03698          60.774         20.5679 
        1.04314         60.1866         20.2875 
        1.04929         59.9009          20.013 
        1.05541         59.2957         19.7448 
        1.06154          59.205         19.4808 
        1.06769         58.6433         19.2212 
        1.07382         58.3613         18.9673 
        1.07993         58.0682         18.7185 
        1.08607         57.4676         18.4733 
        1.09222         57.2023         18.2321 
        1.09836         56.7764         17.9956 
        1.10449         56.3549         17.7636 
        1.11063         55.7956         17.5354 
        1.11677         55.4929         17.3114 
         1.1229         55.2123         17.0916 
        1.12903         54.4401         16.8755 
        1.13518          54.602          16.663 
        1.14131         54.2898         16.4543 
        1.14745         53.5374         16.2493 
        1.15359         53.4687         16.0477 
        1.15973         52.9087         15.8495 
        1.16584         52.5835         15.6555 
        1.17197         52.3346         15.4645 
        1.17811         52.0319         15.2762 
        1.18424         51.4976         15.0915 
        1.19038         51.3611         14.9093 
        1.19652         51.1236         14.7303 
        1.20267         50.7109         14.5541 
        1.20881         50.3676         14.3809 
        1.21495         49.9722         14.2109 
        1.22108         49.6976         14.0435 
         1.2272         49.2074         13.8793 
        1.23334         49.0511         13.7174 
        1.23949          48.954         13.5576 
        1.24562         48.5367         13.4009 
        1.25174         48.3245         13.2468 
        1.25789         48.0349         13.0947 
        1.26402         47.6386         12.9453 
        1.27014         47.2253         12.7986 
        1.27628         47.0992         12.6538 
        1.28244         46.7124         12.5109 
        1.28858         46.5487         12.3704 
        1.29471         46.3882         12.2323 
        1.30084         46.0891         12.0966 
        1.30697         45.7036         11.9626 
        1.31312         45.3665         11.8306 
        1.31925         45.2741         11.7009 
        1.32537         45.0255         11.5733 
        1.33151         44.6428         11.4472 
        1.33765         44.5884          11.323 
        1.34378         44.2949          11.201 
        1.34992         43.8206         11.0806 
        1.35606         43.6141         10.9618 
         1.3622         43.3755         10.8449 
        1.36833         43.1725           10.73 
        1.37445         43.0936         10.6168 
        1.38059         42.8229         10.5049 
        1.38675         42.4688         10.3944 
        1.39288         42.3393         10.2859 
        1.39901         41.9947          10.179 
        1.40515         41.8105         10.0734 
         1.4113         41.6879         9.96933 
        1.41742         41.3049         9.86713 
        1.42355         41.1527         9.76618 
         1.4297         40.8907         9.66633 
        1.43585         40.8087         9.56793 
        1.44198         40.4823         9.47127 
        1.44809         40.3084         9.37613 
        1.45423         40.1575         9.28195 
        1.46036         39.9497         9.18923 
        1.46649         39.6723         9.09774 
        1.47263         39.4838         9.00743 
        1.47877         39.3635         8.91839 
        1.48491         39.1798         8.83041 
        1.49104         38.9209         8.74381 
        1.49718         38.5603          8.6583 
        1.50333         38.5016          8.5738 
        1.50947         38.3134         8.49061 
         1.5156         38.0733         8.40864 
        1.52172         37.8494         8.32776 
        1.52787         37.8564         8.24778 
          1.534         37.5243         8.16896 
        1.54013         37.3004         8.09124 
        1.54627         37.2196          8.0144 
        1.55241          36.974         7.93854 
        1.55855         36.7698         7.86378 
        1.56467         36.4895         7.79018 
         1.5708         36.4878         7.71733 
        1.57695         36.1613         7.64529 
        1.58308         36.1549         7.57434 
        1.58922         35.9936         7.50425 
        1.59535         35.7336         7.43507 
         1.6015         35.5173         7.36666 
        1.60764         35.4049         7.29915 
        1.61376          35.214         7.23268 
        1.61989         34.9218         7.16698 
        1.62604         34.8949         7.10195 
        1.63218         34.6843         7.03777 
        1.63831         34.5328         6.97453 
        1.64444         34.4003         6.91205 
        1.65059         34.1089         6.85018 
        1.65673         33.9791         6.78914 
        1.66285         33.8578         6.72901 
        1.66898         33.6634         6.66959 
        1.67512         33.5553         6.61078 
        1.68127         33.3066         6.55262 
         1.6874         33.2239         6.49529 
        1.69353         33.0414         6.43868 
        1.69967         32.8847         6.38261 
        1.70581         32.7806         6.32723 
        1.71193         32.5982         6.27272 
        1.71806         32.4116         6.21873 
        1.72421         32.2173         6.16528 
        1.73035         32.0843         6.11251 
        1.73649         31.9728         6.06038 
        1.74262         31.7847         6.00889 
        1.74876         31.7852         5.95797 
        1.75489           31.53         5.90774 
        1.76101         31.3723         5.85811 
        1.76715         31.2489         5.80898 
        1.77329         31.1189         5.76035 
        1.77943         30.9888         5.71227 
        1.78557         30.8168          5.6648 
        1.79171         30.6856         5.61786 
        1.79785         30.5314         5.57144 
        1.80399         30.4085         5.52556 
        1.81012         30.3286         5.48026 
        1.81625         30.1373         5.43549 
        1.82239         30.0631         5.39115 
        1.82853         29.8076         5.34732 
        1.83466         29.7114         5.30403 
        1.84078         29.5024         5.26126 
        1.84692         29.4482         5.21889 
        1.85306         29.2948         5.17694 
         1.8592         29.1583         5.13552 
        1.86533         28.9957         5.09457 
        1.87147         28.9047         5.05402 
        1.87761         28.8623          5.0139 
        1.88375         28.6877         4.97426 
        1.88988         28.5917         4.93509 
        1.89601         28.3854         4.89632 
        1.90215         28.3435         4.85794 
        1.90829         28.2536         4.81999 
        1.91442          28.038         4.78244 
        1.92056         27.9843         4.74532 
         1.9267         27.7962         4.70856 
        1.93284         27.6514         4.67217 
        1.93897         27.5977         4.63623 
        1.94509         27.4562         4.60075 
        1.95123          27.303         4.56554 
        1.95737         27.2015         4.53068 
        1.96349         27.0821         4.49628 
        1.96964         26.9338         4.46213 
        1.97578         26.8978         4.42832 
        1.98192         26.7037         4.39493 
        1.98805         26.6457         4.36188 
        1.99419         26.4928         4.32917 
        2.00033         26.3341         4.29678 
        2.00647         26.2529         4.26472 
         2.0126         26.1204         4.23305 
        2.01874         26.0561         4.20166 
        2.02488          26.024         4.17055 
        2.03101         25.8108         4.13982 
        2.03714         25.6992         4.10942 
        2.04328         25.5841          4.0793 
        2.04941         25.5096          4.0495 
        2.05554         25.4023         4.02002 
        2.06167         25.2904          3.9908 
        2.06781         25.1805         3.96186 
        2.07396         25.0892         3.93317 
        2.08009         25.0187         3.90481 
        2.08622         24.8672         3.87676 
        2.09237         24.7744         3.84893 
        2.09851         24.6597         3.82137 
        2.10464         24.6047         3.79413 
        2.11077         24.4047         3.76718 
        2.11691         24.3825         3.74044 
        2.12305          24.259         3.71395 
        2.12918         24.2136         3.68779 
        2.13531         24.0864         3.66187 
        2.14145         24.0182         3.63614 
         2.1476         23.8477         3.61064 
        2.15372         23.7674          3.5855 
        2.15985         23.6539         3.56058 
        2.16599         23.5854         3.53582 
        2.17213         23.5189         3.51133 
        2.17827         23.3332         3.48707 
         2.1844         23.2372         3.46306 
        2.19054         23.1643         3.43928 
        2.19666         23.0933         3.41574 
         2.2028         23.0255         3.39241 
        2.20893         22.9052         3.36929 
        2.21508         22.8094         3.34635 
        2.22122         22.6576         3.32362 
        2.22736         22.6471         3.30115 
        2.23349         22.5255         3.27889 
        2.23962         22.4284         3.25683 
        2.24577         22.3066         3.23494 
         2.2519         22.2545         3.21329 
        2.25802         22.1636         3.19188 
        2.26417         22.0845         3.17059 
        2.27031          22.002         3.14949 
        2.27644          21.913         3.12863 
        2.28257         21.8076         3.10797 
        2.28872         21.6881         3.08745 
        2.29486         21.6316         3.06712 
        2.30099         21.5334         3.04702 
        2.30712         21.5087         3.02709 
        2.31326         21.4058          3.0073 
         2.3194         21.2813          2.9877 
        2.32553         21.2042         2.96831 
        2.33166         21.0919          2.9491 
         2.3378         21.0044         2.93003 
        2.34394         20.9548         2.91112 
        2.35007         20.8597         2.89241 
        2.35619          20.731         2.87389 
        2.36233         20.7046         2.85548 
        2.36848         20.5715          2.8372 
        2.37462         20.5162         2.81912 
        2.38075         20.4383         2.80121 
        2.38689         20.3887         2.78344 
        2.39303         20.2636         2.76582 
        2.39916         20.1966         2.74838 
        2.40529         20.0974         2.73109 
        2.41143         20.0579         2.71394 
        2.41757         19.9574         2.69693 
         2.4237         19.8736         2.68009 
        2.42983         19.8084          2.6634 
        2.43598         19.7326          2.6468 
        2.44211         19.6352         2.63038 
        2.44823         19.5398         2.61413 
        2.45437         19.4848         2.59797 
        2.46052         19.4156         2.58194 
        2.46665         19.3663         2.56607 
        2.47279          19.263         2.55034 
        2.47892         19.2065         2.53473 
        2.48507         19.1116         2.51923 
         2.4912         19.0555          2.5039 
