# k  (h/Mpc)    P(k)  (Mpc/h)^3    P_linear(k)  (Mpc/h)^3
     0.00783031         421.733         425.479 
       0.013688         517.786         522.617 
       0.019231         519.401         521.172 
      0.0249154         472.056         471.949 
      0.0312784         400.045         399.737 
      0.0375637         336.237         336.196 
      0.0433917         293.759         292.938 
      0.0492413         264.179         264.006 
      0.0555754         244.078         243.471 
      0.0619321         226.098         227.058 
       0.067871         210.431         210.592 
      0.0738098         191.214         191.205 
      0.0800417         169.171         168.794 
      0.0862327         147.427          147.22 
      0.0921407         129.921         129.752 
      0.0982031         116.768         116.283 
       0.104506         106.857         106.923 
       0.110769         100.947             101 
       0.116806         96.9924          96.744 
       0.122832          92.249         92.3656 
       0.129052         86.8466         86.7459 
       0.135211         80.2884         79.9978 
       0.141259         72.9838         72.8516 
       0.147318         66.0442         66.0614 
       0.153489         60.4346         60.2615 
       0.159709         56.1658         55.8867 
       0.165845         52.8255         52.8966 
       0.171974         51.0756         50.7923 
       0.178125         49.2159         49.0122 
       0.184229         47.1401          47.101 
        0.19034         45.0485         44.7921 
       0.196428          42.335         42.1142 
       0.202534         39.2681          39.268 
       0.208729         36.7588         36.5151 
       0.214876         34.5441         34.1585 
       0.220989         32.4218         32.2922 
       0.227147         31.2319         30.8591 
        0.23329         30.1047         29.7366 
       0.239377         29.1273         28.7501 
       0.245482         28.0659         27.7341 
       0.251667         26.8108         26.5901 
       0.257832         25.7204         25.3329 
       0.263955         24.3177         24.0366 
       0.270079          23.073         22.7834 
        0.27624         21.8697         21.6486 
       0.282372         20.9312         20.6851 
        0.28843         20.2714         19.8902 
       0.294538         19.5511         19.2089 
       0.300721         18.8265         18.5826 
        0.30691         18.3145         17.9674 
       0.313033         17.6458         17.3353 
       0.319153         17.1194         16.6772 
       0.325316         16.2735         16.0021 
        0.33145         15.6202          15.348 
       0.337538         15.0485         14.7414 
       0.343633         14.5489         14.1936 
       0.349808          14.019         13.7006 
       0.355968         13.5565         13.2601 
       0.362074         13.2156          12.857 
       0.368217         12.7993         12.4661 
       0.374374           12.48         12.0776 
       0.380519         12.0081         11.6875 
       0.386598         11.5959         11.3027 
       0.392688         11.2039         10.9264 
        0.39888         10.8845         10.5607 
       0.405048         10.5574         10.2203 
       0.411186         10.2295         9.90751 
       0.417313         9.94127         9.61741 
       0.423458         9.62352         9.34449 
       0.429607         9.41981         9.08352 
       0.435692         9.18732         8.83167 
       0.441815         8.89068         8.58247 
       0.447964         8.60732         8.33705 
       0.454126         8.41505         8.09689 
       0.460267         8.22816         7.86577 
       0.466387         7.98245         7.64618 
        0.47254         7.79483         7.43717 
       0.478662         7.57617         7.23988 
       0.484765         7.39188         7.05258 
       0.490885         7.18503         6.87269 
       0.497035         6.98861         6.69807 
       0.503198         6.85004         6.52767 
       0.509342         6.64976         6.36181 
       0.515458         6.51769         6.20129 
       0.521598         6.36411         6.04534 
       0.527764         6.23835         5.89436 
       0.533884         6.04304         5.75015 
           0.54         5.92299         5.61171 
       0.546137         5.76171         5.47836 
       0.552299         5.64578         5.34953 
       0.558452         5.51799         5.22525 
       0.564573         5.40718         5.10522 
       0.570708         5.28759          4.9881 
       0.576825         5.17371         4.87458 
       0.582926         5.05141         4.76474 
       0.589034         4.96078         4.65823 
       0.595184         4.87082         4.55452 
       0.601379         4.74556         4.45347 
       0.607522         4.64341         4.35649 
       0.613639         4.53501         4.26293 
       0.619772         4.46327         4.17199 
       0.625918         4.36957          4.0836 
       0.632068         4.28987         3.99776 
       0.638161         4.20052         3.91515 
         0.6443         4.11369         3.83423 
       0.650464         4.03005         3.75526 
       0.656582         3.97271         3.67905 
       0.662703         3.89532         3.60493 
       0.668861         3.79628         3.53246 
       0.675024         3.73106           3.462 
       0.681124          3.7035         3.39424 
       0.687237         3.61301         3.32824 
       0.693381         3.52422         3.26374 
       0.699536         3.48556         3.20087 
       0.705665         3.42061         3.13994 
       0.711789         3.34281         3.08066 
       0.717957         3.28416          3.0225 
        0.72409         3.23155         2.96616 
       0.730186         3.19389          2.9116 
       0.736317         3.12071         2.85812 
       0.742472          3.0786          2.8058 
       0.748622         3.02919         2.75486 
        0.75476         2.95976         2.70531 
       0.760888          2.9255         2.65707 
       0.767043         2.84918         2.60984 
       0.773185         2.81456         2.56387 
       0.779291         2.78892         2.51928 
       0.785407         2.73238          2.4757 
       0.791564         2.68782          2.4329 
       0.797719         2.64241         2.39113 
       0.803834         2.60198         2.35063 
       0.809972         2.55915         2.31092 
       0.816124         2.51976         2.27206 
       0.822261         2.48374         2.23421 
       0.828378         2.44179         2.19735 
       0.834502         2.40442         2.16129 
       0.840667         2.37529         2.12582 
       0.846816         2.33303         2.09126 
       0.852925         2.29482         2.05769 
       0.859047         2.26126         2.02479 
       0.865192          2.2293         1.99251 
       0.871341         2.19938         1.96093 
       0.877463         2.15991         1.93018 
       0.883569         2.13188         1.90017 
       0.889708          2.1056         1.87066 
       0.895864         2.07492          1.8417 
       0.902008         2.03836         1.81343 
       0.908149         2.01385         1.78577 
       0.914301         1.98937         1.75865 
       0.920448         1.96321         1.73212 
       0.926574         1.94255         1.70624 
       0.932687         1.91173         1.68094 
       0.938823         1.87607         1.65608 
       0.944975         1.85892         1.63166 
       0.951105         1.82253         1.60783 
       0.957225         1.80382         1.58452 
       0.963368         1.78426          1.5616 
       0.969511         1.76285         1.53913 
       0.975621         1.73357         1.51723 
       0.981748          1.7026          1.4957 
       0.987916         1.68508         1.47446 
        0.99406         1.66945         1.45371 
        1.00019         1.64634         1.43341 
        1.00632         1.63075         1.41352 
        1.01246         1.60682         1.39398 
        1.01859          1.5871         1.37484 
        1.02471         1.56036         1.35609 
        1.03085         1.54194         1.33763 
        1.03698         1.52682         1.31956 
        1.04314         1.50781         1.30174 
        1.04929         1.49257          1.2843 
        1.05541         1.46713         1.26725 
        1.06154         1.45498         1.25047 
        1.06769         1.43973         1.23397 
        1.07382         1.41905         1.21783 
        1.07993         1.40151         1.20202 
        1.08607         1.38772         1.18642 
        1.09222         1.36741         1.17109 
        1.09836           1.357         1.15604 
        1.10449         1.33387         1.14129 
        1.11063         1.31942         1.12677 
        1.11677         1.30753         1.11252 
         1.1229         1.28727         1.09854 
        1.12903         1.27812         1.08479 
        1.13518         1.25982         1.07127 
        1.14131         1.24807         1.05798 
        1.14745         1.23592         1.04493 
        1.15359          1.2201          1.0321 
        1.15973         1.20737         1.01949 
        1.16584         1.19241         1.00714 
        1.17197         1.17785        0.994976 
        1.17811         1.16509         0.98298 
        1.18424         1.15271        0.971218 
        1.19038         1.13854        0.959616 
        1.19652         1.13051        0.948209 
        1.20267         1.12024        0.936989 
        1.20881         1.10283        0.925953 
        1.21495         1.09363        0.915114 
        1.22108         1.08305        0.904452 
         1.2272         1.06739        0.893985 
        1.23334         1.05892        0.883661 
        1.23949         1.04924        0.873477 
        1.24562         1.03776        0.863483 
        1.25174         1.02805        0.853662 
        1.25789         1.01404        0.843964 
        1.26402          1.0046        0.834436 
        1.27014        0.991685        0.825079 
        1.27628         0.98545        0.815839 
        1.28244        0.975447        0.806724 
        1.28858        0.963343        0.797761 
        1.29471        0.953296        0.788955 
        1.30084        0.945466        0.780291 
        1.30697        0.938734        0.771745 
        1.31312        0.927978        0.763316 
        1.31925        0.918809        0.755041 
        1.32537        0.910696        0.746897 
        1.33151        0.900567        0.738845 
        1.33765        0.892157        0.730917 
        1.34378        0.882208        0.723123 
        1.34992        0.877002        0.715437 
        1.35606        0.866454        0.707847 
         1.3622        0.859268        0.700382 
        1.36833        0.851341        0.693043 
        1.37445        0.843109        0.685813 
        1.38059        0.835259        0.678665 
        1.38675        0.827279        0.671602 
        1.39288        0.819296        0.664668 
        1.39901        0.812164        0.657836 
        1.40515        0.803875        0.651086 
         1.4113        0.799949        0.644433 
        1.41742        0.790109        0.637899 
        1.42355        0.780776        0.631444 
         1.4297        0.776964         0.62506 
        1.43585        0.768194        0.618767 
        1.44198        0.762247        0.612585 
        1.44809        0.754716          0.6065 
        1.45423        0.748874        0.600475 
        1.46036        0.742156        0.594544 
        1.46649        0.734505        0.588691 
        1.47263        0.728086        0.582913 
        1.47877        0.725592        0.577215 
        1.48491        0.714385        0.571585 
        1.49104        0.711929        0.566042 
        1.49718        0.703042        0.560569 
        1.50333        0.698562         0.55516 
        1.50947        0.693396        0.549834 
         1.5156        0.686793        0.544586 
        1.52172        0.681588        0.539408 
        1.52787        0.674183        0.534286 
          1.534        0.670765        0.529238 
        1.54013        0.664337         0.52426 
        1.54627        0.658795        0.519338 
        1.55241        0.652433        0.514478 
        1.55855        0.647613        0.509689 
        1.56467        0.642421        0.504973 
         1.5708        0.636743        0.500304 
        1.57695        0.631003        0.495688 
        1.58308        0.624838        0.491141 
        1.58922        0.621782        0.486648 
        1.59535        0.615394        0.482213 
         1.6015        0.610477        0.477827 
        1.60764        0.605915        0.473499 
        1.61376        0.600946        0.469236 
        1.61989        0.596403        0.465023 
        1.62604         0.59047        0.460852 
        1.63218        0.587713        0.456735 
        1.63831        0.581873        0.452678 
        1.64444        0.578014         0.44867 
        1.65059        0.572895          0.4447 
        1.65673         0.56832        0.440784 
        1.66285        0.564586        0.436925 
        1.66898        0.560463        0.433112 
        1.67512        0.554488        0.429337 
        1.68127        0.550177        0.425604 
         1.6874        0.547628        0.421924 
        1.69353        0.542462         0.41829 
        1.69967        0.538892         0.41469 
        1.70581        0.535408        0.411134 
        1.71193        0.531303        0.407634 
        1.71806        0.527387        0.404167 
        1.72421        0.522842        0.400734 
        1.73035        0.517629        0.397345 
        1.73649        0.516617        0.393996 
        1.74262         0.51053        0.390688 
        1.74876        0.507694        0.387416 
        1.75489        0.504436        0.384189 
        1.76101        0.499694           0.381 
        1.76715        0.496472        0.377842 
        1.77329        0.492978        0.374717 
        1.77943        0.489239        0.371626 
        1.78557        0.487229        0.368575 
        1.79171        0.483334        0.365557 
        1.79785        0.479186        0.362573 
        1.80399        0.474521        0.359623 
        1.81012         0.47245         0.35671 
        1.81625        0.469608         0.35383 
        1.82239        0.466523        0.350979 
        1.82853        0.462449         0.34816 
        1.83466        0.458987        0.345375 
        1.84078         0.45533        0.342623 
        1.84692        0.452942        0.339897 
        1.85306        0.450308        0.337198 
         1.8592        0.446651        0.334532 
        1.86533        0.444216        0.331897 
        1.87147        0.439647        0.329287 
        1.87761         0.43719        0.326704 
        1.88375        0.434576        0.324152 
        1.88988        0.430783        0.321631 
        1.89601        0.427464        0.319135 
        1.90215        0.425604        0.316663 
        1.90829        0.421973        0.314219 
        1.91442        0.419989        0.311801 
        1.92056        0.417886         0.30941 
         1.9267        0.414049        0.307042 
        1.93284        0.410947        0.304698 
        1.93897        0.408933        0.302383 
        1.94509        0.406703        0.300096 
        1.95123        0.402647        0.297828 
        1.95737        0.400352        0.295582 
        1.96349         0.39776        0.293365 
        1.96964        0.395354        0.291164 
        1.97578        0.392372        0.288985 
        1.98192        0.390489        0.286832 
        1.98805        0.388152        0.284702 
        1.99419        0.386012        0.282593 
        2.00033        0.383258        0.280504 
        2.00647        0.380706        0.278438 
         2.0126        0.378346        0.276395 
        2.01874        0.376144        0.274371 
        2.02488        0.373333        0.272364 
        2.03101        0.370877        0.270382 
        2.03714        0.369736        0.268421 
        2.04328        0.366048        0.266478 
        2.04941        0.364593        0.264555 
        2.05554        0.362232        0.262653 
        2.06167        0.359918        0.260768 
        2.06781        0.356503          0.2589 
        2.07396        0.355718        0.257048 
        2.08009         0.35311        0.255218 
        2.08622        0.351185        0.253407 
        2.09237        0.349095        0.251611 
        2.09851        0.346281        0.249832 
        2.10464        0.344568        0.248073 
        2.11077        0.341655        0.246333 
        2.11691          0.3403        0.244606 
        2.12305        0.338577        0.242896 
        2.12918        0.336123        0.241206 
        2.13531         0.33441        0.239532 
        2.14145        0.332112         0.23787 
         2.1476        0.330415        0.236222 
        2.15372        0.328658        0.234598 
        2.15985        0.326019        0.232988 
        2.16599        0.324574        0.231388 
        2.17213        0.322835        0.229806 
        2.17827        0.320373        0.228238 
         2.1844        0.319355        0.226686 
        2.19054         0.31744        0.225149 
        2.19666         0.31548        0.223628 
         2.2028        0.312904        0.222119 
        2.20893        0.311886        0.220624 
        2.21508        0.310058        0.219141 
        2.22122        0.308465        0.217671 
        2.22736        0.305783        0.216218 
        2.23349        0.303834        0.214779 
        2.23962        0.302598        0.213352 
        2.24577        0.301118        0.211936 
         2.2519         0.29953        0.210536 
        2.25802        0.297668         0.20915 
        2.26417        0.296046        0.207773 
        2.27031        0.294304        0.206408 
        2.27644        0.293721        0.205058 
        2.28257        0.291138        0.203721 
        2.28872        0.289873        0.202393 
        2.29486        0.288081        0.201078 
        2.30099        0.286374        0.199776 
        2.30712        0.284891        0.198486 
        2.31326        0.283227        0.197205 
         2.3194        0.282033        0.195936 
        2.32553        0.280308        0.194681 
        2.33166        0.279045        0.193437 
         2.3378        0.277381        0.192202 
        2.34394        0.275919        0.190977 
        2.35007         0.27429        0.189766 
        2.35619        0.272348        0.188566 
        2.36233        0.271278        0.187373 
        2.36848         0.27004        0.186189 
        2.37462        0.268971        0.185017 
        2.38075        0.267353        0.183857 
        2.38689        0.266122        0.182706 
        2.39303        0.264552        0.181564 
        2.39916        0.263007        0.180434 
        2.40529        0.261914        0.179314 
        2.41143         0.26002        0.178202 
        2.41757        0.258897        0.177099 
         2.4237        0.257576        0.176008 
        2.42983        0.256599        0.174925 
        2.43598        0.255149         0.17385 
        2.44211        0.253038        0.172785 
        2.44823        0.252643        0.171731 
        2.45437         0.25158        0.170683 
        2.46052        0.250042        0.169643 
        2.46665        0.248564        0.168614 
        2.47279        0.247267        0.167594 
        2.47892         0.24646        0.166581 
        2.48507        0.245003        0.165576 
         2.4912        0.243871        0.164581 
