# k  (h/Mpc)    Pcb(k)  (Mpc/h)^3    Pcb_linear(k)  (Mpc/h)^3
     0.00783031         11324.2         11378.4 
       0.013688         13944.9         14276.3 
       0.019231         14590.9         14795.4 
      0.0249154         14102.3         14101.1 
      0.0312784         12532.1         12678.1 
      0.0375637         10959.4         11173.5 
      0.0433917         9869.06         9958.96 
      0.0492413         8836.32         8994.35 
      0.0555754         8114.85         8205.28 
      0.0619321         7284.55         7585.77 
       0.067871         6885.79         7070.51 
      0.0738098         6429.73         6554.39 
      0.0800417         5888.21          5987.8 
      0.0862327         5303.16         5414.56 
      0.0921407         4818.46         4892.35 
      0.0982031         4410.98            4417 
       0.104506         3958.99         4010.73 
       0.110769         3673.67         3697.95 
       0.116806          3508.6         3466.96 
       0.122832         3286.62         3280.95 
       0.129052         3115.83         3108.87 
       0.135211         3005.27         2937.62 
       0.141259         2790.03          2759.2 
       0.147318         2580.91         2571.92 
       0.153489          2431.5          2381.8 
       0.159709         2323.48         2203.03 
       0.165845         2121.95          2048.8 
       0.171974          2065.8         1920.77 
       0.178125          1989.7         1816.76 
       0.184229         1840.68         1731.96 
        0.19034         1808.07         1657.76 
       0.196428         1752.93         1587.35 
       0.202534         1644.73         1515.43 
       0.208729         1611.71         1439.47 
       0.214876         1541.98         1362.43 
       0.220989         1456.22         1287.25 
       0.227147         1418.95         1216.37 
        0.23329         1363.77         1152.99 
       0.239377          1349.1         1098.31 
       0.245482         1283.24         1050.96 
       0.251667         1235.73         1008.83 
       0.257832         1218.88         970.417 
       0.263955         1160.62         933.816 
       0.270079         1127.43         897.423 
        0.27624         1080.86         860.639 
       0.282372         1064.47         824.235 
        0.28843         1050.99         789.258 
       0.294538         999.932         755.895 
       0.300721         976.868         724.705 
        0.30691         957.296         696.338 
       0.313033         918.664         670.868 
       0.319153         906.684         647.512 
       0.325316          894.44         625.463 
        0.33145         875.668         604.437 
       0.337538         845.584         584.074 
       0.343633         824.225         564.078 
       0.349808         806.732         544.261 
       0.355968         791.983         525.143 
       0.362074         766.762         507.047 
       0.368217         763.918         489.865 
       0.374374         751.929         473.734 
       0.380519         724.049         458.657 
       0.386598          718.36         444.624 
       0.392688         702.647         431.264 
        0.39888         684.989          418.23 
       0.405048         673.351         405.684 
       0.411186         671.162         393.561 
       0.417313         666.515         381.823 
       0.423458         645.735         370.451 
       0.429607          628.31         359.511 
       0.435692         621.464         349.161 
       0.441815          610.59         339.232 
       0.447964         600.845         329.727 
       0.454126         593.715         320.637 
       0.460267         584.574         311.959 
       0.466387         575.676         303.636 
        0.47254         566.233         295.551 
       0.478662         556.716         287.771 
       0.484765         551.176         280.262 
       0.490885         545.267         272.977 
       0.497035          534.83          265.91 
       0.503198         534.546         259.092 
       0.509342         523.157          252.55 
       0.515458         513.807         246.283 
       0.521598         508.628         240.225 
       0.527764          499.33         234.361 
       0.533884         496.319          228.74 
           0.54         490.633         223.305 
       0.546137         481.934         218.021 
       0.552299         480.629         212.882 
       0.558452         473.734         207.913 
       0.564573         468.885         203.125 
       0.570708         464.274         198.478 
       0.576825         455.327         193.995 
       0.582926         453.202         189.668 
       0.589034         446.541         185.475 
       0.595184         443.129         181.386 
       0.601379         436.224         177.395 
       0.607522         428.874         173.556 
       0.613639         427.606         169.846 
       0.619772         425.857         166.235 
       0.625918         418.275         162.722 
       0.632068         414.801         159.309 
       0.638161         411.061         156.024 
         0.6443         406.818         152.809 
       0.650464         402.147         149.675 
       0.656582         398.732         146.652 
       0.662703         395.532         143.714 
       0.668861          389.87         140.842 
       0.675024         387.502         138.047 
       0.681124         382.537         135.356 
       0.687237         380.422         132.732 
       0.693381         375.621         130.165 
       0.699536         373.302         127.662 
       0.705665         369.369         125.236 
       0.711789         367.797         122.875 
       0.717957         362.717         120.561 
        0.72409         358.984         118.319 
       0.730186         360.937         116.149 
       0.736317         354.382         114.022 
       0.742472         350.873         111.941 
       0.748622         347.736         109.915 
        0.75476         346.428         107.943 
       0.760888         343.011         106.023 
       0.767043         340.053         104.143 
       0.773185          338.26         102.312 
       0.779291         333.255         100.536 
       0.785407         332.103         98.8003 
       0.791564          329.05         97.0949 
       0.797719         324.116          95.431 
       0.803834         326.636         93.8171 
       0.809972         321.646         92.2351 
       0.816124         318.128         90.6865 
       0.822261         315.466         89.1779 
       0.828378          314.72         87.7085 
       0.834502         310.093         86.2711 
       0.840667         310.256         84.8569 
       0.846816         304.855         83.4786 
       0.852925         305.136         82.1399 
       0.859047         302.203         80.8278 
       0.865192         301.413         79.5403 
       0.871341         297.162         78.2802 
       0.877463         294.943         77.0533 
       0.883569         293.612         75.8559 
       0.889708         291.016          74.678 
       0.895864         288.652         73.5223 
       0.902008         286.751         72.3936 
       0.908149         284.443         71.2893 
       0.914301         282.906         70.2065 
       0.920448         281.404         69.1473 
       0.926574         279.276         68.1139 
       0.932687         277.711         67.1038 
       0.938823         274.985         66.1108 
       0.944975         274.098         65.1356 
       0.951105         271.397         64.1838 
       0.957225          268.89         63.2528 
       0.963368         268.936         62.3371 
       0.969511          264.06         61.4397 
       0.975621         263.348          60.565 
       0.981748         262.085         59.7051 
       0.987916         260.842         58.8566 
        0.99406         258.484         58.0279 
        1.00019          256.58          57.217 
        1.00632         256.032         56.4223 
        1.01246         253.998         55.6417 
        1.01859         251.127         54.8772 
        1.02471         249.391         54.1282 
        1.03085         248.563         53.3906 
        1.03698         247.086         52.6684 
        1.04314         246.566         51.9566 
        1.04929         244.695         51.2597 
        1.05541          242.49         50.5785 
        1.06154         240.814          49.908 
        1.06769         238.847         49.2488 
        1.07382         238.551         48.6037 
        1.07993          235.78         47.9716 
        1.08607         234.378         47.3483 
        1.09222         233.073         46.7354 
        1.09836         232.321         46.1342 
        1.10449         230.281         45.5443 
        1.11063         228.653         44.9641 
        1.11677         227.325         44.3943 
         1.1229         226.089         43.8353 
        1.12903         224.821         43.2856 
        1.13518         223.197         42.7448 
        1.14131         222.398         42.2137 
        1.14745         219.997         41.6919 
        1.15359         218.309         41.1788 
        1.15973         217.865         40.6742 
        1.16584          216.83         40.1803 
        1.17197         215.233          39.694 
        1.17811         213.482         39.2142 
        1.18424         212.381         38.7439 
        1.19038         211.167         38.2799 
        1.19652          209.09         37.8237 
        1.20267           208.4          37.375 
        1.20881         206.847         36.9336 
        1.21495         206.608         36.5002 
        1.22108         204.963         36.0738 
         1.2272         202.984         35.6552 
        1.23334         202.325         35.2424 
        1.23949         201.589         34.8352 
        1.24562         200.059         34.4355 
        1.25174         198.802         34.0428 
        1.25789         197.134          33.655 
        1.26402         197.004          33.274 
        1.27014         196.039         32.8998 
        1.27628         193.764         32.5303 
        1.28244         193.056         32.1658 
        1.28858         191.802         31.8074 
        1.29471         190.883         31.4553 
        1.30084         189.644         31.1088 
        1.30697         188.165         30.7671 
        1.31312          187.18           30.43 
        1.31925         186.025         30.0991 
        1.32537         185.492         29.7734 
        1.33151         184.307         29.4514 
        1.33765         182.741         29.1343 
        1.34378          182.21         28.8226 
        1.34992         181.028         28.5152 
        1.35606         179.973         28.2117 
         1.3622          179.18         27.9131 
        1.36833         177.373         27.6196 
        1.37445         177.424         27.3304 
        1.38059         175.728         27.0445 
        1.38675         174.725         26.7621 
        1.39288         173.634         26.4848 
        1.39901         172.723         26.2116 
        1.40515         172.014         25.9416 
         1.4113          170.73         25.6755 
        1.41742         169.374         25.4142 
        1.42355         169.653         25.1561 
         1.4297         167.932         24.9007 
        1.43585         167.147         24.6491 
        1.44198         165.464         24.4018 
        1.44809         164.869         24.1585 
        1.45423         164.267         23.9175 
        1.46036         163.077         23.6803 
        1.46649         162.074         23.4463 
        1.47263         161.574         23.2152 
        1.47877         160.269         22.9873 
        1.48491         159.222         22.7622 
        1.49104         157.696         22.5406 
        1.49718         157.555         22.3217 
        1.50333         156.675         22.1054 
        1.50947         155.706         21.8925 
         1.5156         154.674         21.6826 
        1.52172         154.034         21.4756 
        1.52787         153.158         21.2708 
          1.534         152.271          21.069 
        1.54013         151.485         20.8699 
        1.54627         150.492         20.6731 
        1.55241         149.932         20.4789 
        1.55855         149.208         20.2874 
        1.56467         148.024         20.0988 
         1.5708          146.89         19.9122 
        1.57695         146.532         19.7276 
        1.58308          145.45         19.5459 
        1.58922         145.099         19.3662 
        1.59535          144.06          19.189 
         1.6015         142.986         19.0137 
        1.60764         142.167         18.8406 
        1.61376         141.408         18.6702 
        1.61989         140.762         18.5018 
        1.62604         139.692         18.3351 
        1.63218         139.205         18.1706 
        1.63831         138.285         18.0084 
        1.64444         137.363         17.8482 
        1.65059         136.709         17.6895 
        1.65673          136.18          17.533 
        1.66285         135.659         17.3787 
        1.66898         134.453         17.2263 
        1.67512         133.886         17.0754 
        1.68127         133.164         16.9262 
         1.6874         132.119         16.7791 
        1.69353         131.748         16.6339 
        1.69967         130.786           16.49 
        1.70581          130.42         16.3479 
        1.71193         129.373          16.208 
        1.71806         128.467         16.0694 
        1.72421         128.072         15.9322 
        1.73035         127.368         15.7968 
        1.73649         126.336          15.663 
        1.74262         126.077         15.5308 
        1.74876         125.133         15.4001 
        1.75489         124.629         15.2711 
        1.76101         123.848         15.1437 
        1.76715         122.874         15.0175 
        1.77329          122.47         14.8926 
        1.77943         121.479         14.7691 
        1.78557         121.199         14.6472 
        1.79171         120.571         14.5267 
        1.79785         119.436         14.4074 
        1.80399         119.126         14.2896 
        1.81012         118.104         14.1732 
        1.81625          117.86         14.0582 
        1.82239         117.168         13.9443 
        1.82853         116.624         13.8317 
        1.83466          115.68         13.7204 
        1.84078         115.295         13.6105 
        1.84692         114.973         13.5017 
        1.85306         114.014         13.3938 
         1.8592         113.554         13.2874 
        1.86533         112.644         13.1821 
        1.87147         112.406         13.0779 
        1.87761         111.419         12.9748 
        1.88375         110.777         12.8729 
        1.88988         110.061         12.7722 
        1.89601         109.906         12.6725 
        1.90215         109.361         12.5738 
        1.90829          108.38         12.4762 
        1.91442         107.714         12.3796 
        1.92056         107.302         12.2841 
         1.9267         106.631         12.1896 
        1.93284         106.092          12.096 
        1.93897          105.65         12.0035 
        1.94509         104.938         11.9122 
        1.95123         104.434         11.8217 
        1.95737         104.105          11.732 
        1.96349         103.488         11.6435 
        1.96964         102.798         11.5556 
        1.97578         102.221         11.4686 
        1.98192         101.809         11.3827 
        1.98805         101.135         11.2976 
        1.99419         100.588         11.2134 
        2.00033         99.9741         11.1301 
        2.00647         99.5854         11.0476 
         2.0126          98.999         10.9661 
        2.01874         98.8684         10.8852 
        2.02488         97.8601         10.8052 
        2.03101         97.5335          10.726 
        2.03714         96.9331         10.6478 
        2.04328         96.5714         10.5702 
        2.04941          96.119         10.4935 
        2.05554         95.5111         10.4176 
        2.06167         94.6865         10.3423 
        2.06781         94.2135         10.2678 
        2.07396         93.9191         10.1939 
        2.08009         93.1438         10.1209 
        2.08622         92.9662         10.0486 
        2.09237         92.5112         9.97693 
        2.09851         91.7745         9.90594 
        2.10464         91.5619         9.83576 
        2.11077         90.9889         9.76634 
        2.11691         90.6845         9.69745 
        2.12305         90.0404         9.62921 
        2.12918         89.5908          9.5618 
        2.13531         89.1036         9.49502 
        2.14145         88.4929         9.42873 
         2.1476         88.2297           9.363 
        2.15372         87.6184         9.29823 
        2.15985         87.1653           9.234 
        2.16599         86.6957         9.17019 
        2.17213          86.333         9.10706 
        2.17827         85.6838         9.04454 
         2.1844         85.3611         8.98266 
        2.19054         84.9713         8.92134 
        2.19666         84.5469         8.86068 
         2.2028          84.097         8.80052 
        2.20893         83.6086          8.7409 
        2.21508         83.1435         8.68176 
        2.22122         82.6613         8.62315 
        2.22736         82.4047          8.5652 
        2.23349          81.838          8.5078 
        2.23962         81.5068          8.4509 
        2.24577         81.0658         8.39447 
         2.2519         80.6378         8.33863 
        2.25802         80.1388         8.28339 
        2.26417         79.7195         8.22849 
        2.27031         79.2831         8.17404 
        2.27644         78.9638         8.12025 
        2.28257         78.5576         8.06694 
        2.28872         78.1394         8.01401 
        2.29486         77.8679         7.96157 
        2.30099         77.2048          7.9097 
        2.30712         77.0006         7.85827 
        2.31326         76.6547         7.80721 
         2.3194         76.0918         7.75664 
        2.32553          75.746          7.7066 
        2.33166         75.2599         7.65702 
         2.3378         75.1352         7.60781 
        2.34394         74.7102         7.55902 
        2.35007           74.18         7.51072 
        2.35619         73.8993         7.46291 
        2.36233         73.5443          7.4154 
        2.36848          73.075          7.3682 
        2.37462         72.7144         7.32152 
        2.38075          72.366         7.27528 
        2.38689         72.0175          7.2294 
        2.39303         71.6645         7.18393 
        2.39916         71.2616          7.1389 
        2.40529          70.982         7.09425 
        2.41143         70.6062         7.04996 
        2.41757         70.1309         7.00602 
         2.4237         69.8155         6.96254 
        2.42983         69.4701         6.91944 
        2.43598         69.2304         6.87658 
        2.44211         68.6861         6.83416 
        2.44823         68.5569         6.79219 
        2.45437         68.1377         6.75046 
        2.46052         67.7331         6.70905 
        2.46665         67.3026         6.66805 
        2.47279         67.0387         6.62741 
        2.47892         66.7125         6.58709 
        2.48507         66.3361         6.54706 
         2.4912         66.0275         6.50744 
