# k  (h/Mpc)    Pcb(k)  (Mpc/h)^3    Pcb_linear(k)  (Mpc/h)^3
     0.00783031         107.116         108.085 
       0.013688         124.041         124.992 
       0.019231         118.024         118.319 
      0.0249154         101.288         101.287 
      0.0312784         80.3276         80.1634 
      0.0375637         63.2209         63.0841 
      0.0433917         52.4093         52.2193 
      0.0492413         45.6428          45.546 
      0.0555754         41.5916         41.4903 
      0.0619321         38.7859         38.8592 
       0.067871         36.3015         36.3309 
      0.0738098         33.0393         33.0614 
      0.0800417         28.8964         28.8777 
      0.0862327         24.5655         24.5385 
      0.0921407         20.8903         20.8631 
      0.0982031         18.0435         17.9792 
       0.104506         16.0509         16.0315 
       0.110769          14.981         14.9688 
       0.116806         14.4548         14.4373 
       0.122832         14.0153         14.0307 
       0.129052         13.4296         13.4373 
       0.135211         12.5363         12.5328 
       0.141259         11.3791         11.3829 
       0.147318         10.1346         10.1404 
       0.153489         8.99069         8.98047 
       0.159709         8.07933         8.06228 
       0.165845         7.44583         7.44858 
       0.171974         7.10291         7.08623 
       0.178125         6.88683         6.88063 
       0.184229         6.71617         6.72158 
        0.19034         6.51784          6.5119 
       0.196428          6.2029         6.20232 
       0.202534         5.78125         5.79528 
       0.208729          5.3351         5.33213 
       0.214876         4.90111         4.88713 
       0.220989         4.51274         4.51147 
       0.227147         4.24083         4.22635 
        0.23329         4.04526         4.03181 
       0.239377         3.91505         3.90285 
       0.245482         3.81199         3.80229 
       0.251667         3.69627          3.6951 
       0.257832         3.56805         3.55976 
       0.263955         3.39554         3.39219 
       0.270079         3.20517         3.20175 
        0.27624         3.00709         3.00663 
       0.282372         2.83086         2.82865 
        0.28843         2.69053         2.68103 
       0.294538         2.57301         2.56462 
       0.300721          2.4776         2.47446 
        0.30691         2.40877         2.40172 
       0.313033         2.34018         2.33441 
       0.319153         2.27549         2.26252 
       0.325316         2.18194          2.1803 
        0.33145         2.09227         2.08996 
       0.337538         2.00038         1.99632 
       0.343633         1.91295         1.90551 
       0.349808         1.82733         1.82181 
       0.355968         1.75382         1.74992 
       0.362074         1.69735         1.68997 
       0.368217         1.64473         1.63841 
       0.374374          1.6014         1.59181 
       0.380519         1.55173         1.54624 
       0.386598          1.5035         1.49973 
       0.392688         1.45274         1.45078 
        0.39888         1.40397         1.39922 
       0.405048         1.35337         1.34824 
       0.411186          1.3044         1.29977 
       0.417313         1.26063         1.25511 
       0.423458         1.21807         1.21502 
       0.429607         1.18492         1.17898 
       0.435692         1.15259         1.14632 
       0.441815         1.12064         1.11534 
       0.447964         1.08713         1.08488 
       0.454126         1.05917         1.05411 
       0.460267         1.02989         1.02329 
       0.466387        0.998658        0.992782 
        0.47254        0.969505        0.962752 
       0.478662        0.939743        0.934149 
       0.484765        0.913885        0.907464 
       0.490885        0.887586        0.882608 
       0.497035        0.862719         0.85922 
       0.503198        0.842368        0.837043 
       0.509342        0.818959        0.815848 
       0.515458        0.800317        0.795317 
       0.521598         0.78016        0.774981 
       0.527764        0.761532        0.754749 
       0.533884         0.73876        0.735086 
           0.54        0.720626        0.716077 
       0.546137        0.701327        0.697787 
       0.552299        0.684597        0.680242 
       0.558452        0.668237        0.663519 
       0.564573        0.652042        0.647641 
       0.570708        0.637018        0.632407 
       0.576825         0.62235        0.617763 
       0.582926        0.607255        0.603556 
       0.589034        0.594993        0.589626 
       0.595184        0.581627        0.575879 
       0.601379         0.56685        0.562381 
       0.607522        0.553561        0.549414 
       0.613639        0.540287        0.536965 
       0.619772        0.529603        0.524958 
       0.625918        0.517852        0.513362 
       0.632068        0.506676        0.502147 
       0.638161        0.495509        0.491376 
         0.6443        0.484942        0.480833 
       0.650464        0.475202        0.470543 
       0.656582        0.465461        0.460616 
       0.662703        0.455474        0.450963 
       0.668861        0.444923        0.441525 
       0.675024        0.436272        0.432348 
       0.681124        0.429179        0.423522 
       0.687237        0.419447        0.414926 
       0.693381        0.410147        0.406531 
       0.699536        0.403132        0.398358 
       0.705665        0.395281        0.390449 
       0.711789        0.386325        0.382768 
       0.717957        0.379443        0.375246 
        0.72409         0.37174        0.367972 
       0.730186        0.365832        0.360937 
       0.736317        0.357741        0.354048 
       0.742472        0.351686        0.347314 
       0.748622        0.345241        0.340762 
        0.75476        0.338515        0.334391 
       0.760888        0.332822        0.328193 
       0.767043        0.325022        0.322127 
       0.773185        0.319978        0.316227 
       0.779291         0.31505        0.310508 
       0.785407        0.308827        0.304922 
       0.791564        0.303321        0.299438 
       0.797719        0.297983        0.294093 
       0.803834        0.292702        0.288912 
       0.809972        0.287768        0.283838 
       0.816124        0.282526        0.278875 
       0.822261        0.278021        0.274045 
       0.828378        0.273127        0.269345 
       0.834502        0.268444        0.264752 
       0.840667        0.264318        0.260237 
       0.846816        0.259702        0.255841 
       0.852925        0.254886        0.251575 
       0.859047        0.250919        0.247399 
       0.865192        0.247003        0.243303 
       0.871341        0.243349        0.239299 
       0.877463        0.238725        0.235403 
       0.883569        0.235125        0.231604 
       0.889708        0.231411        0.227869 
       0.895864        0.227842        0.224208 
       0.902008        0.223964        0.220634 
       0.908149        0.220694        0.217141 
       0.914301        0.217752        0.213719 
       0.920448        0.214169        0.210373 
       0.926574        0.211148        0.207111 
       0.932687        0.208048        0.203925 
       0.938823        0.204298        0.200795 
       0.944975        0.201374        0.197723 
       0.951105           0.198        0.194727 
       0.957225        0.195064        0.191799 
       0.963368        0.192575         0.18892 
       0.969511        0.189991        0.186101 
       0.975621        0.186714        0.183355 
       0.981748        0.183632        0.180657 
       0.987916        0.181222        0.177996 
        0.99406         0.17882        0.175399 
        1.00019        0.176142         0.17286 
        1.00632        0.174029        0.170372 
        1.01246        0.171604        0.167931 
        1.01859        0.169083        0.165541 
        1.02471        0.166406          0.1632 
        1.03085        0.163915        0.160897 
        1.03698        0.162018        0.158643 
        1.04314        0.159694        0.156423 
        1.04929        0.157863        0.154251 
        1.05541        0.155264        0.152128 
        1.06154        0.153348        0.150041 
        1.06769        0.151461         0.14799 
        1.07382        0.149402        0.145983 
        1.07993        0.147483        0.144019 
        1.08607        0.145306        0.142083 
        1.09222        0.143501         0.14018 
        1.09836        0.141539        0.138315 
        1.10449        0.139599        0.136486 
        1.11063        0.137869        0.134688 
        1.11677        0.136272        0.132923 
         1.1229        0.134172        0.131193 
        1.12903         0.13266        0.129492 
        1.13518        0.130904         0.12782 
        1.14131        0.129341        0.126178 
        1.14745        0.128058        0.124567 
        1.15359        0.126241        0.122983 
        1.15973        0.124851        0.121426 
        1.16584        0.123145        0.119903 
        1.17197        0.121495        0.118404 
        1.17811        0.120001        0.116926 
        1.18424        0.118536        0.115477 
        1.19038        0.116904        0.114049 
        1.19652        0.115922        0.112646 
        1.20267        0.114415        0.111266 
        1.20881        0.112715         0.10991 
        1.21495        0.111537        0.108579 
        1.22108         0.11035        0.107269 
         1.2272        0.108856        0.105985 
        1.23334        0.107657        0.104718 
        1.23949         0.10656        0.103469 
        1.24562        0.105267        0.102244 
        1.25174        0.104058        0.101041 
        1.25789        0.102549       0.0998535 
        1.26402        0.101764        0.098687 
        1.27014         0.10026        0.097542 
        1.27628       0.0993359       0.0964118 
        1.28244       0.0982085       0.0952973 
        1.28858       0.0969277       0.0942019 
        1.29471       0.0959499       0.0931262 
        1.30084       0.0948123       0.0920683 
        1.30697       0.0939781       0.0910252 
        1.31312        0.092926       0.0899968 
        1.31925        0.091784       0.0889876 
        1.32537       0.0908395       0.0879948 
        1.33151       0.0898341       0.0870136 
        1.33765       0.0887821        0.086048 
        1.34378       0.0877673        0.085099 
        1.34992       0.0871085       0.0841636 
        1.35606       0.0860418       0.0832402 
         1.3622       0.0850991       0.0823324 
        1.36833       0.0843228       0.0814403 
        1.37445       0.0834786       0.0805619 
        1.38059       0.0824537       0.0796937 
        1.38675       0.0815528       0.0788363 
        1.39288       0.0805706       0.0779949 
        1.39901       0.0800195       0.0771662 
        1.40515       0.0790766       0.0763476 
         1.4113       0.0783705       0.0755412 
        1.41742       0.0775828       0.0747496 
        1.42355       0.0765022       0.0739678 
         1.4297       0.0759843       0.0731948 
        1.43585       0.0750934       0.0724331 
        1.44198       0.0743976       0.0716852 
        1.44809       0.0736278       0.0709492 
        1.45423       0.0728838       0.0702208 
        1.46036        0.072159        0.069504 
        1.46649       0.0714125       0.0687968 
        1.47263       0.0705605        0.068099 
        1.47877       0.0702083       0.0674111 
        1.48491       0.0692682       0.0667316 
        1.49104       0.0687995        0.066063 
        1.49718       0.0680494       0.0654029 
        1.50333       0.0673853       0.0647509 
        1.50947       0.0667528        0.064109 
         1.5156       0.0661058       0.0634768 
        1.52172       0.0654732       0.0628532 
        1.52787       0.0647503       0.0622366 
          1.534       0.0642898       0.0616291 
        1.54013       0.0635717       0.0610303 
        1.54627       0.0630921       0.0604383 
        1.55241        0.062485       0.0598542 
        1.55855       0.0618804       0.0592785 
        1.56467       0.0613742        0.058712 
         1.5708       0.0607278       0.0581513 
        1.57695       0.0601902       0.0575971 
        1.58308       0.0594874       0.0570514 
        1.58922       0.0590853       0.0565123 
        1.59535       0.0584698       0.0559804 
         1.6015       0.0580403       0.0554547 
        1.60764       0.0574066       0.0549359 
        1.61376       0.0569241       0.0544252 
        1.61989       0.0563871       0.0539205 
        1.62604       0.0559194       0.0534212 
        1.63218       0.0554244       0.0529284 
        1.63831       0.0549415        0.052443 
        1.64444       0.0544412       0.0519635 
        1.65059       0.0538443       0.0514889 
        1.65673       0.0534777       0.0510206 
        1.66285        0.053063       0.0505595 
        1.66898       0.0524678       0.0501039 
        1.67512       0.0520774       0.0496531 
        1.68127       0.0516207       0.0492073 
         1.6874       0.0511859       0.0487681 
        1.69353       0.0507512       0.0483344 
        1.69967       0.0501876        0.047905 
        1.70581       0.0499402       0.0474809 
        1.71193       0.0495052       0.0470636 
        1.71806         0.04904       0.0466504 
        1.72421       0.0485437       0.0462414 
        1.73035        0.048223       0.0458377 
        1.73649       0.0478018       0.0454389 
        1.74262       0.0473844       0.0450452 
        1.74876       0.0470566       0.0446558 
        1.75489       0.0466137       0.0442719 
        1.76101       0.0462576       0.0438926 
        1.76715       0.0459005       0.0435172 
        1.77329       0.0454556       0.0431457 
        1.77943       0.0450667       0.0427784 
        1.78557       0.0447821       0.0424159 
        1.79171       0.0444245       0.0420575 
        1.79785       0.0439804       0.0417032 
        1.80399        0.043635       0.0413531 
        1.81012       0.0433107       0.0410074 
        1.81625       0.0429832       0.0406658 
        1.82239       0.0426718       0.0403276 
        1.82853       0.0422885       0.0399934 
        1.83466       0.0419533       0.0396634 
        1.84078       0.0416493       0.0393373 
        1.84692       0.0413434       0.0390144 
        1.85306       0.0409977       0.0386948 
         1.8592       0.0406802       0.0383792 
        1.86533       0.0403868       0.0380673 
        1.87147        0.040062       0.0377585 
        1.87761       0.0396867        0.037453 
        1.88375       0.0393262       0.0371512 
        1.88988        0.039123       0.0368531 
        1.89601        0.038796       0.0365581 
        1.90215       0.0384634        0.036266 
        1.90829       0.0381593       0.0359773 
        1.91442       0.0379198       0.0356917 
        1.92056       0.0376115       0.0354095 
         1.9267       0.0373475         0.03513 
        1.93284       0.0370069       0.0348533 
        1.93897       0.0367279       0.0345801 
        1.94509        0.036474       0.0343105 
        1.95123       0.0362118        0.034043 
        1.95737        0.036007       0.0337782 
        1.96349       0.0357476       0.0335169 
        1.96964       0.0354192       0.0332575 
        1.97578       0.0351814       0.0330008 
        1.98192       0.0349095       0.0327473 
        1.98805       0.0347005       0.0324965 
        1.99419       0.0344441       0.0322482 
        2.00033       0.0341334       0.0320025 
        2.00647       0.0339099       0.0317593 
         2.0126       0.0337303       0.0315191 
        2.01874       0.0334194        0.031281 
        2.02488       0.0331725       0.0310451 
        2.03101       0.0329195       0.0308121 
        2.03714       0.0328241       0.0305818 
        2.04328       0.0324433       0.0303535 
        2.04941       0.0322813       0.0301277 
        2.05554       0.0320823       0.0299043 
        2.06167        0.031812       0.0296829 
        2.06781        0.031575       0.0294638 
        2.07396       0.0313479       0.0292465 
        2.08009       0.0311305       0.0290318 
        2.08622       0.0309406       0.0288194 
        2.09237        0.030711       0.0286088 
        2.09851       0.0305116       0.0284003 
        2.10464       0.0303064       0.0281941 
        2.11077       0.0300706       0.0279903 
        2.11691       0.0299048        0.027788 
        2.12305       0.0296291       0.0275877 
        2.12918       0.0294597       0.0273898 
        2.13531       0.0292616       0.0271939 
        2.14145       0.0290522       0.0269994 
         2.1476       0.0288832       0.0268066 
        2.15372       0.0286825       0.0266167 
        2.15985       0.0284877       0.0264284 
        2.16599       0.0282563       0.0262414 
        2.17213       0.0281405       0.0260563 
        2.17827       0.0279379       0.0258731 
         2.1844       0.0277339       0.0256919 
        2.19054       0.0275672       0.0255123 
        2.19666       0.0273702       0.0253346 
         2.2028       0.0271537       0.0251585 
        2.20893       0.0270238        0.024984 
        2.21508       0.0268011       0.0248109 
        2.22122       0.0266255       0.0246394 
        2.22736       0.0264809       0.0244699 
        2.23349        0.026293        0.024302 
        2.23962       0.0261664       0.0241356 
        2.24577       0.0259863       0.0239706 
         2.2519       0.0257916       0.0238074 
        2.25802        0.025659       0.0236459 
        2.26417       0.0254977       0.0234855 
        2.27031       0.0253416       0.0233264 
        2.27644       0.0251936       0.0231693 
        2.28257       0.0249972       0.0230136 
        2.28872       0.0248674       0.0228591 
        2.29486       0.0247062        0.022706 
        2.30099       0.0245412       0.0225546 
        2.30712       0.0244287       0.0224045 
        2.31326       0.0242139       0.0222555 
         2.3194       0.0240799        0.022108 
        2.32553       0.0239541        0.021962 
        2.33166       0.0237646       0.0218174 
         2.3378       0.0236365       0.0216739 
        2.34394       0.0234929       0.0215317 
        2.35007       0.0233643       0.0213909 
        2.35619       0.0232652       0.0212516 
        2.36233       0.0230677       0.0211132 
        2.36848       0.0229353       0.0209757 
        2.37462       0.0228237       0.0208397 
        2.38075       0.0226691       0.0207051 
        2.38689       0.0225438       0.0205715 
        2.39303       0.0224191       0.0204391 
        2.39916       0.0222403       0.0203081 
        2.40529       0.0221026       0.0201781 
        2.41143       0.0219759       0.0200493 
        2.41757       0.0218655       0.0199214 
         2.4237        0.021714        0.019795 
        2.42983        0.021597       0.0196696 
        2.43598       0.0214737        0.019545 
        2.44211       0.0213326       0.0194217 
        2.44823       0.0212211       0.0192997 
        2.45437       0.0210947       0.0191784 
        2.46052       0.0209749       0.0190581 
        2.46665       0.0208374        0.018939 
        2.47279        0.020757       0.0188209 
        2.47892       0.0206435       0.0187038 
        2.48507       0.0204952       0.0185876 
         2.4912       0.0203875       0.0184726 
