# k  (h/Mpc)    P(k)  (Mpc/h)^3    P_linear(k)  (Mpc/h)^3
     0.00783031         6874.08         6940.15 
       0.013688         7851.03         8008.29 
       0.019231         7498.67         7574.11 
      0.0249154         6506.45         6480.74 
      0.0312784          5123.3         5127.58 
      0.0375637         4015.55         4034.36 
      0.0433917         3352.96         3339.15 
      0.0492413         2910.09         2912.19 
      0.0555754          2669.5         2652.71 
      0.0619321         2446.11         2484.38 
       0.067871         2313.45         2322.66 
      0.0738098         2113.86         2113.58 
      0.0800417         1857.39         1846.07 
      0.0862327         1576.43         1568.64 
      0.0921407         1349.37         1333.66 
      0.0982031          1179.4         1149.29 
       0.104506         1039.03         1024.78 
       0.110769         973.472         956.842 
       0.116806         947.357         922.861 
       0.122832         908.624         896.868 
       0.129052         870.976         858.932 
       0.135211         823.251         801.117 
       0.141259         744.289         727.605 
       0.147318         663.057         648.177 
       0.153489         596.488          574.03 
       0.159709         547.955         515.334 
       0.165845         498.401         476.108 
       0.171974         486.479         452.946 
       0.178125           470.2         439.806 
       0.184229         448.972         429.639 
        0.19034         439.358         416.235 
       0.196428          420.87         396.447 
       0.202534         386.751         370.429 
       0.208729         368.852         340.823 
       0.214876          344.75         312.378 
       0.220989         316.168         288.365 
       0.227147          304.59          270.14 
        0.23329         291.759         257.706 
       0.239377          285.82         249.463 
       0.245482         273.589         243.037 
       0.251667         263.237         236.186 
       0.257832         259.461         227.534 
       0.263955          243.56         216.823 
       0.270079         231.447          204.65 
        0.27624         219.517         192.178 
       0.282372         210.873         180.801 
        0.28843         206.851         171.363 
       0.294538         196.293         163.925 
       0.300721         188.698         158.163 
        0.30691         185.674         153.512 
       0.313033         177.669          149.21 
       0.319153         174.592         144.618 
       0.325316         168.698          139.36 
        0.33145         162.833         133.585 
       0.337538         156.362           127.6 
       0.343633         150.987         121.796 
       0.349808         145.708         116.445 
       0.355968         141.754         111.851 
       0.362074         138.156         108.019 
       0.368217         135.145         104.723 
       0.374374         131.549         101.745 
       0.380519         126.095         98.8312 
       0.386598         123.451         95.8589 
       0.392688         119.397         92.7303 
        0.39888          117.11         89.4347 
       0.405048         114.027         86.1761 
       0.411186         111.775         83.0778 
       0.417313         108.811          80.223 
       0.423458         105.845         77.6606 
       0.429607         103.285         75.3569 
       0.435692          101.68         73.2697 
       0.441815         98.5486         71.2896 
       0.447964         95.4771         69.3432 
       0.454126         93.6936         67.3761 
       0.460267         92.7343         65.4062 
       0.466387         90.1497         63.4559 
        0.47254         89.0304         61.5365 
       0.478662         85.8456         59.7083 
       0.484765         84.4112         58.0024 
       0.490885         82.3193          56.414 
       0.497035         81.5097         54.9189 
       0.503198         79.7817         53.5015 
       0.509342         77.6415         52.1467 
       0.515458         76.3713         50.8347 
       0.521598         74.3789         49.5345 
       0.527764         73.5596         48.2415 
       0.533884         72.8268         46.9847 
           0.54          70.765         45.7694 
       0.546137         68.9928         44.6007 
       0.552299         67.7108         43.4792 
       0.558452         66.4564         42.4102 
       0.564573          66.059         41.3954 
       0.570708         64.1098         40.4217 
       0.576825         63.4242         39.4855 
       0.582926         62.5898         38.5778 
       0.589034           61.35         37.6873 
       0.595184         60.5059         36.8085 
       0.601379         59.0891         35.9459 
       0.607522         57.8577         35.1169 
       0.613639         57.3608         34.3212 
       0.619772         56.1645         33.5539 
       0.625918         55.6413         32.8126 
       0.632068         54.6039         32.0958 
       0.638161         53.6819         31.4074 
         0.6443         53.2531         30.7334 
       0.650464         51.9416         30.0758 
       0.656582         51.7262         29.4412 
       0.662703         50.9097         28.8242 
       0.668861         49.7559          28.221 
       0.675024         49.5431         27.6344 
       0.681124         48.7972         27.0703 
       0.687237         47.8977         26.5209 
       0.693381         47.2633         25.9843 
       0.699536         46.7518         25.4619 
       0.705665          46.084         24.9564 
       0.711789         45.3638         24.4654 
       0.717957         44.6709         23.9846 
        0.72409         44.1721         23.5197 
       0.730186         43.8687           23.07 
       0.736317         43.0776         22.6297 
       0.742472         42.4764         22.1993 
       0.748622         41.8663         21.7805 
        0.75476         41.3775         21.3733 
       0.760888         41.2044         20.9771 
       0.767043         40.2934         20.5894 
       0.773185         39.7321         20.2123 
       0.779291         39.2983         19.8467 
       0.785407         38.8633         19.4897 
       0.791564         38.7369         19.1392 
       0.797719          37.936         18.7975 
       0.803834         37.7106         18.4664 
       0.809972         37.2295          18.142 
       0.816124         36.7752         17.8248 
       0.822261         36.2463         17.5161 
       0.828378         36.0895         17.2157 
       0.834502         35.6317         16.9221 
       0.840667         35.2876         16.6336 
       0.846816         34.8341         16.3526 
       0.852925         34.4496         16.0799 
       0.859047         34.3249          15.813 
       0.865192         33.7519         15.5512 
       0.871341          33.367         15.2952 
       0.877463         33.0052         15.0462 
       0.883569          32.902         14.8034 
       0.889708         32.4723         14.5647 
       0.895864         32.1501         14.3307 
       0.902008         31.8374         14.1023 
       0.908149          31.416          13.879 
       0.914301         31.1556         13.6602 
       0.920448          31.002         13.4464 
       0.926574         30.5245         13.2379 
       0.932687         30.2271         13.0343 
       0.938823          29.873         12.8342 
       0.944975         29.5763         12.6379 
       0.951105         29.3797         12.4464 
       0.957225         29.1174         12.2592 
       0.963368         28.8509         12.0752 
       0.969511          28.573          11.895 
       0.975621         28.3537         11.7195 
       0.981748           28.05          11.547 
       0.987916         27.8022          11.377 
        0.99406         27.5365          11.211 
        1.00019         27.2938         11.0486 
        1.00632         27.1046         10.8897 
        1.01246         26.8316         10.7336 
        1.01859         26.6217         10.5808 
        1.02471           26.37         10.4312 
        1.03085          26.187          10.284 
        1.03698         26.0443           10.14 
        1.04314          25.767         9.99807 
        1.04929         25.4351         9.85922 
        1.05541         25.4001         9.72357 
        1.06154         25.1467         9.59015 
        1.06769         24.8261         9.45903 
        1.07382         24.6832         9.33081 
        1.07993         24.5219         9.20525 
        1.08607         24.2818         9.08149 
        1.09222         24.1237         8.95989 
        1.09836         23.9014         8.84066 
        1.10449         23.7881         8.72375 
        1.11063         23.5506         8.60882 
        1.11677         23.4907         8.49601 
         1.1229         23.2282         8.38542 
        1.12903         23.0302         8.27671 
        1.13518         22.9677         8.16984 
        1.14131         22.7414         8.06492 
        1.14745         22.5284          7.9619 
        1.15359          22.278         7.86067 
        1.15973         22.2347         7.76116 
        1.16584         22.0287         7.66381 
        1.17197         21.7885           7.568 
        1.17811         21.6795         7.47353 
        1.18424         21.4151         7.38095 
        1.19038         21.3409         7.28968 
        1.19652         21.1671         7.19998 
        1.20267         21.0739          7.1118 
        1.20881         20.8885         7.02511 
        1.21495         20.8216            6.94 
        1.22108         20.7064         6.85631 
         1.2272         20.4848         6.77421 
        1.23334         20.3906         6.69326 
        1.23949         20.2265         6.61344 
        1.24562         20.0655         6.53514 
        1.25174          19.959         6.45822 
        1.25789         19.8369         6.38231 
        1.26402         19.7086         6.30776 
        1.27014         19.5942         6.23457 
        1.27628          19.407         6.16233 
        1.28244          19.419          6.0911 
        1.28858          19.183         6.02108 
        1.29471         19.0335         5.95233 
        1.30084         18.9198         5.88471 
        1.30697         18.8246         5.81804 
        1.31312         18.6926          5.7523 
        1.31925         18.5526          5.6878 
        1.32537         18.4077         5.62434 
        1.33151         18.2745         5.56163 
        1.33765         18.2641         5.49991 
        1.34378         18.1496         5.43925 
        1.34992         17.9814         5.37946 
        1.35606         17.8284         5.32045 
         1.3622         17.7722         5.26242 
        1.36833         17.6986          5.2054 
        1.37445         17.5472         5.14925 
        1.38059         17.4343         5.09376 
        1.38675         17.3654         5.03896 
        1.39288          17.219         4.98518 
        1.39901         17.1014         4.93221 
        1.40515         17.0368         4.87989 
         1.4113         16.9605         4.82835 
        1.41742         16.8512         4.77775 
        1.42355          16.707         4.72778 
         1.4297         16.6399         4.67837 
        1.43585          16.543         4.62969 
        1.44198           16.48         4.58188 
        1.44809         16.3648         4.53484 
        1.45423         16.2795         4.48828 
        1.46036         16.2006         4.44246 
        1.46649         16.0849         4.39727 
        1.47263         15.9909         4.35266 
        1.47877         15.8814         4.30869 
        1.48491         15.8201         4.26526 
        1.49104         15.7158         4.22252 
        1.49718          15.698         4.18034 
        1.50333         15.5907         4.13866 
        1.50947         15.4579         4.09764 
         1.5156         15.4248         4.05723 
        1.52172         15.3197         4.01736 
        1.52787         15.2796         3.97796 
          1.534         15.1617         3.93912 
        1.54013          15.129         3.90085 
        1.54627         14.9977         3.86302 
        1.55241         14.9147         3.82568 
        1.55855         14.8349         3.78888 
        1.56467          14.756         3.75267 
         1.5708         14.7069         3.71684 
        1.57695         14.6377         3.68141 
        1.58308         14.5168         3.64653 
        1.58922         14.4567         3.61208 
        1.59535         14.3878         3.57808 
         1.6015         14.3237         3.54448 
        1.60764         14.2461         3.51132 
        1.61376         14.1853         3.47867 
        1.61989         14.0517         3.44642 
        1.62604          14.012          3.4145 
        1.63218         13.9406         3.38301 
        1.63831         13.8656         3.35198 
        1.64444         13.8148         3.32133 
        1.65059          13.744         3.29099 
        1.65673         13.6697         3.26106 
        1.66285          13.602         3.23159 
        1.66898         13.5398         3.20247 
        1.67512         13.5166         3.17366 
        1.68127         13.4259         3.14516 
         1.6874         13.3745         3.11709 
        1.69353          13.268         3.08937 
        1.69967         13.2003         3.06192 
        1.70581         13.1666         3.03482 
        1.71193          13.092         3.00814 
        1.71806         13.0244         2.98173 
        1.72421         12.9775         2.95559 
        1.73035         12.9115         2.92979 
        1.73649         12.8298          2.9043 
        1.74262         12.7995         2.87913 
        1.74876         12.7352         2.85425 
        1.75489         12.6628          2.8297 
        1.76101         12.5871         2.80546 
        1.76715         12.5507         2.78147 
        1.77329         12.4784         2.75772 
        1.77943          12.434         2.73425 
        1.78557          12.407         2.71108 
        1.79171         12.3184         2.68817 
        1.79785         12.2459         2.66552 
        1.80399         12.1784         2.64314 
        1.81012          12.154         2.62105 
        1.81625         12.0929         2.59922 
        1.82239         12.0236          2.5776 
        1.82853         11.9826         2.55624 
        1.83466         11.9123         2.53514 
        1.84078           11.86          2.5143 
        1.84692         11.8405         2.49367 
        1.85306         11.7873         2.47323 
         1.8592         11.7408         2.45306 
        1.86533          11.678         2.43313 
        1.87147         11.6129         2.41339 
        1.87761         11.5743         2.39386 
        1.88375         11.5205         2.37458 
        1.88988         11.4673         2.35552 
        1.89601         11.4283         2.33666 
        1.90215         11.3502           2.318 
        1.90829         11.3112         2.29954 
        1.91442         11.2527         2.28129 
        1.92056         11.2113         2.26325 
         1.9267         11.1763         2.24538 
        1.93284         11.1647          2.2277 
        1.93897         11.0749         2.21024 
        1.94509         11.0411           2.193 
        1.95123         10.9723         2.17591 
        1.95737         10.9089         2.15898 
        1.96349         10.8907         2.14228 
        1.96964         10.8763          2.1257 
        1.97578         10.8142         2.10929 
        1.98192         10.7646         2.09309 
        1.98805         10.6935         2.07706 
        1.99419         10.6858         2.06119 
        2.00033         10.6129         2.04548 
        2.00647         10.5709         2.02994 
         2.0126         10.5202         2.01459 
        2.01874         10.4894         1.99937 
        2.02488         10.4282         1.98429 
        2.03101         10.4029          1.9694 
        2.03714         10.3507         1.95467 
        2.04328         10.3203         1.94008 
        2.04941         10.2615         1.92565 
        2.05554         10.2423         1.91138 
        2.06167         10.2109         1.89723 
        2.06781         10.1771         1.88322 
        2.07396         10.1264         1.86933 
        2.08009         10.0656          1.8556 
        2.08622         10.0317         1.84203 
        2.09237         10.0133         1.82857 
        2.09851         9.94949         1.81524 
        2.10464         9.91615         1.80207 
        2.11077         9.86964         1.78904 
        2.11691          9.8281         1.77611 
        2.12305         9.78968          1.7633 
        2.12918         9.74793         1.75066 
        2.13531         9.72633         1.73813 
        2.14145         9.67156          1.7257 
         2.1476          9.6198         1.71338 
        2.15372         9.63022         1.70124 
        2.15985         9.56025          1.6892 
        2.16599         9.53354         1.67725 
        2.17213         9.50218         1.66542 
        2.17827         9.46171         1.65372 
         2.1844           9.425         1.64213 
        2.19054          9.3993         1.63065 
        2.19666         9.35828          1.6193 
         2.2028         9.32669         1.60804 
        2.20893         9.27605         1.59688 
        2.21508         9.23981         1.58582 
        2.22122          9.2038         1.57486 
        2.22736          9.1779         1.56403 
        2.23349         9.13196         1.55329 
        2.23962         9.10929         1.54266 
        2.24577         9.09616         1.53211 
         2.2519          9.0401         1.52168 
        2.25802         8.99602         1.51136 
        2.26417         8.99207         1.50111 
        2.27031          8.9437         1.49094 
        2.27644         8.92963         1.48089 
        2.28257         8.86984         1.47094 
        2.28872         8.85687         1.46106 
        2.29486         8.83118         1.45128 
        2.30099         8.77643          1.4416 
        2.30712         8.74299         1.43201 
        2.31326         8.71226         1.42249 
         2.3194         8.67591         1.41306 
        2.32553         8.64434         1.40373 
        2.33166          8.5982         1.39449 
         2.3378         8.59596         1.38532 
        2.34394          8.5495         1.37622 
        2.35007         8.52911         1.36723 
        2.35619         8.49734         1.35832 
        2.36233         8.45909         1.34947 
        2.36848         8.41337         1.34069 
        2.37462         8.39067         1.33199 
        2.38075         8.34746         1.32339 
        2.38689         8.35108         1.31485 
        2.39303         8.30164         1.30639 
        2.39916         8.28094         1.29801 
        2.40529         8.25662         1.28971 
        2.41143         8.21406         1.28147 
        2.41757         8.18068          1.2733 
         2.4237         8.15179         1.26522 
        2.42983         8.13686         1.25721 
        2.43598         8.10351         1.24924 
        2.44211         8.07271         1.24136 
        2.44823         8.03589         1.23356 
        2.45437         8.02718         1.22581 
        2.46052         7.98818         1.21812 
        2.46665         7.96997         1.21051 
        2.47279         7.94476         1.20296 
        2.47892         7.90484         1.19547 
        2.48507         7.87664         1.18805 
         2.4912         7.84038         1.18069 
