#  k  (h/Mpc)          P(k)  (Mpc/h)^3     P_linear(k) (Mpc/h)^3
     0.00783031          1419.1         1433.26 
       0.013688         1785.55         1787.37 
       0.019231         1815.06         1814.82 
      0.0249154         1668.25         1678.57 
      0.0312784         1451.97         1453.55 
      0.0375637         1243.21         1239.87 
      0.0433917         1081.55         1083.72 
      0.0492413         973.275         972.159 
      0.0555754         885.198         890.279 
      0.0619321         833.001         829.165 
       0.067871         771.347         774.914 
      0.0738098         710.799         714.406 
      0.0800417         637.969         643.111 
      0.0862327         568.291         569.998 
      0.0921407         505.823         505.543 
      0.0982031         449.774         450.675 
       0.104506         411.479         408.188 
       0.110769         381.828         379.208 
       0.116806         359.861         359.838 
       0.122832         345.673         344.166 
       0.129052         326.654         327.531 
       0.135211         307.331         308.122 
       0.141259         287.263         286.078 
       0.147318         265.325         262.661 
       0.153489          241.66         239.847 
       0.159709         222.644         220.028 
       0.165845         209.267         204.633 
       0.171974         196.012         193.249 
       0.178125         187.863         184.809 
       0.184229         181.325         177.955 
        0.19034         172.384         171.239 
       0.196428         166.487         163.786 
       0.202534         159.446         155.287 
       0.208729         149.457          145.97 
       0.214876         139.622         136.735 
       0.220989         132.792         128.279 
       0.227147         124.274          120.98 
        0.23329         118.488         115.052 
       0.239377          114.33          110.33 
       0.245482         109.023          106.36 
       0.251667         106.555         102.663 
       0.257832         102.705         98.9313 
       0.263955         98.7403          94.991 
       0.270079         94.6806         90.8163 
        0.27624          91.397         86.5426 
       0.282372         87.3096         82.4313 
        0.28843         83.2143         78.6967 
       0.294538         79.8343         75.3688 
       0.300721         77.6588          72.449 
        0.30691         74.3542         69.8989 
       0.313033         72.1403         67.6072 
       0.319153          68.994         65.4201 
       0.325316         67.8562         63.2214 
        0.33145         65.3285         61.0025 
       0.337538         63.3991         58.7793 
       0.343633          61.009         56.5869 
       0.349808         59.1044         54.4606 
       0.355968           57.23         52.4833 
       0.362074         55.3327         50.6907 
       0.368217         53.7179         49.0446 
       0.374374         52.0333         47.5268 
       0.380519         50.7527         46.1002 
       0.386598         49.4138         44.7394 
       0.392688         48.2982          43.403 
        0.39888         46.8435         42.0589 
       0.405048          45.656         40.7437 
       0.411186         44.4985         39.4717 
       0.417313         42.9952         38.2534 
       0.423458         41.8922         37.0978 
       0.429607         40.7282         36.0105 
       0.435692         39.5069         34.9976 
       0.441815         38.7766         34.0338 
       0.447964         38.1062         33.1089 
       0.454126         36.6698         32.2126 
       0.460267         35.9858         31.3439 
       0.466387         34.9153         30.5004 
        0.47254         34.3458         29.6742 
       0.478662         33.6954         28.8776 
       0.484765         32.6981         28.1136 
       0.490885         31.9364           27.38 
       0.497035         31.5214         26.6748 
       0.503198         30.6858         25.9988 
       0.509342         29.9164          25.353 
       0.515458         29.2801          24.734 
       0.521598         28.7621         24.1324 
       0.527764         28.1243         23.5456 
       0.533884         27.6438         22.9799 
           0.54         27.0437         22.4317 
       0.546137         26.5768         21.8986 
       0.552299         26.1239         21.3808 
       0.558452          25.321         20.8815 
       0.564573         24.9773         20.4026 
       0.570708         24.5394         19.9396 
       0.576825         23.9229         19.4938 
       0.582926          23.501         19.0632 
       0.589034         22.8799         18.6448 
       0.595184          22.574         18.2357 
       0.601379         22.1279         17.8356 
       0.607522          21.775         17.4505 
       0.613639         21.5264         17.0784 
       0.619772          20.958         16.7163 
       0.625918         20.8275         16.3642 
       0.632068         20.4821         16.0224 
       0.638161         20.0236         15.6939 
         0.6443         19.6236         15.3727 
       0.650464         19.2637         15.0597 
       0.656582         19.1313         14.7579 
       0.662703         18.7765         14.4643 
       0.668861         18.4329         14.1769 
       0.675024          18.092          13.897 
       0.681124         17.7855         13.6275 
       0.687237         17.5118         13.3645 
       0.693381         17.3225         13.1074 
       0.699536         16.8608         12.8568 
       0.705665         16.7439         12.6141 
       0.711789         16.4329          12.378 
       0.717957         16.1888         12.1465 
        0.72409         15.9333         11.9224 
       0.730186         15.7228         11.7053 
       0.736317         15.5553         11.4925 
       0.742472         15.3037         11.2842 
       0.748622         15.0975         11.0813 
        0.75476         14.8045         10.8838 
       0.760888         14.6243         10.6916 
       0.767043         14.4503         10.5032 
       0.773185         14.1725         10.3199 
       0.779291         14.0815          10.142 
       0.785407         13.8764         9.96821 
       0.791564         13.6492         9.79743 
       0.797719         13.3914         9.63081 
       0.803834         13.3341         9.46917 
       0.809972          13.209         9.31072 
       0.816124         12.9187         9.15559 
       0.822261         12.7602         9.00445 
       0.828378          12.611         8.85722 
       0.834502         12.5054         8.71319 
       0.840667         12.3022         8.57147 
       0.846816         12.0931         8.43334 
       0.852925          11.986         8.29916 
       0.859047         11.8462         8.16765 
       0.865192         11.7447         8.03859 
       0.871341         11.6288         7.91227 
       0.877463         11.4347         7.78927 
       0.883569         11.2686         7.66922 
       0.889708         11.0935         7.55113 
       0.895864          11.014         7.43524 
       0.902008         10.9084         7.32206 
       0.908149         10.7911         7.21133 
       0.914301         10.6621         7.10275 
       0.920448         10.4939         6.99652 
       0.926574         10.3816         6.89287 
       0.932687         10.2853         6.79156 
       0.938823         10.1483         6.69194 
       0.944975         10.0233         6.59413 
       0.951105         9.93471         6.49864 
       0.957225         9.87557         6.40522 
       0.963368         9.75193         6.31335 
       0.969511         9.64994          6.2233 
       0.975621         9.53715         6.13552 
       0.981748         9.43448         6.04922 
       0.987916         9.35949         5.96405 
        0.99406         9.21281         5.88086 
        1.00019         9.08118         5.79944 
        1.00632         9.06583         5.71966 
        1.01246         8.96115         5.64127 
        1.01859          8.8328          5.5645 
        1.02471         8.76973         5.48927 
        1.03085         8.68121         5.41518 
        1.03698          8.5615         5.34263 
        1.04314         8.50909         5.27112 
        1.04929         8.39857         5.20109 
        1.05541         8.30674         5.13263 
        1.06154         8.24388         5.06525 
        1.06769         8.20585         4.99899 
        1.07382         8.07549         4.93414 
        1.07993          8.0044         4.87059 
        1.08607         7.95112         4.80792 
        1.09222         7.87357          4.7463 
        1.09836          7.7902         4.68584 
        1.10449         7.71841         4.62651 
        1.11063         7.64674         4.56816 
        1.11677         7.59921         4.51085 
         1.1229         7.53579         4.45462 
        1.12903         7.44759         4.39932 
        1.13518         7.36719         4.34491 
        1.14131           7.295         4.29147 
        1.14745         7.22104         4.23896 
        1.15359         7.18163         4.18733 
        1.15973         7.11323         4.13655 
        1.16584         7.02257         4.08685 
        1.17197         6.97248          4.0379 
        1.17811          6.9384         3.98961 
        1.18424         6.87819         3.94226 
        1.19038         6.84024         3.89554 
        1.19652         6.76449         3.84961 
        1.20267         6.69141         3.80443 
        1.20881         6.66579         3.75999 
        1.21495         6.60473         3.71634 
        1.22108         6.53321         3.67339 
         1.2272         6.49839         3.63123 
        1.23334         6.41837         3.58964 
        1.23949         6.36515         3.54861 
        1.24562         6.33726         3.50834 
        1.25174         6.27213         3.46876 
        1.25789         6.23125         3.42968 
        1.26402         6.18737         3.39127 
        1.27014          6.1337         3.35355 
        1.27628         6.07831          3.3163 
        1.28244         6.01208         3.27955 
        1.28858         6.00085         3.24341 
        1.29471         5.93272          3.2079 
        1.30084         5.87787         3.17295 
        1.30697         5.88047         3.13848 
        1.31312         5.77379         3.10447 
        1.31925         5.74791         3.07108 
        1.32537         5.70353         3.03822 
        1.33151         5.68258         3.00572 
        1.33765          5.6124         2.97372 
        1.34378         5.57598         2.94226 
        1.34992         5.54903         2.91123 
        1.35606         5.48689         2.88058 
         1.3622         5.46445         2.85044 
        1.36833         5.42089          2.8208 
        1.37445         5.38388          2.7916 
        1.38059         5.36456         2.76273 
        1.38675         5.32114         2.73421 
        1.39288         5.28088          2.7062 
        1.39901         5.22397          2.6786 
        1.40515         5.19596         2.65133 
         1.4113         5.16411         2.62445 
        1.41742         5.12946         2.59805 
        1.42355         5.08483         2.57196 
         1.4297         5.04914         2.54616 
        1.43585         5.02963         2.52072 
        1.44198         5.00606         2.49574 
        1.44809         4.95331         2.47114 
        1.45423         4.91625         2.44678 
        1.46036         4.87979          2.4228 
        1.46649         4.84757         2.39914 
        1.47263         4.81182         2.37578 
        1.47877          4.7773         2.35274 
        1.48491         4.74927         2.32997 
        1.49104         4.72354         2.30755 
        1.49718         4.69339         2.28541 
        1.50333         4.66657         2.26353 
        1.50947          4.6302         2.24198 
         1.5156         4.60136         2.22075 
        1.52172         4.57539          2.1998 
        1.52787         4.54889         2.17907 
          1.534         4.51103         2.15864 
        1.54013         4.49316         2.13849 
        1.54627         4.45049         2.11857 
        1.55241         4.42351          2.0989 
        1.55855         4.40732          2.0795 
        1.56467         4.37725         2.06041 
         1.5708         4.34882         2.04151 
        1.57695         4.31261         2.02281 
        1.58308         4.28382          2.0044 
        1.58922         4.27339          1.9862 
        1.59535         4.24605         1.96824 
         1.6015         4.21462         1.95048 
        1.60764         4.18854         1.93294 
        1.61376         4.16695         1.91567 
        1.61989         4.14259          1.8986 
        1.62604         4.11214          1.8817 
        1.63218         4.10341         1.86502 
        1.63831         4.07091         1.84858 
        1.64444         4.04749         1.83233 
        1.65059         4.01275         1.81625 
        1.65673         4.00379         1.80037 
        1.66285         3.96809         1.78473 
        1.66898         3.95095         1.76927 
        1.67512         3.92282         1.75397 
        1.68127         3.90256         1.73883 
         1.6874         3.89071         1.72391 
        1.69353         3.85016         1.70917 
        1.69967         3.83729         1.69457 
        1.70581         3.82036         1.68015 
        1.71193         3.79622         1.66596 
        1.71806         3.77986          1.6519 
        1.72421         3.75528         1.63797 
        1.73035         3.73984         1.62422 
        1.73649         3.71349         1.61063 
        1.74262         3.69008         1.59721 
        1.74876         3.68123         1.58394 
        1.75489         3.65677         1.57084 
        1.76101         3.62807          1.5579 
        1.76715          3.6172         1.54508 
        1.77329         3.60116          1.5324 
        1.77943         3.56526         1.51985 
        1.78557         3.55756         1.50747 
        1.79171         3.53886         1.49522 
        1.79785          3.5169          1.4831 
        1.80399         3.49868         1.47112 
        1.81012         3.48463         1.45929 
        1.81625         3.46325          1.4476 
        1.82239         3.44374         1.43602 
        1.82853         3.42291         1.42457 
        1.83466         3.41569         1.41326 
        1.84078          3.3957         1.40209 
        1.84692         3.38326         1.39102 
        1.85306         3.35386         1.38005 
         1.8592         3.33567         1.36922 
        1.86533         3.32212         1.35852 
        1.87147         3.31132         1.34791 
        1.87761         3.28948         1.33742 
        1.88375         3.27177         1.32705 
        1.88988         3.25473          1.3168 
        1.89601         3.24019         1.30666 
        1.90215         3.22254         1.29661 
        1.90829         3.20247         1.28668 
        1.91442         3.19426         1.27685 
        1.92056         3.17219         1.26713 
         1.9267         3.16047         1.25751 
        1.93284         3.14788         1.24798 
        1.93897         3.13192         1.23856 
        1.94509         3.10999         1.22927 
        1.95123         3.09493         1.22004 
        1.95737         3.07795         1.21091 
        1.96349         3.06958         1.20189 
        1.96964         3.06021         1.19294 
        1.97578         3.03581         1.18408 
        1.98192         3.02635         1.17533 
        1.98805         3.01301         1.16666 
        1.99419         2.99863         1.15808 
        2.00033         2.99005         1.14959 
        2.00647         2.96987         1.14118 
         2.0126         2.96048         1.13287 
        2.01874         2.93648         1.12463 
        2.02488         2.93052         1.11647 
        2.03101         2.90745          1.1084 
        2.03714         2.89894         1.10042 
        2.04328         2.88658         1.09251 
        2.04941         2.86529         1.08468 
        2.05554         2.85999         1.07694 
        2.06167         2.84887         1.06927 
        2.06781         2.83627         1.06166 
        2.07396         2.82502         1.05412 
        2.08009         2.81004         1.04667 
        2.08622         2.79389          1.0393 
        2.09237         2.78557         1.03199 
        2.09851         2.77173         1.02474 
        2.10464         2.76347         1.01758 
        2.11077         2.74744         1.01049 
        2.11691         2.73576         1.00346 
        2.12305         2.72658        0.996495 
        2.12918         2.71771        0.989612 
        2.13531         2.70326        0.982794 
        2.14145         2.69063        0.976025 
         2.1476         2.67445        0.969312 
        2.15372         2.66433        0.962696 
        2.15985         2.65454        0.956136 
        2.16599          2.6443        0.949619 
        2.17213         2.62685        0.943169 
        2.17827         2.62018        0.936782 
         2.1844         2.60906        0.930459 
        2.19054         2.60115        0.924193 
        2.19666         2.58656        0.917994 
         2.2028         2.57435        0.911847 
        2.20893         2.56563        0.905753 
        2.21508         2.55322        0.899708 
        2.22122         2.54057        0.893717 
        2.22736         2.53061        0.887793 
        2.23349         2.52422        0.881925 
        2.23962         2.50923        0.876107 
        2.24577         2.50199        0.870337 
         2.2519         2.49031        0.864626 
        2.25802         2.48336        0.858977 
        2.26417         2.47398        0.853363 
        2.27031         2.46083        0.847794 
        2.27644         2.45272        0.842291 
        2.28257         2.43932        0.836837 
        2.28872          2.4332        0.831422 
        2.29486          2.4209        0.826056 
        2.30099         2.41046        0.820749 
        2.30712         2.39841        0.815486 
        2.31326         2.39295        0.810261 
         2.3194         2.38263        0.805084 
        2.32553         2.37343        0.799962 
        2.33166         2.36494        0.794887 
         2.3378         2.35505        0.789849 
        2.34394         2.34467        0.784854 
        2.35007         2.33501        0.779908 
        2.35619         2.33055        0.775012 
        2.36233         2.31884        0.770146 
        2.36848         2.30822        0.765313 
        2.37462         2.30191        0.760531 
        2.38075         2.29032        0.755795 
        2.38689         2.28508        0.751095 
        2.39303         2.27426        0.746437 
        2.39916         2.26554        0.741823 
        2.40529         2.25691        0.737248 
        2.41143         2.24701         0.73271 
        2.41757         2.23872        0.728207 
         2.4237         2.23316        0.723751 
        2.42983          2.2166        0.719333 
        2.43598         2.21835         0.71494 
        2.44211         2.20435        0.710591 
        2.44823         2.19927        0.706288 
        2.45437          2.1891         0.70201 
        2.46052         2.18281        0.697763 
        2.46665         2.17482         0.69356 
        2.47279          2.1647        0.689392 
        2.47892         2.15825        0.685256 
        2.48507         2.15094        0.681151 
         2.4912         2.13709        0.677087 
