# k  (h/Mpc)    Pcb(k)  (Mpc/h)^3    Pcb_linear(k)  (Mpc/h)^3
     0.00783031         13364.5         13551.6 
       0.013688         15561.2         15432.7 
       0.019231         14694.8         14645.4 
      0.0249154         12571.7         12775.4 
      0.0312784           10423         10481.8 
      0.0375637         8637.27         8594.76 
      0.0433917         7269.47         7336.26 
      0.0492413         6485.33         6488.53 
      0.0555754         5756.14         5876.09 
      0.0619321         5444.22         5396.41 
       0.067871         4870.49         4948.07 
      0.0738098         4393.09         4452.81 
      0.0800417         3828.99         3901.92 
      0.0862327         3369.95         3380.35 
      0.0921407         3006.48         2957.88 
      0.0982031         2656.42         2626.96 
       0.104506         2485.77         2389.12 
       0.110769         2310.36         2231.77 
       0.116806         2178.14         2118.05 
       0.122832         2071.71         2008.96 
       0.129052         1905.67         1879.79 
       0.135211          1772.9         1731.38 
       0.141259         1657.69         1576.15 
       0.147318         1529.88         1427.41 
       0.153489         1387.88         1297.09 
       0.159709          1303.5         1194.46 
       0.165845         1245.71         1120.13 
       0.171974            1179         1065.31 
       0.178125         1126.32         1019.96 
       0.184229         1077.58          975.69 
        0.19034         1006.02          926.79 
       0.196428         976.387         872.621 
       0.202534         933.429          815.57 
       0.208729         877.933          759.42 
       0.214876         829.943         709.488 
       0.220989         797.081         667.714 
       0.227147         760.213         633.573 
        0.23329         728.636         605.708 
       0.239377         712.244         581.657 
       0.245482         663.726         558.634 
       0.251667         656.887         534.791 
       0.257832         630.058         510.019 
       0.263955          606.45         484.928 
       0.270079         580.934         460.425 
        0.27624          571.72         437.468 
       0.282372         548.466          416.99 
        0.28843         534.399          399.24 
       0.294538         507.227         383.464 
       0.300721          503.35         369.041 
        0.30691         480.292         355.435 
       0.313033         470.018         342.296 
       0.319153         454.852         329.227 
       0.325316          441.48         316.192 
        0.33145         427.565         303.544 
       0.337538          420.44         291.598 
       0.343633          406.69         280.429 
       0.349808          392.14         270.014 
       0.355968         387.898         260.455 
       0.362074         380.705         251.655 
       0.368217         369.725         243.295 
       0.374374         353.948         235.241 
       0.380519         351.248         227.439 
       0.386598         341.941         219.918 
       0.392688         338.651         212.612 
        0.39888         329.039         205.477 
       0.405048         321.382         198.711 
       0.411186         315.403         192.345 
       0.417313         309.035         186.351 
       0.423458          302.62          180.66 
       0.429607         297.063          175.24 
       0.435692         288.996         170.103 
       0.441815         286.231         165.115 
       0.447964         280.215         160.272 
       0.454126         271.823         155.584 
       0.460267         267.462          151.08 
       0.466387         264.094         146.766 
        0.47254         258.378         142.611 
       0.478662         257.581         138.658 
       0.484765         248.373         134.884 
       0.490885         245.591         131.254 
       0.497035         241.338         127.747 
       0.503198         236.714         124.361 
       0.509342         234.599         121.102 
       0.515458         231.239         117.964 
       0.521598         226.034         114.921 
       0.527764         223.001         111.973 
       0.533884         220.441         109.151 
           0.54         216.978         106.432 
       0.546137         215.726         103.801 
       0.552299         211.101         101.253 
       0.558452         209.473         98.7993 
       0.564573           206.3           96.44 
       0.570708         201.825         94.1518 
       0.576825         198.989          91.943 
       0.582926         196.318         89.8097 
       0.589034         194.409         87.7414 
       0.595184         192.354         85.7253 
       0.601379         189.603         83.7601 
       0.607522         186.418         81.8732 
       0.613639         185.051         80.0533 
       0.619772         181.244         78.2851 
       0.625918         179.881         76.5678 
       0.632068         177.283         74.9017 
       0.638161         176.197         73.3004 
         0.6443         173.445         71.7347 
       0.650464         171.728          70.209 
       0.656582         169.608         68.7387 
       0.662703         168.671         67.3101 
       0.668861         165.599         65.9143 
       0.675024         163.459         64.5573 
       0.681124         162.606         63.2527 
       0.687237         160.219          61.982 
       0.693381         157.713         60.7407 
       0.699536         156.659         59.5316 
       0.705665         155.562         58.3609 
       0.711789         153.289         57.2229 
       0.717957         152.976         56.1077 
        0.72409         150.704         55.0285 
       0.730186         148.791         53.9844 
       0.736317          147.19         52.9619 
       0.742472         146.319         51.9624 
       0.748622         144.942         50.9897 
        0.75476         143.623         50.0443 
       0.760888         141.869         49.1245 
       0.767043         141.391         48.2243 
       0.773185         139.978         47.3488 
       0.779291           137.3         46.5002 
       0.785407         136.829         45.6713 
       0.791564         135.762         44.8575 
       0.797719         133.358         44.0641 
       0.803834           132.8          43.295 
       0.809972         131.889         42.5417 
       0.816124         131.277         41.8047 
       0.822261         129.906         41.0873 
       0.828378         128.638          40.389 
       0.834502         128.264         39.7064 
       0.840667         126.307         39.0353 
       0.846816         125.007         38.3816 
       0.852925         124.505         37.7472 
       0.859047         123.095         37.1257 
       0.865192         122.003         36.5164 
       0.871341         121.008         35.9203 
       0.877463          119.81         35.3403 
       0.883569         119.537         34.7747 
       0.889708         118.321         34.2186 
       0.895864         117.049         33.6733 
       0.902008         116.316         33.1411 
       0.908149         115.897         32.6207 
       0.914301         114.522         32.1107 
       0.920448         113.645         31.6121 
       0.926574           112.9          31.126 
       0.932687         112.856         30.6511 
       0.938823         111.116         30.1845 
       0.944975         110.051         29.7266 
       0.951105         109.531         29.2798 
       0.957225         108.516         28.8431 
       0.963368         107.261         28.4138 
       0.969511         107.195         27.9934 
       0.975621         106.473         27.5837 
       0.981748         105.945         27.1812 
       0.987916         104.816         26.7843 
        0.99406          103.99         26.3968 
        1.00019         103.783         26.0178 
        1.00632         102.644         25.6466 
        1.01246         102.176         25.2822 
        1.01859         101.257         24.9255 
        1.02471         100.373         24.5761 
        1.03085         99.5046         24.2322 
        1.03698         99.2556         23.8957 
        1.04314         98.2278         23.5642 
        1.04929         97.7404         23.2398 
        1.05541         96.9979         22.9228 
        1.06154         96.6003          22.611 
        1.06769         96.3118         22.3045 
        1.07382         95.4503         22.0047 
        1.07993           94.76         21.7111 
        1.08607         94.0562         21.4217 
        1.09222         93.8669         21.1373 
        1.09836         92.9894         20.8584 
        1.10449         92.3303         20.5849 
        1.11063         91.6737          20.316 
        1.11677         91.2725          20.052 
         1.1229         90.4737         19.7931 
        1.12903         89.9319         19.5386 
        1.13518         89.8472         19.2884 
        1.14131           89.07         19.0427 
        1.14745          88.475         18.8015 
        1.15359         87.9548         18.5644 
        1.15973         87.6045         18.3313 
        1.16584         86.7129         18.1032 
        1.17197         86.3261         17.8787 
        1.17811         85.8946         17.6574 
        1.18424          85.375         17.4405 
        1.19038         85.0626         17.2265 
        1.19652         84.4676         17.0163 
        1.20267         83.7126         16.8096 
        1.20881         83.3253         16.6064 
        1.21495           82.75         16.4068 
        1.22108         82.4924         16.2106 
         1.2272         81.5981         16.0181 
        1.23334         81.3479         15.8282 
        1.23949         80.8588          15.641 
        1.24562         80.3475         15.4574 
        1.25174         79.9145          15.277 
        1.25789         79.6258         15.0989 
        1.26402         78.8951          14.924 
        1.27014         78.5975         14.7524 
        1.27628         78.2157         14.5829 
        1.28244         77.7149         14.4157 
        1.28858         77.5675         14.2514 
        1.29471         76.9217           14.09 
        1.30084         76.5808         13.9313 
        1.30697          76.056         13.7748 
        1.31312         75.6554         13.6205 
        1.31925         75.1544         13.4691 
        1.32537         74.8824         13.3201 
        1.33151         74.2094         13.1728 
        1.33765          73.958         13.0278 
        1.34378         73.5701         12.8853 
        1.34992         73.2299         12.7449 
        1.35606         72.8296         12.6062 
         1.3622          72.224         12.4699 
        1.36833          72.081         12.3359 
        1.37445         71.5986         12.2039 
        1.38059         71.0883         12.0734 
        1.38675          70.719         11.9446 
        1.39288         70.4494         11.8181 
        1.39901         70.1203         11.6936 
        1.40515         69.6423         11.5705 
         1.4113          69.324         11.4493 
        1.41742           69.18         11.3303 
        1.42355         68.6202         11.2127 
         1.4297         68.4586         11.0965 
        1.43585         67.8968          10.982 
        1.44198         67.5071         10.8695 
        1.44809         67.2274         10.7588 
        1.45423         66.9691         10.6493 
        1.46036         66.6792         10.5415 
        1.46649         66.2145         10.4351 
        1.47263         65.8507         10.3301 
        1.47877         65.6814         10.2266 
        1.48491         65.2234         10.1244 
        1.49104         64.9756         10.0238 
        1.49718          64.559         9.92448 
        1.50333         64.2995         9.82636 
        1.50947         63.9866         9.72977 
         1.5156         63.6327         9.63462 
        1.52172         63.3212         9.54074 
        1.52787         63.1625         9.44794 
          1.534         62.6416         9.35648 
        1.54013         62.2785         9.26632 
        1.54627         62.1695          9.1772 
        1.55241         61.6503         9.08923 
        1.55855         61.4758         9.00254 
        1.56467         61.1676         8.91721 
         1.5708         60.9122         8.83276 
        1.57695         60.7802         8.74927 
        1.58308         60.2299         8.66705 
        1.58922         60.0004         8.58583 
        1.59535         59.8738         8.50568 
         1.6015         59.3037         8.42644 
        1.60764         59.1866         8.34825 
        1.61376         58.8501         8.27127 
        1.61989         58.5827          8.1952 
        1.62604         58.3369         8.11992 
        1.63218         58.1407         8.04563 
        1.63831         57.5845         7.97244 
        1.64444         57.4333         7.90014 
        1.65059         57.2362         7.82856 
        1.65673         56.9159         7.75795 
        1.66285         56.5629          7.6884 
        1.66898         56.4042         7.61969 
        1.67512         55.9474         7.55168 
        1.68127         55.8476         7.48445 
         1.6874         55.5597         7.41818 
        1.69353         55.2907         7.35275 
        1.69967         54.9821         7.28796 
        1.70581         54.8603         7.22398 
        1.71193         54.6727         7.16101 
        1.71806         54.1532         7.09866 
        1.72421         54.0579         7.03692 
        1.73035         53.7983           6.976 
        1.73649         53.4849          6.9158 
        1.74262         53.2894         6.85637 
        1.74876         53.0112          6.7976 
        1.75489         52.7874         6.73963 
        1.76101         52.6029         6.68236 
        1.76715         52.2259         6.62568 
        1.77329           52.02         6.56959 
        1.77943         51.7125         6.51412 
        1.78557         51.5419         6.45937 
        1.79171         51.2982         6.40525 
        1.79785          50.986         6.35173 
        1.80399         50.9453         6.29884 
        1.81012         50.6118         6.24662 
        1.81625         50.2841         6.19501 
        1.82239         50.1322         6.14391 
        1.82853         49.8602         6.09341 
        1.83466         49.6457         6.04353 
        1.84078         49.3752         5.99425 
        1.84692         49.1086         5.94545 
        1.85306         48.9052         5.89713 
         1.8592         48.6474         5.84943 
        1.86533         48.4917         5.80228 
        1.87147         48.2073         5.75559 
        1.87761         48.0729          5.7094 
        1.88375         47.8331         5.66377 
        1.88988         47.6489         5.61869 
        1.89601         47.4248         5.57407 
        1.90215         47.1633          5.5299 
        1.90829         47.0216         5.48624 
        1.91442         46.8107         5.44304 
        1.92056         46.4838         5.40034 
         1.9267          46.331         5.35806 
        1.93284         46.0474         5.31621 
        1.93897         45.9468         5.27488 
        1.94509         45.7016         5.23408 
        1.95123         45.4923         5.19361 
        1.95737         45.2917         5.15354 
        1.96349         45.0055           5.114 
        1.96964         44.9102         5.07475 
        1.97578         44.6482          5.0359 
        1.98192         44.4602         4.99754 
        1.98805         44.3621         4.95957 
        1.99419         44.0626         4.92199 
        2.00033         43.8713         4.88479 
        2.00647          43.712         4.84798 
         2.0126         43.3529         4.81161 
        2.01874         43.3359         4.77556 
        2.02488         43.1341         4.73984 
        2.03101          42.919         4.70456 
        2.03714         42.7319         4.66967 
        2.04328         42.5256          4.6351 
        2.04941         42.2977          4.6009 
        2.05554          42.095         4.56707 
        2.06167         41.9653         4.53354 
        2.06781         41.7194         4.50034 
        2.07396         41.6046         4.46742 
        2.08009         41.4507         4.43489 
        2.08622          41.138         4.40272 
        2.09237         41.0183         4.37081 
        2.09851         40.8906         4.33921 
        2.10464         40.6994         4.30797 
        2.11077          40.487         4.27707 
        2.11691         40.2572         4.24641 
        2.12305         40.1293         4.21605 
        2.12918         39.9665         4.18606 
        2.13531         39.7155         4.15636 
        2.14145         39.5303         4.12688 
         2.1476         39.3702         4.09765 
        2.15372         39.1445         4.06885 
        2.15985         39.0664         4.04029 
        2.16599         38.8824         4.01193 
        2.17213         38.7631         3.98387 
        2.17827         38.5325         3.95609 
         2.1844         38.3678          3.9286 
        2.19054         38.1655         3.90136 
        2.19666         37.9861         3.87441 
         2.2028         37.8447          3.8477 
        2.20893         37.7356         3.82122 
        2.21508         37.5949         3.79497 
        2.22122         37.3907         3.76895 
        2.22736         37.2622         3.74323 
        2.23349         37.0736         3.71775 
        2.23962         36.8169          3.6925 
        2.24577         36.6657         3.66747 
         2.2519         36.5001         3.64269 
        2.25802           36.48         3.61819 
        2.26417         36.2187         3.59384 
        2.27031         36.0614          3.5697 
        2.27644         35.9366         3.54585 
        2.28257         35.7658         3.52221 
        2.28872         35.5686         3.49875 
        2.29486         35.4755         3.47551 
        2.30099         35.3338         3.45252 
        2.30712         35.2038         3.42973 
        2.31326         34.9701         3.40711 
         2.3194         34.8174         3.38471 
        2.32553         34.6796         3.36254 
        2.33166          34.558         3.34059 
         2.3378         34.3488          3.3188 
        2.34394         34.2873         3.29719 
        2.35007         34.0802         3.27581 
        2.35619         33.9146         3.25465 
        2.36233         33.8153         3.23362 
        2.36848         33.7083         3.21274 
        2.37462          33.457         3.19208 
        2.38075         33.4297         3.17162 
        2.38689         33.2627         3.15133 
        2.39303         33.0899         3.13122 
        2.39916         32.8991          3.1113 
        2.40529          32.787         3.09156 
        2.41143         32.6907         3.07197 
        2.41757         32.5361         3.05255 
         2.4237         32.4475         3.03333 
        2.42983          32.242         3.01427 
        2.43598         32.1455         2.99533 
        2.44211         31.9684         2.97659 
        2.44823         31.8853         2.95804 
        2.45437         31.6788          2.9396 
        2.46052         31.5241         2.92131 
        2.46665         31.4363          2.9032 
        2.47279         31.2921         2.88525 
        2.47892         31.1818         2.86744 
        2.48507         31.0298         2.84977 
         2.4912         30.9231         2.83228 
