# k  (h/Mpc)    Pcb(k)  (Mpc/h)^3    Pcb_linear(k)  (Mpc/h)^3
     0.00783031         243.425         245.056 
       0.013688         321.999         324.506 
       0.019231         347.327         348.411 
      0.0249154         340.149         340.606 
      0.0312784         311.525         311.905 
      0.0375637         277.338           277.7 
      0.0433917         249.109         248.789 
      0.0492413         225.557         225.609 
      0.0555754         207.555          207.15 
      0.0619321         192.821         193.544 
       0.067871         182.668         182.826 
      0.0738098         171.922         172.041 
      0.0800417         159.577         159.503 
      0.0862327         145.689         145.812 
      0.0921407         132.296          132.43 
      0.0982031         119.675         119.534 
       0.104506          107.85         108.059 
       0.110769         98.9808         99.1213 
       0.116806          92.927         92.7418 
       0.122832         87.9361          88.049 
       0.129052         84.2401         84.1965 
       0.135211          80.744         80.6062 
       0.141259         76.6987         76.7597 
       0.147318          72.118         72.3772 
       0.153489          67.409         67.4848 
       0.159709         62.5197         62.4673 
       0.165845         57.6075         57.8386 
       0.171974         54.0147         53.8486 
       0.178125         50.7764         50.6224 
       0.184229           48.16         48.1522 
        0.19034         46.4334         46.2315 
       0.196428         44.7476         44.6204 
       0.202534         42.9469         43.0635 
       0.208729         41.4268         41.3629 
       0.214876         39.6857         39.4818 
       0.220989         37.3884         37.4564 
       0.227147         35.6179         35.3729 
        0.23329         33.6749         33.3875 
       0.239377         31.9471         31.6241 
       0.245482         30.4172         30.1197 
       0.251667         29.0558         28.8646 
       0.257832         28.1589         27.8297 
       0.263955         27.1499          26.935 
       0.270079         26.2965         26.0864 
        0.27624         25.3202         25.2127 
       0.282372         24.4245         24.2905 
        0.28843         23.6206         23.3294 
       0.294538         22.6059         22.3419 
       0.300721         21.5528         21.3669 
        0.30691         20.7731         20.4588 
       0.313033          19.936         19.6532 
       0.319153         19.3758         18.9484 
       0.325316         18.5568         18.3269 
        0.33145         18.0009         17.7724 
       0.337538         17.5195         17.2555 
       0.343633         17.0464         16.7478 
       0.349808         16.4933         16.2258 
       0.355968         15.9457         15.6947 
       0.362074         15.4795         15.1635 
       0.368217         14.9435         14.6378 
       0.374374         14.5317         14.1338 
       0.380519         13.9694         13.6643 
       0.386598          13.519         13.2387 
       0.392688         13.1164         12.8489 
        0.39888         12.7911         12.4841 
       0.405048         12.4594          12.143 
       0.411186         12.1171         11.8154 
       0.417313         11.8039          11.494 
       0.423458         11.4369         11.1735 
       0.429607          11.181         10.8543 
       0.435692         10.8935          10.544 
       0.441815         10.5433         10.2409 
       0.447964         10.2166         9.94961 
       0.454126         9.99476         9.67409 
       0.460267         9.79198         9.41644 
       0.466387         9.51631         9.17445 
        0.47254         9.30769         8.94379 
       0.478662         9.06812         8.72387 
       0.484765          8.8599         8.51093 
       0.490885         8.62665         8.30154 
       0.497035         8.39366         8.09515 
       0.503198         8.22081         7.89264 
       0.509342         7.99579         7.69569 
       0.515458         7.83956         7.50582 
       0.521598         7.65733         7.32278 
       0.527764         7.51388         7.14711 
       0.533884         7.29152          6.9803 
           0.54         7.14836         6.82046 
       0.546137         6.96341         6.66617 
       0.552299         6.83035         6.51645 
       0.558452         6.68663         6.37113 
       0.564573         6.55691          6.2299 
       0.570708           6.414         6.09156 
       0.576825         6.27917         5.95717 
       0.582926         6.13652         5.82698 
       0.589034         6.03227         5.70061 
       0.595184         5.92325         5.57748 
       0.601379         5.77679          5.4576 
       0.607522         5.65975         5.34282 
       0.613639         5.52741          5.2324 
       0.619772         5.44696         5.12518 
       0.625918         5.33624         5.02081 
       0.632068         5.24296         4.91908 
       0.638161         5.13844         4.82072 
         0.6443         5.03633         4.72407 
       0.650464         4.93433         4.62959 
       0.656582         4.86811         4.53838 
       0.662703         4.77715         4.44972 
       0.668861         4.65902         4.36308 
       0.675024         4.58366         4.27881 
       0.681124         4.54972         4.19773 
       0.687237         4.44193         4.11867 
       0.693381         4.33608         4.04135 
       0.699536         4.29276         3.96593 
       0.705665         4.21357         3.89278 
       0.711789         4.12249         3.82155 
       0.717957         4.05254         3.75161 
        0.72409         3.98868         3.68377 
       0.730186         3.94041           3.618 
       0.736317         3.85828         3.55346 
       0.742472         3.80487         3.49027 
       0.748622         3.74587          3.4287 
        0.75476         3.66548         3.36879 
       0.760888         3.62413         3.31045 
       0.767043         3.53078         3.25331 
       0.773185          3.4902         3.19769 
       0.779291         3.45786         3.14371 
       0.785407         3.39105         3.09092 
       0.791564         3.34035         3.03902 
       0.797719         3.28392         2.98835 
       0.803834         3.23343         2.93915 
       0.809972         3.18366         2.89088 
       0.816124         3.13588          2.8436 
       0.822261         3.09286         2.79751 
       0.828378         3.03925         2.75258 
       0.834502         2.99743         2.70862 
       0.840667         2.96114         2.66535 
       0.846816         2.91276         2.62316 
       0.852925         2.86369         2.58217 
       0.859047         2.82466         2.54198 
       0.865192         2.78576         2.50253 
       0.871341         2.74879          2.4639 
       0.877463         2.70224         2.42627 
       0.883569         2.66657         2.38954 
       0.889708         2.63554         2.35338 
       0.895864         2.59872         2.31789 
       0.902008         2.55465         2.28321 
       0.908149         2.52512         2.24927 
       0.914301         2.49677         2.21598 
       0.920448         2.46226         2.18339 
       0.926574         2.43806         2.15159 
       0.932687         2.40001         2.12049 
       0.938823         2.35849          2.0899 
       0.944975         2.33582         2.05985 
       0.951105         2.29365          2.0305 
       0.957225         2.26756         2.00179 
       0.963368         2.24544         1.97354 
       0.969511         2.21963         1.94584 
       0.975621          2.1851         1.91882 
       0.981748         2.14674         1.89226 
       0.987916         2.12448         1.86603 
        0.99406         2.10589         1.84041 
        1.00019         2.07705         1.81532 
        1.00632         2.05862         1.79073 
        1.01246         2.02894         1.76657 
        1.01859         2.00452         1.74289 
        1.02471         1.97192         1.71968 
        1.03085         1.94977         1.69682 
        1.03698         1.93129         1.67442 
        1.04314         1.90945         1.65234 
        1.04929         1.88973         1.63071 
        1.05541          1.8582         1.60956 
        1.06154         1.84311         1.58874 
        1.06769         1.82454         1.56826 
        1.07382         1.79994         1.54821 
        1.07993         1.77877         1.52856 
        1.08607          1.7602         1.50917 
        1.09222         1.73511          1.4901 
        1.09836         1.72187         1.47139 
        1.10449         1.69472         1.45302 
        1.11063         1.67679         1.43495 
        1.11677         1.66258          1.4172 
         1.1229          1.6366         1.39978 
        1.12903         1.62567         1.38264 
        1.13518         1.60297         1.36578 
        1.14131         1.58881         1.34921 
        1.14745         1.57388         1.33292 
        1.15359         1.55437         1.31691 
        1.15973         1.53927         1.30115 
        1.16584         1.51942         1.28573 
        1.17197         1.50243         1.27053 
        1.17811         1.48648         1.25554 
        1.18424           1.471         1.24083 
        1.19038         1.45343         1.22632 
        1.19652         1.44481         1.21205 
        1.20267         1.43096         1.19801 
        1.20881         1.40923          1.1842 
        1.21495         1.39814         1.17062 
        1.22108         1.38481         1.15727 
         1.2272         1.36559         1.14415 
        1.23334         1.35511         1.13122 
        1.23949         1.34412         1.11845 
        1.24562         1.32928         1.10591 
        1.25174          1.3158         1.09359 
        1.25789         1.29923         1.08142 
        1.26402         1.28728         1.06946 
        1.27014         1.27227         1.05771 
        1.27628         1.26387          1.0461 
        1.28244         1.25253         1.03465 
        1.28858         1.23659         1.02338 
        1.29471         1.22432         1.01231 
        1.30084         1.21416         1.00142 
        1.30697         1.20598        0.990667 
        1.31312         1.19295         0.98006 
        1.31925         1.18136        0.969643 
        1.32537         1.17092        0.959389 
        1.33151          1.1584        0.949247 
        1.33765         1.14804         0.93926 
        1.34378         1.13478        0.929436 
        1.34992         1.12947        0.919748 
        1.35606         1.11634        0.910177 
         1.3622         1.10688        0.900761 
        1.36833         1.09742        0.891502 
        1.37445         1.08771        0.882379 
        1.38059          1.0771        0.873356 
        1.38675         1.06716        0.864439 
        1.39288         1.05658        0.855683 
        1.39901         1.04879        0.847053 
        1.40515          1.0382        0.838524 
         1.4113         1.03319        0.830116 
        1.41742         1.02081        0.821857 
        1.42355         1.00891        0.813695 
         1.4297          1.0052        0.805621 
        1.43585        0.993248         0.79766 
        1.44198        0.986034        0.789838 
        1.44809        0.976162        0.782136 
        1.45423         0.96988         0.77451 
        1.46036        0.960904        0.766999 
        1.46649        0.951195        0.759587 
        1.47263        0.942993        0.752267 
        1.47877        0.939849        0.745047 
        1.48491        0.925775        0.737912 
        1.49104        0.923134        0.730886 
        1.49718        0.912088        0.723947 
        1.50333        0.906663        0.717087 
        1.50947         0.90007        0.710331 
         1.5156        0.891537        0.703673 
        1.52172        0.885305          0.6971 
        1.52787        0.875364        0.690599 
          1.534        0.871343        0.684189 
        1.54013         0.86362        0.677868 
        1.54627        0.856159        0.671615 
        1.55241        0.847971        0.665441 
        1.55855        0.842292        0.659353 
        1.56467         0.83608        0.653359 
         1.5708        0.828406        0.647423 
        1.57695        0.821316        0.641553 
        1.58308        0.812778        0.635769 
        1.58922        0.809913        0.630053 
        1.59535        0.801612        0.624409 
         1.6015        0.795392        0.618828 
        1.60764        0.789882        0.613318 
        1.61376        0.783484         0.60789 
        1.61989        0.777723        0.602525 
        1.62604        0.770755        0.597212 
        1.63218        0.767021        0.591967 
        1.63831         0.75923        0.586798 
        1.64444        0.754189        0.581689 
        1.65059        0.748055        0.576629 
        1.65673         0.74264        0.571636 
        1.66285         0.73805        0.566715 
        1.66898        0.732093        0.561852 
        1.67512        0.725123        0.557036 
        1.68127         0.71918        0.552273 
         1.6874        0.715928        0.547576 
        1.69353        0.710225        0.542938 
        1.69967        0.704714        0.538342 
        1.70581        0.700621        0.533802 
        1.71193        0.695721        0.529332 
        1.71806        0.690428        0.524903 
        1.72421        0.684929        0.520517 
        1.73035        0.678412        0.516187 
        1.73649        0.677126        0.511907 
        1.74262        0.669292        0.507679 
        1.74876        0.666019        0.503496 
        1.75489        0.661588         0.49937 
        1.76101        0.655481        0.495291 
        1.76715        0.651739        0.491252 
        1.77329        0.647079        0.487254 
        1.77943        0.642201        0.483299 
        1.78557        0.639836        0.479394 
        1.79171        0.634831        0.475531 
        1.79785        0.629468         0.47171 
        1.80399        0.623866        0.467933 
        1.81012           0.621        0.464202 
        1.81625        0.617674        0.460513 
        1.82239          0.6134        0.456859 
        1.82853        0.608409        0.453247 
        1.83466        0.603961        0.449678 
        1.84078        0.599167        0.446151 
        1.84692        0.596056        0.442657 
        1.85306        0.592537        0.439196 
         1.8592        0.588043        0.435777 
        1.86533        0.585163        0.432397 
        1.87147        0.579617         0.42905 
        1.87761        0.576275        0.425736 
        1.88375        0.572926        0.422462 
        1.88988        0.568296        0.419225 
        1.89601        0.563601        0.416021 
        1.90215        0.561395        0.412849 
        1.90829        0.556751         0.40971 
        1.91442        0.554169        0.406605 
        1.92056         0.55194        0.403535 
         1.9267        0.546664        0.400493 
        1.93284         0.54278        0.397481 
        1.93897         0.54045        0.394506 
        1.94509        0.537236        0.391568 
        1.95123        0.532461        0.388652 
        1.95737        0.529391        0.385765 
        1.96349        0.526041        0.382914 
        1.96964         0.52278        0.380084 
        1.97578        0.519015        0.377282 
        1.98192        0.516746        0.374513 
        1.98805        0.513813        0.371772 
        1.99419        0.511067        0.369059 
        2.00033        0.507397        0.366372 
        2.00647        0.503849        0.363712 
         2.0126        0.501183        0.361083 
        2.01874        0.498487        0.358477 
        2.02488        0.494918        0.355894 
        2.03101        0.491589        0.353341 
        2.03714        0.490035        0.350816 
        2.04328        0.485427        0.348313 
        2.04941        0.483564        0.345836 
        2.05554        0.480733        0.343386 
        2.06167        0.477635        0.340956 
        2.06781        0.473118        0.338549 
        2.07396        0.471982        0.336162 
        2.08009         0.46885        0.333802 
        2.08622        0.466459        0.331468 
        2.09237        0.463414        0.329152 
        2.09851        0.460113        0.326857 
        2.10464        0.457907        0.324588 
        2.11077        0.454623        0.322344 
        2.11691        0.452699        0.320116 
        2.12305        0.449798        0.317909 
        2.12918        0.447042        0.315729 
        2.13531        0.445193        0.313568 
        2.14145        0.442013        0.311423 
         2.1476        0.440031        0.309296 
        2.15372        0.437346        0.307199 
        2.15985        0.434287         0.30512 
        2.16599        0.432296        0.303054 
        2.17213        0.429939         0.30101 
        2.17827        0.426909        0.298985 
         2.1844        0.425551        0.296981 
        2.19054         0.42316        0.294994 
        2.19666        0.420721        0.293028 
         2.2028        0.417264        0.291079 
        2.20893        0.415848        0.289146 
        2.21508        0.413513        0.287229 
        2.22122        0.411758        0.285329 
        2.22736        0.408253         0.28345 
        2.23349         0.40576        0.281589 
        2.23962        0.403957        0.279743 
        2.24577        0.402117        0.277912 
         2.2519        0.400071        0.276101 
        2.25802        0.397825        0.274308 
        2.26417        0.395635        0.272526 
        2.27031        0.393365        0.270759 
        2.27644        0.392544        0.269013 
        2.28257        0.389518        0.267282 
        2.28872        0.387666        0.265563 
        2.29486        0.385329         0.26386 
        2.30099        0.383241        0.262175 
        2.30712        0.381232        0.260504 
        2.31326        0.378956        0.258845 
         2.3194        0.377728        0.257202 
        2.32553         0.37545        0.255576 
        2.33166        0.373598        0.253964 
         2.3378        0.371465        0.252364 
        2.34394        0.369589        0.250778 
        2.35007        0.367636        0.249207 
        2.35619        0.365478        0.247652 
        2.36233        0.363405        0.246107 
        2.36848         0.36202        0.244572 
        2.37462          0.3608        0.243053 
        2.38075        0.358606        0.241548 
        2.38689        0.356966        0.240055 
        2.39303        0.354779        0.238575 
        2.39916        0.352863        0.237109 
        2.40529         0.35175        0.235655 
        2.41143        0.348964        0.234213 
        2.41757        0.347617        0.232782 
         2.4237        0.345919        0.231366 
        2.42983        0.345108        0.229962 
        2.43598        0.342748        0.228565 
        2.44211        0.339943        0.227183 
        2.44823        0.339804        0.225815 
        2.45437        0.337897        0.224455 
        2.46052        0.336172        0.223105 
        2.46665         0.33425        0.221769 
        2.47279        0.332574        0.220444 
        2.47892        0.331466        0.219129 
        2.48507        0.329599        0.217823 
         2.4912        0.328338        0.216531 
