# k  (h/Mpc)    P(k)  (Mpc/h)^3    P_linear(k)  (Mpc/h)^3
     0.00783031         14411.4         14682.6 
       0.013688         19008.8         18893.4 
       0.019231         19836.3           19873 
      0.0249154         18635.8         19116.8 
      0.0312784         16959.6         17253.8 
      0.0375637         15053.8         15169.4 
      0.0433917           13072         13439.2 
      0.0492413         11859.1         12055.6 
      0.0555754         10492.8         10951.4 
      0.0619321         10048.4         10144.3 
       0.067871         9137.38         9529.99 
      0.0738098         8559.72          8940.5 
      0.0800417         7801.41         8278.31 
      0.0862327         7216.39         7563.42 
      0.0921407         6662.18         6861.05 
      0.0982031         5976.14         6174.02 
       0.104506         5568.48          5549.4 
       0.110769         5092.02         5050.33 
       0.116806         4735.19         4685.97 
       0.122832         4483.66         4416.24 
       0.129052          4169.2         4201.83 
       0.135211         3989.98         4015.74 
       0.141259         3861.16         3828.53 
       0.147318         3681.08         3620.42 
       0.153489         3403.69         3386.36 
       0.159709         3232.89         3139.92 
       0.165845         3109.84         2904.26 
       0.171974          2917.5         2692.75 
       0.178125         2762.88         2514.57 
       0.184229         2631.98         2373.59 
        0.19034         2493.62         2263.25 
       0.196428         2450.13         2174.41 
       0.202534         2362.52         2095.37 
       0.208729         2272.78         2015.56 
       0.214876         2192.18         1930.56 
       0.220989         2126.24         1838.82 
       0.227147         2038.67          1741.8 
        0.23329         1959.94         1645.46 
       0.239377         1932.33         1555.72 
       0.245482          1814.3          1475.4 
       0.251667         1804.72         1405.79 
       0.257832         1734.89         1347.56 
       0.263955         1679.76         1298.38 
       0.270079         1626.93         1254.55 
        0.27624         1610.78         1212.55 
       0.282372         1545.19         1170.42 
        0.28843          1543.4         1127.35 
       0.294538         1471.01         1082.58 
       0.300721         1462.49         1037.08 
        0.30691         1408.43         992.884 
       0.313033         1380.65          951.99 
       0.319153         1363.13         914.804 
       0.325316         1317.35         881.383 
        0.33145         1290.63          851.66 
       0.337538         1269.28         824.868 
       0.343633         1243.54         799.718 
       0.349808         1205.25         775.071 
       0.355968         1197.08         750.675 
       0.362074         1186.66         726.482 
       0.368217         1149.83         702.255 
       0.374374         1110.71         678.431 
       0.380519         1113.08         655.573 
       0.386598         1083.51         634.192 
       0.392688         1078.98         614.223 
        0.39888         1049.31         595.403 
       0.405048         1038.78         577.959 
       0.411186         1023.83         561.644 
       0.417313         1002.56         546.076 
       0.423458         987.184         530.928 
       0.429607         974.088         516.106 
       0.435692         956.697         501.691 
       0.441815         949.872         487.485 
       0.447964         929.661         473.635 
       0.454126         922.863         460.268 
       0.460267         901.643         447.535 
       0.466387          889.82         435.492 
        0.47254         886.264         423.999 
       0.478662         876.346         413.109 
       0.484765         854.476         402.723 
       0.490885         849.716         392.693 
       0.497035         830.865         382.916 
       0.503198         827.164         373.377 
       0.509342         817.139         364.119 
       0.515458         813.812         355.156 
       0.521598         795.279         346.423 
       0.527764         779.715         337.946 
       0.533884         779.434         329.844 
           0.54         772.028         322.065 
       0.546137         764.309         314.554 
       0.552299         755.345         307.289 
       0.558452         749.238          300.29 
       0.564573         739.302         293.552 
       0.570708         732.427         286.999 
       0.576825         712.601         280.644 
       0.582926         716.724         274.478 
       0.589034         709.565         268.477 
       0.595184         702.893         262.612 
       0.601379         693.741         256.885 
       0.607522         684.068         251.383 
       0.613639         685.197         246.074 
       0.619772         670.157         240.919 
       0.625918         665.467         235.914 
       0.632068          658.04         231.058 
       0.638161         655.777         226.385 
         0.6443         643.702         221.805 
       0.650464         642.517          217.33 
       0.656582         638.075         213.006 
       0.662703         634.561         208.796 
       0.668861         623.698         204.677 
       0.675024         618.692         200.667 
       0.681124         615.442         196.808 
       0.687237         610.348         193.046 
       0.693381          603.07         189.368 
       0.699536         592.534         185.781 
       0.705665          593.39         182.305 
       0.711789         588.915         178.924 
       0.717957         583.633         175.606 
        0.72409         580.461         172.391 
       0.730186         572.171         169.277 
       0.736317         569.102         166.223 
       0.742472         566.086         163.233 
       0.748622         560.026         160.319 
        0.75476         551.481         157.484 
       0.760888         547.198         154.722 
       0.767043         546.345         152.016 
       0.773185         541.219         149.383 
       0.779291         536.506         146.828 
       0.785407         531.427          144.33 
       0.791564         526.149         141.876 
       0.797719         523.864         139.481 
       0.803834          518.97         137.158 
       0.809972         516.159         134.879 
       0.816124         515.162         132.648 
       0.822261         507.257         130.473 
       0.828378         504.777         128.354 
       0.834502         499.454         126.281 
       0.840667         495.627         124.241 
       0.846816         493.083         122.252 
       0.852925         488.892          120.32 
       0.859047         488.197         118.426 
       0.865192         481.869         116.567 
       0.871341         477.747         114.748 
       0.877463         477.242         112.975 
       0.883569         471.964         111.246 
       0.889708         469.695         109.544 
       0.895864          467.19         107.873 
       0.902008         463.389         106.241 
       0.908149         458.004         104.645 
       0.914301         455.659         103.078 
       0.920448         453.101         101.546 
       0.926574         445.871          100.05 
       0.932687         445.547         98.5883 
       0.938823         441.087         97.1505 
       0.944975          441.35         95.7384 
       0.951105         435.506         94.3596 
       0.957225         432.531         93.0106 
       0.963368         428.607         91.6836 
       0.969511         427.046         90.3827 
       0.975621         424.267         89.1143 
       0.981748         421.742         87.8673 
       0.987916         418.954         86.6364 
        0.99406         412.055         85.4341 
        1.00019         411.065         84.2572 
        1.00632          409.03         83.1037 
        1.01246         405.676         81.9704 
        1.01859         405.481         80.8602 
        1.02471         399.956         79.7722 
        1.03085         398.268         78.7007 
        1.03698         396.547         77.6513 
        1.04314         392.813         76.6169 
        1.04929         388.352         75.6039 
        1.05541          389.35         74.6134 
        1.06154         383.486         73.6385 
        1.06769         381.215         72.6797 
        1.07382         378.995         71.7413 
        1.07993         376.742         70.8218 
        1.08607         375.507         69.9147 
        1.09222         371.678         69.0228 
        1.09836         369.424         68.1476 
        1.10449         366.183         67.2887 
        1.11063         361.953         66.4438 
        1.11677         362.853         65.6139 
         1.1229         360.324         64.7997 
        1.12903          357.23         63.9987 
        1.13518         353.395         63.2107 
        1.14131          352.31         62.4365 
        1.14745         349.406         61.6758 
        1.15359         347.576         60.9277 
        1.15973         345.265         60.1918 
        1.16584         342.782         59.4715 
        1.17197         341.848          58.762 
        1.17811         338.405          58.062 
        1.18424         335.408         57.3754 
        1.19038         333.808         56.6981 
        1.19652         331.839         56.0321 
        1.20267         330.025         55.3768 
        1.20881         328.429         54.7322 
        1.21495         325.584          54.099 
        1.22108         323.784          53.476 
         1.2272         321.323         52.8643 
        1.23334          319.21         52.2609 
        1.23949         317.207         51.6655 
        1.24562         315.921         51.0811 
        1.25174         313.237         50.5068 
        1.25789         310.231         49.9395 
        1.26402         308.478         49.3821 
        1.27014         306.508         48.8346 
        1.27628         304.649         48.2939 
        1.28244         304.534         47.7603 
        1.28858         300.979         47.2357 
        1.29471         299.152         46.7201 
        1.30084         297.443         46.2128 
        1.30697         295.509         45.7123 
        1.31312         292.428         45.2185 
        1.31925         291.696         44.7337 
        1.32537         290.586         44.2565 
        1.33151         287.373         43.7846 
        1.33765         285.422         43.3199 
        1.34378         284.405         42.8629 
        1.34992         282.435         42.4123 
        1.35606         281.116         41.9672 
         1.3622         278.978         41.5293 
        1.36833         277.105         41.0988 
        1.37445         275.508         40.6746 
        1.38059         272.932         40.2552 
        1.38675         271.702         39.8407 
        1.39288         270.181         39.4338 
        1.39901         269.039         39.0327 
        1.40515         267.092         38.6364 
         1.4113         265.486         38.2457 
        1.41742         263.306          37.862 
        1.42355         261.908         37.4829 
         1.4297         260.079         37.1078 
        1.43585          258.65         36.7381 
        1.44198          257.21         36.3748 
        1.44809         255.078         36.0171 
        1.45423          253.47          35.663 
        1.46036         252.396         35.3142 
        1.46649         250.251         34.9701 
        1.47263         248.897         34.6303 
        1.47877         247.147         34.2951 
        1.48491         245.253          33.964 
        1.49104         244.403         33.6379 
        1.49718         242.442         33.3158 
        1.50333         241.221         32.9976 
        1.50947         239.756         32.6841 
         1.5156          237.65         32.3752 
        1.52172         237.003         32.0703 
        1.52787         234.972         31.7688 
          1.534         234.167         31.4715 
        1.54013         231.712         31.1784 
        1.54627         231.004         30.8885 
        1.55241         229.448         30.6023 
        1.55855         227.792         30.3201 
        1.56467         226.568         30.0423 
         1.5708         225.864         29.7672 
        1.57695         223.847         29.4951 
        1.58308         222.617         29.2272 
        1.58922         220.027         28.9623 
        1.59535          219.01         28.7009 
         1.6015         218.424         28.4424 
        1.60764         216.788         28.1872 
        1.61376         215.593         27.9358 
        1.61989         214.214         27.6873 
        1.62604         212.785         27.4413 
        1.63218         211.639         27.1985 
        1.63831          210.12         26.9592 
        1.64444         209.339         26.7227 
        1.65059         207.892         26.4884 
        1.65673         206.496         26.2573 
        1.66285         205.017         26.0296 
        1.66898         203.793         25.8045 
        1.67512         203.094         25.5816 
        1.68127         200.804         25.3612 
         1.6874         199.915         25.1439 
        1.69353         198.801         24.9292 
        1.69967           197.4         24.7166 
        1.70581         196.554         24.5066 
        1.71193         195.026         24.2998 
        1.71806          194.32          24.095 
        1.72421         192.714         23.8921 
        1.73035         192.028         23.6918 
        1.73649         190.825         23.4939 
        1.74262         189.519         23.2984 
        1.74876         188.126          23.105 
        1.75489         187.067         22.9142 
        1.76101          185.86         22.7256 
        1.76715         184.956         22.5389 
        1.77329         183.957         22.3541 
        1.77943         182.972         22.1713 
        1.78557          181.64         21.9908 
        1.79171         180.696         21.8124 
        1.79785         179.206         21.6358 
        1.80399         178.392         21.4613 
        1.81012         177.321         21.2889 
        1.81625         176.391         21.1185 
        1.82239         175.121         20.9498 
        1.82853         174.554         20.7829 
        1.83466         173.116         20.6181 
        1.84078         172.321         20.4552 
        1.84692         170.824         20.2939 
        1.85306          170.33         20.1341 
         1.8592         169.092         19.9762 
        1.86533         168.363         19.8202 
        1.87147         167.036         19.6657 
        1.87761         166.243         19.5127 
        1.88375         164.787         19.3616 
        1.88988         163.576         19.2122 
        1.89601         163.343         19.0643 
        1.90215         162.107         18.9179 
        1.90829         161.105         18.7731 
        1.91442         160.132         18.6298 
        1.92056         159.456         18.4882 
         1.9267         158.074         18.3478 
        1.93284         157.202         18.2089 
        1.93897         156.608         18.0716 
        1.94509         155.631         17.9361 
        1.95123         154.763         17.8016 
        1.95737         153.833         17.6684 
        1.96349         152.861         17.5369 
        1.96964         151.845         17.4064 
        1.97578         151.016         17.2772 
        1.98192         150.197         17.1495 
        1.98805         149.118         17.0232 
        1.99419         148.336         16.8981 
        2.00033         147.516         16.7742 
        2.00647         146.762         16.6515 
         2.0126          145.55         16.5304 
        2.01874         145.218         16.4102 
        2.02488         144.364         16.2911 
        2.03101         142.976         16.1735 
        2.03714         142.489         16.0571 
        2.04328         141.511         15.9418 
        2.04941         140.964         15.8276 
        2.05554         139.751         15.7147 
        2.06167         139.288         15.6028 
        2.06781         138.348         15.4919 
        2.07396         137.423         15.3819 
        2.08009         137.003         15.2732 
        2.08622          135.85         15.1657 
        2.09237         135.115          15.059 
        2.09851          134.44         14.9533 
        2.10464         133.988         14.8488 
        2.11077          133.05         14.7455 
        2.11691         132.295         14.6429 
        2.12305         131.401         14.5413 
        2.12918         130.608         14.4409 
        2.13531         130.145         14.3414 
        2.14145         128.996         14.2427 
         2.1476         128.072         14.1447 
        2.15372         127.966         14.0482 
        2.15985         127.417         13.9525 
        2.16599         126.126         13.8574 
        2.17213          125.61         13.7633 
        2.17827         124.873         13.6702 
         2.1844         124.038         13.5779 
        2.19054         123.487         13.4865 
        2.19666          122.66         13.3961 
         2.2028         122.045         13.3064 
        2.20893         121.585         13.2174 
        2.21508         120.798         13.1293 
        2.22122         119.939         13.0418 
        2.22736         119.321         12.9554 
        2.23349         118.702         12.8698 
        2.23962         117.975         12.7849 
        2.24577         117.325         12.7007 
         2.2519         116.868         12.6173 
        2.25802         116.055         12.5349 
        2.26417         115.497          12.453 
        2.27031         114.594         12.3717 
        2.27644         114.091         12.2914 
        2.28257         113.384         12.2118 
        2.28872         112.954         12.1328 
        2.29486           112.1         12.0544 
        2.30099         111.521          11.977 
        2.30712         110.979         11.9002 
        2.31326         110.313         11.8239 
         2.3194         109.756         11.7484 
        2.32553         109.125         11.6736 
        2.33166         108.678         11.5995 
         2.3378         108.132          11.526 
        2.34394         107.484         11.4531 
        2.35007         106.715         11.3809 
        2.35619         106.209         11.3095 
        2.36233         105.665         11.2384 
        2.36848         105.088         11.1679 
        2.37462         104.699         11.0981 
        2.38075         103.822          11.029 
        2.38689         103.405         10.9604 
        2.39303         102.865         10.8924 
        2.39916          102.42          10.825 
        2.40529           101.9         10.7583 
        2.41143         101.325          10.692 
        2.41757         100.604         10.6263 
         2.4237         99.9907         10.5612 
        2.42983         99.3906         10.4967 
        2.43598         98.9956         10.4326 
        2.44211         98.5956         10.3691 
        2.44823          98.025         10.3063 
        2.45437         97.5424         10.2439 
        2.46052         96.8067         10.1819 
        2.46665         96.3459         10.1205 
        2.47279         96.0217         10.0597 
        2.47892         95.3594          9.9993 
        2.48507         94.8566         9.93936 
         2.4912         94.3743         9.88004 
