# k  (h/Mpc)    P(k)  (Mpc/h)^3    P_linear(k)  (Mpc/h)^3
     0.00783031         8271.87         8330.79 
       0.013688         10109.5         10323.7 
       0.019231         10360.7         10481.5 
      0.0249154         9733.54         9720.13 
      0.0312784         8383.79         8441.43 
      0.0375637         7109.69         7198.71 
      0.0433917         6247.83         6265.28 
      0.0492413         5526.79         5580.31 
      0.0555754         5061.64         5071.24 
      0.0619321         4576.71         4704.78 
       0.067871         4341.01         4403.84 
      0.0738098         4046.43         4084.65 
      0.0800417         3687.71          3709.2 
      0.0862327         3281.01          3312.1 
      0.0921407          2934.6         2945.66 
      0.0982031         2642.66         2616.82 
       0.104506         2345.44         2347.27 
       0.110769         2166.05         2154.37 
       0.116806         2069.39         2025.27 
       0.122832         1948.28         1930.15 
       0.129052         1861.82         1843.23 
       0.135211         1794.18         1749.76 
       0.141259         1666.45         1642.61 
       0.147318         1533.05         1522.27 
       0.153489         1427.98         1395.98 
       0.159709         1343.62         1277.01 
       0.165845         1219.33         1177.05 
       0.171974         1180.86          1098.4 
       0.178125         1129.16         1039.34 
       0.184229         1053.29         995.127 
        0.19034         1032.72          958.25 
       0.196428         1000.08         922.327 
       0.202534         936.009         882.743 
       0.208729         915.324         837.584 
       0.214876         873.415         789.324 
       0.220989         814.964         741.133 
       0.227147         791.522         695.861 
        0.23329         757.714         656.464 
       0.239377         742.338         624.059 
       0.245482         704.001         597.605 
       0.251667         677.165         575.269 
       0.257832         669.454         555.337 
       0.263955         634.203         535.934 
       0.270079         612.512         515.688 
        0.27624         586.815         494.194 
       0.282372         573.179         472.129 
        0.28843         567.418         450.586 
       0.294538         537.927         430.089 
       0.300721         520.585          411.31 
        0.30691         511.455         394.783 
       0.313033         488.946         380.471 
       0.319153         481.019         367.728 
       0.325316         471.253         355.822 
        0.33145         460.011         344.349 
       0.337538          443.75         332.959 
       0.343633         430.604         321.454 
       0.349808          419.27         309.799 
       0.355968         410.958         298.419 
       0.362074         398.412         287.666 
       0.368217         394.614          277.56 
       0.374374         386.142         268.255 
       0.380519         370.607         259.726 
       0.386598          365.86         251.909 
       0.392688         357.174         244.523 
        0.39888         348.272         237.282 
       0.405048         341.819         230.237 
       0.411186          339.57         223.335 
       0.417313         333.912         216.563 
       0.423458         324.578          209.96 
       0.429607         316.434         203.606 
       0.435692         311.205         197.618 
       0.441815         305.543         191.929 
       0.447964         298.089          186.54 
       0.454126         294.072         181.422 
       0.460267         289.963         176.558 
       0.466387         284.375         171.894 
        0.47254         280.733          167.34 
       0.478662         273.246         162.928 
       0.484765         270.059         158.649 
       0.490885         266.528         154.482 
       0.497035         262.546         150.432 
       0.503198         260.488          146.53 
       0.509342         253.636         142.804 
       0.515458         250.373         139.251 
       0.521598         245.151         135.827 
       0.527764         242.369          132.52 
       0.533884         241.532         129.353 
           0.54         236.559         126.289 
       0.546137         231.374         123.302 
       0.552299         229.911         120.386 
       0.558452         226.005         117.563 
       0.564573         224.517         114.842 
       0.570708         219.829         112.203 
       0.576825         216.688         109.659 
       0.582926         214.525         107.208 
       0.589034         211.525         104.835 
       0.595184         209.987         102.526 
       0.601379         206.049         100.274 
       0.607522          202.17          98.108 
       0.613639         200.946         96.0123 
       0.619772         199.161         93.9695 
       0.625918         197.271         91.9804 
       0.632068         193.099         90.0475 
       0.638161         191.631         88.1883 
         0.6443          190.29           86.37 
       0.650464         186.811          84.598 
       0.656582         185.644         82.8899 
       0.662703         184.033         81.2298 
       0.668861         180.484         79.6069 
       0.675024         180.317         78.0281 
       0.681124         177.735         76.5087 
       0.687237         175.686          75.027 
       0.693381         173.923         73.5778 
       0.699536         172.061         72.1642 
       0.705665         170.269         70.7937 
       0.711789         168.335         69.4603 
       0.717957          166.54         68.1523 
        0.72409          164.98         66.8859 
       0.730186         165.109           65.66 
       0.736317         162.385         64.4589 
       0.742472         160.171         63.2841 
       0.748622         157.885         62.1403 
        0.75476         158.485         61.0276 
       0.760888         156.649         59.9442 
       0.767043         154.103          58.883 
       0.773185         152.712         57.8499 
       0.779291         150.897         56.8476 
       0.785407         150.007         55.8678 
       0.791564         148.845         54.9052 
       0.797719         146.769          53.966 
       0.803834         146.898          53.055 
       0.809972         145.681         52.1621 
       0.816124         143.499         51.2881 
       0.822261         142.324         50.4367 
       0.828378         142.126         49.6074 
       0.834502         139.988         48.7964 
       0.840667         139.537         47.9985 
       0.846816         138.015         47.2208 
       0.852925          136.71         46.4655 
       0.859047         135.651         45.7253 
       0.865192         134.849         44.9989 
       0.871341          133.33         44.2879 
       0.877463         132.301         43.5957 
       0.883569         132.228         42.9202 
       0.889708         131.004         42.2557 
       0.895864         129.784         41.6037 
       0.902008         128.568         40.9669 
       0.908149         127.029          40.344 
       0.914301         127.019         39.7331 
       0.920448         126.491         39.1355 
       0.926574         124.295         38.5525 
       0.932687         124.244         37.9827 
       0.938823         123.303         37.4224 
       0.944975         122.088         36.8723 
       0.951105         121.078         36.3353 
       0.957225         120.799         35.8101 
       0.963368         119.494         35.2935 
       0.969511         118.651         34.7873 
       0.975621         117.542         34.2938 
       0.981748         116.737         33.8087 
       0.987916         116.112           33.33 
        0.99406         115.594         32.8625 
        1.00019         114.433         32.4049 
        1.00632         113.707         31.9566 
        1.01246         113.064         31.5162 
        1.01859         112.452         31.0849 
        1.02471          111.63         30.6623 
        1.03085         110.597         30.2462 
        1.03698         109.911         29.8387 
        1.04314          109.29         29.4371 
        1.04929         108.909         29.0439 
        1.05541         108.113         28.6595 
        1.06154         107.369         28.2812 
        1.06769         106.583         27.9092 
        1.07382         105.814         27.5452 
        1.07993          105.35         27.1886 
        1.08607         104.531         26.8369 
        1.09222         104.126          26.491 
        1.09836         103.141         26.1518 
        1.10449         102.596         25.8189 
        1.11063         102.004         25.4915 
        1.11677         101.327         25.1699 
         1.1229         100.556         24.8544 
        1.12903         100.172         24.5442 
        1.13518         99.6096          24.239 
        1.14131         98.9424         23.9392 
        1.14745         98.4399         23.6447 
        1.15359         97.2816         23.3551 
        1.15973         97.1219         23.0703 
        1.16584          96.507         22.7916 
        1.17197         96.0049         22.5171 
        1.17811         95.2334         22.2463 
        1.18424         94.6288         21.9807 
        1.19038         94.4731         21.7188 
        1.19652         93.7844         21.4613 
        1.20267         93.1751          21.208 
        1.20881         92.6199         20.9589 
        1.21495         92.1167         20.7142 
        1.22108         91.7575         20.4734 
         1.2272         90.8681         20.2371 
        1.23334         90.7296          20.004 
        1.23949         90.1193         19.7741 
        1.24562         89.3872         19.5484 
        1.25174          88.964         19.3267 
        1.25789         88.7139         19.1077 
        1.26402          88.114         18.8925 
        1.27014         87.6866         18.6812 
        1.27628         86.9243         18.4725 
        1.28244         86.8291         18.2667 
        1.28858         86.1092         18.0643 
        1.29471         85.6445         17.8654 
        1.30084         84.9895         17.6697 
        1.30697         84.9516         17.4767 
        1.31312         84.2996         17.2863 
        1.31925         83.7641         17.0994 
        1.32537         83.3976         16.9154 
        1.33151         83.1723         16.7335 
        1.33765         82.5438         16.5544 
        1.34378          82.176         16.3783 
        1.34992         81.8781         16.2046 
        1.35606         81.2978         16.0332 
         1.3622         81.0675         15.8645 
        1.36833         80.3558         15.6986 
        1.37445          79.853         15.5352 
        1.38059         79.6462         15.3737 
        1.38675         78.8983         15.2141 
        1.39288         78.8088         15.0574 
        1.39901         78.1036         14.9029 
        1.40515         77.8729         14.7504 
         1.4113         77.5573            14.6 
        1.41742         77.0261         14.4523 
        1.42355         76.7853         14.3064 
         1.4297         76.2844          14.162 
        1.43585         75.8605         14.0198 
        1.44198         75.4791           13.88 
        1.44809         74.9791         13.7425 
        1.45423         74.7712         13.6062 
        1.46036         74.2123         13.4721 
        1.46649          73.896         13.3398 
        1.47263         73.5782         13.2092 
        1.47877         73.2575         13.0804 
        1.48491         72.8211         12.9531 
        1.49104         72.2927         12.8277 
        1.49718         72.0812          12.704 
        1.50333         71.7096         12.5817 
        1.50947         71.4836         12.4613 
         1.5156         71.1826         12.3426 
        1.52172         70.6217         12.2255 
        1.52787         70.2055         12.1097 
          1.534          69.931         11.9955 
        1.54013           69.77         11.8829 
        1.54627         69.1202         11.7716 
        1.55241         68.8725         11.6617 
        1.55855         68.5425         11.5534 
        1.56467         67.9308         11.4467 
         1.5708         67.8719         11.3412 
        1.57695         67.4919         11.2367 
        1.58308         67.1565         11.1339 
        1.58922         66.8753         11.0322 
        1.59535         66.7076         10.9319 
         1.6015         66.5015         10.8327 
        1.60764         66.0596         10.7348 
        1.61376         65.6681         10.6384 
        1.61989         65.1491          10.543 
        1.62604          64.995         10.4487 
        1.63218         64.7098         10.3555 
        1.63831         64.4678         10.2637 
        1.64444         64.2299          10.173 
        1.65059         63.7848         10.0832 
        1.65673         63.4055          9.9946 
        1.66285         63.1147         9.90729 
        1.66898         62.6938           9.821 
        1.67512         62.5304         9.73558 
        1.68127         62.3082         9.65111 
         1.6874         61.9071         9.56782 
        1.69353         61.6348         9.48558 
        1.69967         61.4024         9.40411 
        1.70581         61.0536         9.32364 
        1.71193         60.7875         9.24442 
        1.71806          60.444         9.16596 
        1.72421         60.2944         9.08825 
        1.73035         59.9883         9.01155 
        1.73649         59.5979         8.93574 
        1.74262         59.1715         8.86088 
        1.74876         59.1295         8.78683 
        1.75489          58.736         8.71378 
        1.76101         58.4788         8.64159 
        1.76715          58.361         8.57012 
        1.77329         57.8439         8.49937 
        1.77943         57.7946          8.4294 
        1.78557          57.508         8.36033 
        1.79171         57.1934         8.29202 
        1.79785         56.9273         8.22446 
        1.80399         56.6249         8.15767 
        1.81012         56.4006         8.09172 
        1.81625         56.1071         8.02653 
        1.82239         55.8652         7.96197 
        1.82853         55.5554         7.89815 
        1.83466          55.368         7.83509 
        1.84078         55.0775         7.77279 
        1.84692         54.8965         7.71107 
        1.85306         54.5784         7.64995 
         1.8592         54.3817         7.58959 
        1.86533         54.0624         7.52991 
        1.87147          53.821         7.47082 
        1.87761         53.5755         7.41233 
        1.88375         53.3225         7.35455 
        1.88988          53.089         7.29744 
        1.89601         52.8315         7.24091 
        1.90215         52.5276         7.18494 
        1.90829         52.3942         7.12959 
        1.91442         52.0828         7.07483 
        1.92056         51.9246         7.02069 
         1.9267         51.6856         6.96706 
        1.93284         51.4697         6.91396 
        1.93897         51.2148         6.86153 
        1.94509         50.8593         6.80975 
        1.95123         50.6943         6.75837 
        1.95737         50.4702         6.70749 
        1.96349         50.2934         6.65727 
        1.96964         49.9805         6.60742 
        1.97578         49.7569         6.55806 
        1.98192         49.5144         6.50931 
        1.98805          49.281         6.46104 
        1.99419         49.1018         6.41327 
        2.00033           48.94         6.36596 
        2.00647         48.7074         6.31914 
         2.0126         48.4086         6.27288 
        2.01874         48.2923         6.22701 
        2.02488         47.9831         6.18156 
        2.03101         47.8577         6.13665 
        2.03714         47.6014         6.09223 
        2.04328         47.3903          6.0482 
        2.04941         47.0997         6.00464 
        2.05554         47.0255         5.96155 
        2.06167         46.8476         5.91883 
        2.06781         46.4759         5.87651 
        2.07396         46.2584         5.83456 
        2.08009         46.1088         5.79308 
        2.08622         45.9311         5.75206 
        2.09237         45.6872         5.71136 
        2.09851         45.4968         5.67105 
        2.10464         45.3099         5.63119 
        2.11077         45.1295         5.59176 
        2.11691          44.849         5.55263 
        2.12305         44.6037         5.51387 
        2.12918         44.4893         5.47558 
        2.13531          44.291         5.43764 
        2.14145         44.0695         5.39998 
         2.1476         43.9483         5.36264 
        2.15372         43.8097         5.32583 
        2.15985         43.4711         5.28934 
        2.16599         43.2976         5.25309 
        2.17213         43.1333         5.21721 
        2.17827         42.9428         5.18168 
         2.1844         42.6799         5.14652 
        2.19054         42.5812         5.11167 
        2.19666         42.3213         5.07719 
         2.2028         42.0988         5.04301 
        2.20893         41.9744         5.00912 
        2.21508         41.7746         4.97551 
        2.22122         41.6058         4.94219 
        2.22736          41.329         4.90925 
        2.23349         41.2542         4.87662 
        2.23962         41.0431         4.84428 
        2.24577         40.8444         4.81219 
         2.2519         40.6231         4.78045 
        2.25802         40.5241         4.74904 
        2.26417         40.3289         4.71783 
        2.27031         40.1295         4.68687 
        2.27644         40.0701         4.65628 
        2.28257          39.666         4.62596 
        2.28872         39.7346         4.59586 
        2.29486         39.4924         4.56604 
        2.30099         39.2474         4.53654 
        2.30712           39.17         4.50729 
        2.31326         38.9068         4.47825 
         2.3194         38.7244         4.44948 
        2.32553         38.6218         4.42101 
        2.33166         38.4028         4.39281 
         2.3378         38.2106         4.36482 
        2.34394         38.0722         4.33706 
        2.35007         37.9473         4.30958 
        2.35619         37.8231         4.28238 
        2.36233         37.5149         4.25535 
        2.36848         37.4776         4.22849 
        2.37462          37.246         4.20193 
        2.38075         37.1324         4.17562 
        2.38689         37.0211         4.14951 
        2.39303         36.8361         4.12363 
        2.39916         36.5598           4.098 
        2.40529         36.4637          4.0726 
        2.41143         36.3036         4.04739 
        2.41757         36.2327         4.02238 
         2.4237         36.0315         3.99763 
        2.42983          35.825         3.97309 
        2.43598         35.7092         3.94869 
        2.44211         35.5569         3.92454 
        2.44823         35.3333         3.90065 
        2.45437          35.271         3.87689 
        2.46052         35.0467         3.85331 
        2.46665         34.9287         3.82997 
        2.47279         34.6941         3.80682 
        2.47892           34.64         3.78386 
        2.48507          34.527         3.76106 
         2.4912         34.3228          3.7385 
