# k  (h/Mpc)    P(k)  (Mpc/h)^3    P_linear(k)  (Mpc/h)^3
     0.00783031         15778.2         16016.9 
       0.013688         19663.9         19489.8 
       0.019231         19388.8         19353.4 
      0.0249154         17159.7         17527.2 
      0.0312784         14769.3         14930.3 
      0.0375637         12688.8           12686 
      0.0433917           10966         11167.8 
      0.0492413         10045.8         10134.9 
      0.0555754         9041.23         9351.72 
      0.0619321         8650.32         8663.96 
       0.067871         7725.44         7958.66 
      0.0738098         6971.31         7162.52 
      0.0800417         6082.73         6296.99 
      0.0862327         5422.57         5512.98 
      0.0921407         4935.56            4910 
      0.0982031         4455.77         4461.26 
       0.104506         4259.37         4148.34 
       0.110769         4001.91         3929.64 
       0.116806         3786.28         3740.96 
       0.122832         3585.26         3528.65 
       0.129052         3273.36         3268.97 
       0.135211         3038.08         2986.56 
       0.141259         2859.64         2715.85 
       0.147318         2669.65          2480.1 
       0.153489         2451.36          2292.2 
       0.159709         2339.03         2154.99 
       0.165845         2274.12         2056.48 
       0.171974         2165.86         1974.46 
       0.178125         2065.04         1890.34 
       0.184229         1969.19         1794.97 
        0.19034         1845.38         1687.48 
       0.196428          1792.3         1575.88 
       0.202534         1712.84         1469.66 
       0.208729         1628.24         1376.17 
       0.214876         1561.22          1301.1 
       0.220989         1511.48         1242.23 
       0.227147         1452.38         1193.58 
        0.23329          1398.7         1149.31 
       0.239377         1375.72         1104.54 
       0.245482         1287.62         1056.29 
       0.251667         1277.21         1004.61 
       0.257832         1223.68         952.899 
       0.263955         1181.15         904.481 
       0.270079          1139.4         861.349 
        0.27624            1126         824.055 
       0.282372         1080.13         792.287 
        0.28843         1071.13         764.449 
       0.294538         1017.24         737.994 
       0.300721         1012.48         711.372 
        0.30691         970.905         684.159 
       0.313033         951.371         656.961 
       0.319153         933.118         630.242 
       0.325316         902.899         604.763 
        0.33145         881.455         581.465 
       0.337538         866.137          560.58 
       0.343633         845.525         541.646 
       0.349808         816.039         523.921 
       0.355968         810.953         507.109 
       0.362074         802.146         490.799 
       0.368217         777.293         474.588 
       0.374374         746.079         458.557 
       0.380519         747.032         442.998 
       0.386598         725.796         428.316 
       0.392688         723.128         414.465 
        0.39888         702.096         401.327 
       0.405048         691.657         389.114 
       0.411186          682.04          377.63 
       0.417313         667.943         366.654 
       0.423458         655.495         356.003 
       0.429607         647.262         345.598 
       0.435692         632.226         335.567 
       0.441815         626.843           325.8 
       0.447964         614.204         316.373 
       0.454126         606.267         307.349 
       0.460267           592.5         298.807 
       0.466387         586.083         290.712 
        0.47254         579.062         282.925 
       0.478662         575.298          275.47 
       0.484765         556.974         268.289 
       0.490885         553.118         261.313 
       0.497035         542.239         254.505 
       0.503198          537.57         247.897 
       0.509342         533.027         241.541 
       0.515458         528.938         235.459 
       0.521598         515.376          229.59 
       0.527764         506.633          223.92 
       0.533884         504.424         218.496 
           0.54         498.344         213.266 
       0.546137         495.206          208.19 
       0.552299          486.98         203.254 
       0.558452         484.301         198.474 
       0.564573         478.032         193.862 
       0.570708         471.458         189.383 
       0.576825         459.446         185.064 
       0.582926         460.106         180.901 
       0.589034         455.782         176.871 
       0.595184         451.855         172.944 
       0.601379         444.953         169.112 
       0.607522         439.045         165.426 
       0.613639         438.007         161.864 
       0.619772         428.393         158.397 
       0.625918         426.777         155.025 
       0.632068         420.348         151.751 
       0.638161         418.755         148.603 
         0.6443         411.743         145.523 
       0.650464         409.096         142.521 
       0.656582         406.053         139.627 
       0.662703         404.765         136.814 
       0.668861         397.953         134.063 
       0.675024         394.545         131.386 
       0.681124         391.501          128.81 
       0.687237         387.892         126.299 
       0.693381         382.643         123.844 
       0.699536         377.909          121.45 
       0.705665         375.882         119.131 
       0.711789         374.079         116.876 
       0.717957         370.869         114.664 
        0.72409         368.497         112.523 
       0.730186         363.566         110.449 
       0.736317         360.465         108.417 
       0.742472         358.719         106.429 
       0.748622         354.834         104.494 
        0.75476         350.502         102.611 
       0.760888         347.129         100.777 
       0.767043         347.672         98.9818 
       0.773185         343.652         97.2343 
       0.779291         338.852         95.5395 
       0.785407         337.731          93.883 
       0.791564         333.504         92.2559 
       0.797719         331.339         90.6686 
       0.803834          328.11         89.1291 
       0.809972         327.481         87.6203 
       0.816124         326.525         86.1436 
       0.822261         322.306         84.7053 
       0.828378         319.772         83.3046 
       0.834502         317.191         81.9346 
       0.840667         314.556          80.587 
       0.846816         312.942         79.2739 
       0.852925          310.87         77.9986 
       0.859047         308.788         76.7489 
       0.865192         305.165         75.5229 
       0.871341         302.797         74.3231 
       0.877463         302.111         73.1551 
       0.883569         300.123         72.0155 
       0.889708         297.157         70.8945 
       0.895864         295.337         69.7947 
       0.902008          293.19         68.7208 
       0.908149         290.763         67.6703 
       0.914301         287.865         66.6403 
       0.920448         286.325         65.6329 
       0.926574         282.974           64.65 
       0.932687         283.291         63.6895 
       0.938823         280.153         62.7453 
       0.944975         279.586         61.8181 
       0.951105         277.159         60.9132 
       0.957225          275.23          60.028 
       0.963368         271.757         59.1576 
       0.969511           270.9         58.3046 
       0.975621         268.704          57.473 
       0.981748         268.213         56.6557 
       0.987916          266.33         55.8493 
        0.99406         262.578         55.0617 
        1.00019         262.009          54.291 
        1.00632         260.622         53.5359 
        1.01246         258.419         52.7941 
        1.01859         258.823         52.0678 
        1.02471         254.693          51.356 
        1.03085         253.171         50.6553 
        1.03698         252.168         49.9692 
        1.04314         249.764          49.293 
        1.04929         248.144          48.631 
        1.05541         248.621          47.984 
        1.06154         244.636         47.3472 
        1.06769         244.236         46.7212 
        1.07382         242.402         46.1086 
        1.07993         240.794         45.5085 
        1.08607         240.243         44.9167 
        1.09222         238.115         44.3349 
        1.09836         236.522         43.7642 
        1.10449         234.136         43.2043 
        1.11063         232.277         42.6536 
        1.11677          231.87         42.1129 
         1.1229         230.032         41.5825 
        1.12903         228.983         41.0608 
        1.13518         227.384         40.5478 
        1.14131         225.618         40.0438 
        1.14745         225.617         39.5488 
        1.15359         223.474         39.0621 
        1.15973         221.708         38.5834 
        1.16584         220.341          38.115 
        1.17197          220.24         37.6537 
        1.17811          217.56         37.1987 
        1.18424          216.43         36.7525 
        1.19038         215.789         36.3124 
        1.19652         213.937         35.8798 
        1.20267         213.704         35.4542 
        1.20881          211.64         35.0357 
        1.21495         210.456         34.6246 
        1.22108         209.107         34.2202 
         1.2272         207.686         33.8233 
        1.23334         207.085         33.4318 
        1.23949         205.295         33.0456 
        1.24562         204.526         32.6666 
        1.25174         203.051         32.2942 
        1.25789         201.666         31.9265 
        1.26402         199.957         31.5652 
        1.27014         198.806         31.2105 
        1.27628         197.906         30.8601 
        1.28244         197.842         30.5145 
        1.28858         195.644         30.1747 
        1.29471         194.346         29.8409 
        1.30084         193.519         29.5124 
        1.30697          192.01         29.1885 
        1.31312         190.609          28.869 
        1.31925         189.864         28.5553 
        1.32537         189.258         28.2466 
        1.33151         187.326         27.9413 
        1.33765         186.181         27.6408 
        1.34378         185.558         27.3454 
        1.34992         184.667         27.0541 
        1.35606         184.596         26.7664 
         1.3622         182.648         26.4834 
        1.36833         180.972         26.2053 
        1.37445         180.355         25.9312 
        1.38059         178.937         25.6603 
        1.38675         178.358         25.3927 
        1.39288          177.35         25.1299 
        1.39901         176.886          24.871 
        1.40515         175.042         24.6152 
         1.4113         174.208         24.3631 
        1.41742          172.94         24.1155 
        1.42355          172.18         23.8709 
         1.4297         170.947          23.629 
        1.43585         170.172         23.3905 
        1.44198         169.326         23.1563 
        1.44809         168.574         22.9257 
        1.45423         167.693         22.6974 
        1.46036          166.49         22.4727 
        1.46649         165.303          22.251 
        1.47263          164.31          22.032 
        1.47877         163.433         21.8162 
        1.48491         161.915         21.6029 
        1.49104         161.908         21.3929 
        1.49718         160.269         21.1856 
        1.50333          159.63         20.9807 
        1.50947         158.837         20.7789 
         1.5156         157.776         20.5801 
        1.52172         157.001          20.384 
        1.52787         155.642           20.19 
          1.534         155.327         19.9988 
        1.54013         154.281         19.8102 
        1.54627          153.36         19.6238 
        1.55241         152.418         19.4398 
        1.55855         151.619         19.2583 
        1.56467         150.464         19.0798 
         1.5708         149.764         18.9029 
        1.57695         149.228         18.7281 
        1.58308         148.387         18.5559 
        1.58922         147.636         18.3857 
        1.59535         146.384         18.2178 
         1.6015         145.992         18.0517 
        1.60764         145.064         17.8878 
        1.61376         144.158         17.7264 
        1.61989         143.361         17.5668 
        1.62604           142.3         17.4089 
        1.63218         141.969          17.253 
        1.63831         140.898         17.0994 
        1.64444         140.278         16.9476 
        1.65059         139.563         16.7974 
        1.65673         138.397         16.6491 
        1.66285         137.982          16.503 
        1.66898         136.996         16.3586 
        1.67512         136.661         16.2157 
        1.68127         135.477         16.0744 
         1.6874         134.576          15.935 
        1.69353         134.205         15.7975 
        1.69967         133.303         15.6612 
        1.70581         132.565         15.5266 
        1.71193         131.726         15.3941 
        1.71806         131.243         15.2628 
        1.72421          130.46         15.1329 
        1.73035         130.225         15.0046 
        1.73649         129.295         14.8778 
        1.74262         128.337         14.7526 
        1.74876         127.869         14.6288 
        1.75489         126.925         14.5067 
        1.76101         126.064         14.3859 
        1.76715         125.748         14.2664 
        1.77329         125.313         14.1482 
        1.77943         124.242         14.0312 
        1.78557         123.838         13.9157 
        1.79171         122.941         13.8015 
        1.79785         122.222         13.6886 
        1.80399         121.528         13.5769 
        1.81012         120.987         13.4667 
        1.81625         120.412         13.3577 
        1.82239         119.875         13.2498 
        1.82853         119.016         13.1431 
        1.83466         118.327         13.0377 
        1.84078          117.88         12.9336 
        1.84692         116.859         12.8305 
        1.85306         116.676         12.7283 
         1.8592         115.844         12.6275 
        1.86533          115.08         12.5278 
        1.87147         114.491          12.429 
        1.87761         113.776         12.3313 
        1.88375         113.054         12.2348 
        1.88988         112.602         12.1393 
        1.89601         112.007         12.0449 
        1.90215         111.415         11.9514 
        1.90829         110.827         11.8589 
        1.91442         110.292         11.7675 
        1.92056         109.528          11.677 
         1.9267         109.262         11.5875 
        1.93284         108.552         11.4988 
        1.93897         107.899         11.4112 
        1.94509         107.411         11.3247 
        1.95123         106.874         11.2389 
        1.95737         106.323         11.1539 
        1.96349         105.721         11.0701 
        1.96964         104.793         10.9868 
        1.97578         104.303         10.9044 
        1.98192         104.088          10.823 
        1.98805          103.26         10.7424 
        1.99419         102.939         10.6626 
        2.00033         102.206         10.5836 
        2.00647         101.889         10.5055 
         2.0126         101.146         10.4282 
        2.01874         100.544         10.3517 
        2.02488         100.229         10.2758 
        2.03101         99.4295         10.2008 
        2.03714         98.8805         10.1267 
        2.04328         98.5187         10.0532 
        2.04941         97.9025         9.98048 
        2.05554         97.3533         9.90855 
        2.06167         97.0168         9.83724 
        2.06781         96.2838         9.76662 
        2.07396         95.8979          9.6966 
        2.08009         95.5166         9.62739 
        2.08622         94.8475         9.55893 
        2.09237         94.4011           9.491 
        2.09851          93.881         9.42373 
        2.10464         93.5048         9.35722 
        2.11077         93.0232         9.29144 
        2.11691         92.6411         9.22614 
        2.12305         91.8797         9.16147 
        2.12918         91.3459         9.09758 
        2.13531         91.0423          9.0343 
        2.14145         90.2794         8.97147 
         2.1476         89.8359         8.90917 
        2.15372         89.5578         8.84777 
        2.15985         89.1134          8.7869 
        2.16599         88.4973         8.72642 
        2.17213         88.0598         8.66659 
        2.17827         87.6546         8.60732 
         2.1844         87.1162         8.54867 
        2.19054         86.8517         8.49055 
        2.19666         86.3657         8.43305 
         2.2028         85.8958         8.37603 
        2.20893          85.447         8.31952 
        2.21508         84.9928         8.26346 
        2.22122         84.5264         8.20791 
        2.22736         84.1154         8.15298 
        2.23349         83.7209         8.09857 
        2.23962         83.3294         8.04463 
        2.24577         82.9017         7.99113 
         2.2519         82.5223          7.9382 
        2.25802         81.9115         7.88583 
        2.26417         81.5566         7.83379 
        2.27031         81.1799         7.78217 
        2.27644         80.6741         7.73117 
        2.28257         80.2086         7.68063 
        2.28872         80.0002         7.63045 
        2.29486         79.3383         7.58073 
        2.30099         78.9567         7.53155 
        2.30712         78.7217         7.48279 
        2.31326         78.2646         7.43439 
         2.3194         77.8282         7.38644 
        2.32553         77.4833         7.33899 
        2.33166         77.1004         7.29198 
         2.3378         76.5553         7.24532 
        2.34394         76.1789         7.19906 
        2.35007         75.8595         7.15327 
        2.35619          75.498         7.10793 
        2.36233         75.0466         7.06288 
        2.36848         74.6562         7.01813 
        2.37462         74.1786         6.97386 
        2.38075         74.0018         6.93002 
        2.38689         73.5243         6.88652 
        2.39303          73.057          6.8434 
        2.39916         72.7844         6.80069 
        2.40529         72.5576         6.75836 
        2.41143          71.979         6.71635 
        2.41757         71.7725         6.67469 
         2.4237         71.4046         6.63345 
        2.42983         70.9664         6.59257 
        2.43598          70.608         6.55192 
        2.44211         70.3853         6.51169 
        2.44823         69.9433         6.47188 
        2.45437         69.4209          6.4323 
        2.46052         69.1958         6.39302 
        2.46665         68.9268         6.35414 
        2.47279         68.4787          6.3156 
        2.47892         68.1811         6.27734 
        2.48507         67.7705         6.23938 
         2.4912         67.5011          6.2018 
