# k  (h/Mpc)    Pcb(k)  (Mpc/h)^3    Pcb_linear(k)  (Mpc/h)^3
     0.00783031         7454.95         7488.57 
       0.013688         9568.18         9764.31 
       0.019231         10278.5         10398.9 
      0.0249154         10120.6         10126.2 
      0.0312784         9176.22         9267.16 
      0.0375637         8130.19         8265.34 
      0.0433917         7366.37            7421 
      0.0492413         6635.43         6738.58 
      0.0555754         6125.88         6183.81 
      0.0619321         5561.37          5761.6 
       0.067871         5296.51         5421.31 
      0.0738098         4986.48         5080.63 
      0.0800417         4616.33         4694.54 
      0.0862327          4193.8         4284.86 
      0.0921407         3819.31         3893.31 
      0.0982031         3493.59         3521.48 
       0.104506         3134.75         3192.84 
       0.110769         2896.35         2935.76 
       0.116806         2760.88         2748.72 
       0.122832            2588         2606.07 
       0.129052         2470.36         2483.85 
       0.135211         2389.56         2367.85 
       0.141259         2238.48         2245.83 
       0.147318          2080.3         2111.55 
       0.153489         1964.03         1966.66 
       0.159709         1867.32         1822.03 
       0.165845         1702.99         1690.92 
       0.171974          1650.9         1578.66 
       0.178125         1580.65         1487.27 
       0.184229         1467.45         1415.57 
        0.19034         1438.52         1357.46 
       0.196428         1395.22         1306.57 
       0.202534         1312.58         1256.54 
       0.208729         1288.35         1202.81 
       0.214876         1238.55         1145.41 
       0.220989         1162.59         1085.74 
       0.227147         1134.56         1026.06 
        0.23329         1089.82         970.235 
       0.239377         1069.34         921.007 
       0.245482         1015.62         878.719 
       0.251667         976.743          842.63 
       0.257832         965.997         811.813 
       0.263955         917.736         784.198 
       0.270079         890.979         757.531 
        0.27624          854.37           730.3 
       0.282372           838.7         702.248 
        0.28843         831.479         673.891 
       0.294538         789.924         645.505 
       0.300721         766.895         617.998 
        0.30691         754.039         592.585 
       0.313033         722.732          569.95 
       0.319153         711.414         549.829 
       0.325316         698.993         531.633 
        0.33145         684.797         514.974 
       0.337538         661.155         499.192 
       0.343633         642.621          483.66 
       0.349808         627.626         467.915 
       0.355968         616.077         452.209 
       0.362074         597.958         436.837 
       0.368217         593.718         421.857 
       0.374374          582.76          407.63 
       0.380519         560.534         394.372 
       0.386598         554.309         382.244 
       0.392688         543.178          370.98 
        0.39888         528.761         360.246 
       0.405048         520.546         350.078 
       0.411186         517.692         340.273 
       0.417313          511.13         330.682 
       0.423458           496.2         321.228 
       0.429607         484.228         311.944 
       0.435692         476.405         303.016 
       0.441815         469.139         294.374 
       0.447964         459.123         286.095 
       0.454126          453.28          278.23 
       0.460267         446.498         270.819 
       0.466387         439.681         263.798 
        0.47254          433.39          257.04 
       0.478662         423.305         250.559 
       0.484765         419.165         244.288 
       0.490885         414.791         238.152 
       0.497035         407.545         232.137 
       0.503198         406.043         226.282 
       0.509342          395.71         220.628 
       0.515458         390.473         215.197 
       0.521598         383.629         209.954 
       0.527764         378.343         204.908 
       0.533884         377.402         200.098 
           0.54         371.103         195.469 
       0.546137         363.296         190.979 
       0.552299         362.518         186.611 
       0.558452         356.778         182.377 
       0.564573         353.166         178.279 
       0.570708         348.341         174.281 
       0.576825         342.442         170.407 
       0.582926         339.395         166.662 
       0.589034         335.079         163.033 
       0.595184          332.93         159.499 
       0.601379         326.972         156.054 
       0.607522         321.638         152.746 
       0.613639         319.697         149.554 
       0.619772         317.919         146.449 
       0.625918         313.728         143.427 
       0.632068         308.637         140.486 
       0.638161         305.817         137.648 
         0.6443         304.005         134.865 
       0.650464         299.184         132.146 
       0.656582         296.621         129.523 
       0.662703         294.573         126.973 
       0.668861          289.68         124.482 
       0.675024         288.541         122.059 
       0.681124         285.182         119.727 
       0.687237         282.322         117.453 
       0.693381         279.739         115.227 
       0.699536         276.539         113.055 
       0.705665         273.714         110.947 
       0.711789         271.657         108.896 
       0.717957          268.41         106.883 
        0.72409         266.152         104.932 
       0.730186         266.855         103.043 
       0.736317         262.145          101.19 
       0.742472         258.867         99.3769 
       0.748622          255.61         97.6104 
        0.75476         256.236         95.8912 
       0.760888         253.103         94.2166 
       0.767043         250.086         92.5759 
       0.773185         248.442         90.9781 
       0.779291         244.811         89.4276 
       0.785407         243.857         87.9115 
       0.791564         241.436         86.4213 
       0.797719         238.088         84.9668 
       0.803834         239.208         83.5554 
       0.809972         236.924         82.1713 
       0.816124         233.793         80.8159 
       0.822261         231.351          79.495 
       0.828378          231.56         78.2079 
       0.834502         227.649         76.9485 
       0.840667         227.321         75.7089 
       0.846816         224.429         74.5004 
       0.852925         223.023         73.3262 
       0.859047         220.698          72.175 
       0.865192         220.376          71.045 
       0.871341         217.381         69.9387 
       0.877463         215.648         68.8612 
       0.883569         215.373         67.8093 
       0.889708         213.555         66.7742 
       0.895864         211.624         65.7583 
       0.902008         209.705         64.7659 
       0.908149          207.62         63.7947 
       0.914301         207.233          62.842 
       0.920448         205.997         61.9099 
       0.926574          203.64         61.0001 
       0.932687         202.738         60.1108 
       0.938823         201.211         59.2361 
       0.944975         199.436          58.377 
       0.951105         197.881         57.5381 
       0.957225          197.12         56.7174 
       0.963368         195.504           55.91 
       0.969511         193.149         55.1184 
       0.975621         192.103         54.3466 
       0.981748         190.663         53.5877 
       0.987916         189.821         52.8386 
        0.99406         188.445         52.1068 
        1.00019         187.215         51.3905 
        1.00632         186.419         50.6884 
        1.01246         184.911         49.9984 
        1.01859         183.288         49.3226 
        1.02471         181.942         48.6601 
        1.03085         180.939         48.0077 
        1.03698         179.507         47.3687 
        1.04314         178.968         46.7387 
        1.04929         178.008         46.1217 
        1.05541         176.644         45.5185 
        1.06154          175.54         44.9246 
        1.06769         173.853         44.3405 
        1.07382          173.22         43.7688 
        1.07993         171.985         43.2086 
        1.08607         170.517         42.6559 
        1.09222         169.826         42.1124 
        1.09836         168.519         41.5791 
        1.10449         167.127         41.0556 
        1.11063         166.209         40.5407 
        1.11677         165.476         40.0349 
         1.1229          164.07         39.5386 
        1.12903         163.536         39.0504 
        1.13518         162.362         38.5701 
        1.14131         161.381         38.0981 
        1.14745         160.115         37.6344 
        1.15359         158.554         37.1784 
        1.15973         158.144         36.7298 
        1.16584         157.329         36.2907 
        1.17197         156.417         35.8581 
        1.17811         154.992         35.4314 
        1.18424         154.208         35.0129 
        1.19038         153.479            34.6 
        1.19652         152.189         34.1939 
        1.20267         151.396         33.7944 
        1.20881         150.391         33.4014 
        1.21495         150.009         33.0154 
        1.22108         148.713         32.6355 
         1.2272         147.681         32.2626 
        1.23334         147.227         31.8946 
        1.23949         146.612         31.5316 
        1.24562         145.311         31.1753 
        1.25174         144.071          30.825 
        1.25789         143.744         30.4791 
        1.26402         143.036         30.1392 
        1.27014         142.096         29.8053 
        1.27628         140.456         29.4755 
        1.28244           140.3         29.1501 
        1.28858         139.179           28.83 
        1.29471         138.345         28.5155 
        1.30084         137.596         28.2061 
        1.30697         137.141         27.9008 
        1.31312          136.13         27.5995 
        1.31925         135.021         27.3037 
        1.32537         134.612         27.0126 
        1.33151         133.998         26.7247 
        1.33765           132.6         26.4412 
        1.34378          132.66         26.1623 
        1.34992         131.963         25.8873 
        1.35606         130.861         25.6157 
         1.3622         130.539         25.3485 
        1.36833          129.05         25.0858 
        1.37445         128.743         24.8269 
        1.38059         128.044         24.5709 
        1.38675         127.134          24.318 
        1.39288         126.485         24.0696 
        1.39901         125.405         23.8248 
        1.40515         125.173         23.5829 
         1.4113         124.485         23.3445 
        1.41742         123.495         23.1103 
        1.42355          123.08         22.8789 
         1.4297         122.189           22.65 
        1.43585         121.344         22.4243 
        1.44198         120.616         22.2026 
        1.44809         119.812         21.9843 
        1.45423         119.442         21.7681 
        1.46036          118.53         21.5553 
        1.46649         117.854         21.3452 
        1.47263         117.558         21.1378 
        1.47877         116.621         20.9333 
        1.48491         115.898         20.7312 
        1.49104         114.807         20.5321 
        1.49718         114.873         20.3356 
        1.50333         114.134         20.1413 
        1.50947         113.625           19.95 
         1.5156         112.939         19.7614 
        1.52172         112.176         19.5754 
        1.52787         111.495         19.3913 
          1.534         111.138         19.2098 
        1.54013         110.528         19.0309 
        1.54627           109.6         18.8539 
        1.55241         109.094         18.6792 
        1.55855         108.551         18.5069 
        1.56467         107.613         18.3373 
         1.5708         107.334         18.1693 
        1.57695         106.854         18.0032 
        1.58308         106.208         17.8396 
        1.58922         105.894         17.6778 
        1.59535         105.317         17.5182 
         1.6015         104.599         17.3603 
        1.60764          103.91         17.2045 
        1.61376           103.3          17.051 
        1.61989         102.721         16.8993 
        1.62604         102.223          16.749 
        1.63218         101.871         16.6007 
        1.63831         101.062         16.4546 
        1.64444         100.601         16.3102 
        1.65059          99.977         16.1671 
        1.65673         99.3673          16.026 
        1.66285         98.8268         15.8869 
        1.66898         98.2116         15.7494 
        1.67512          97.938         15.6133 
        1.68127         97.3502         15.4787 
         1.6874         96.7626          15.346 
        1.69353         96.1426          15.215 
        1.69967         95.9277         15.0851 
        1.70581         95.3715         14.9569 
        1.71193         94.7854         14.8306 
        1.71806         94.0416         14.7055 
        1.72421         93.7024         14.5816 
        1.73035         93.4696         14.4593 
        1.73649         92.7512         14.3385 
        1.74262         92.0753         14.2191 
        1.74876          91.709          14.101 
        1.75489         91.0756         13.9845 
        1.76101         90.5854         13.8693 
        1.76715         90.2197         13.7553 
        1.77329         89.6675         13.6424 
        1.77943         89.2736         13.5308 
        1.78557         88.9148         13.4206 
        1.79171         88.3665         13.3116 
        1.79785         87.7808         13.2037 
        1.80399         87.3988         13.0971 
        1.81012         86.8168         12.9919 
        1.81625         86.5869         12.8878 
        1.82239         86.2509         12.7847 
        1.82853         85.5104         12.6828 
        1.83466         85.0641         12.5821 
        1.84078         84.6911         12.4827 
        1.84692         84.3982         12.3841 
        1.85306         83.8794         12.2865 
         1.8592         83.4822         12.1901 
        1.86533         82.9672         12.0948 
        1.87147          82.454         12.0004 
        1.87761         81.9709         11.9069 
        1.88375         81.4636         11.8146 
        1.88988         81.0883         11.7234 
        1.89601         80.6703         11.6331 
        1.90215         80.1884         11.5436 
        1.90829         79.8664         11.4552 
        1.91442         79.5076         11.3676 
        1.92056         79.0328         11.2811 
         1.9267         78.6589         11.1954 
        1.93284         78.3572         11.1105 
        1.93897         77.9653         11.0267 
        1.94509          77.434         10.9439 
        1.95123          77.132         10.8618 
        1.95737         76.4951         10.7804 
        1.96349         76.2495         10.7001 
        1.96964         75.8635         10.6204 
        1.97578         75.3466         10.5414 
        1.98192         75.0089         10.4635 
        1.98805         74.5486         10.3863 
        1.99419         74.1251         10.3099 
        2.00033         73.7141         10.2342 
        2.00647         73.5074         10.1593 
         2.0126          73.055         10.0853 
        2.01874         72.7718         10.0119 
        2.02488         72.4254         9.93917 
        2.03101         72.0052         9.86731 
        2.03714         71.7965         9.79623 
        2.04328         71.2877         9.72577 
        2.04941         70.7088         9.65606 
        2.05554         70.6198         9.58709 
        2.06167         70.3162          9.5187 
        2.06781         69.6907         9.45097 
        2.07396         69.4238          9.3838 
        2.08009         69.1546         9.31741 
        2.08622         68.7136         9.25173 
        2.09237         68.3193         9.18656 
        2.09851          67.919         9.12201 
        2.10464         67.6772         9.05818 
        2.11077         67.3503         8.99505 
        2.11691         67.0162         8.93238 
        2.12305         66.5637          8.8703 
        2.12918         66.2332         8.80897 
        2.13531         65.9781         8.74821 
        2.14145         65.4903         8.68789 
         2.1476          65.261         8.62807 
        2.15372         64.9794         8.56911 
        2.15985         64.5661         8.51065 
        2.16599         64.1957         8.45257 
        2.17213          63.948         8.39509 
        2.17827         63.5494         8.33816 
         2.1844         63.2958         8.28182 
        2.19054         62.9581         8.22597 
        2.19666         62.5424         8.17073 
         2.2028         62.3709         8.11594 
        2.20893          61.929         8.06163 
        2.21508         61.5854         8.00775 
        2.22122          61.261         7.95435 
        2.22736         60.9488         7.90155 
        2.23349         60.7849         7.84925 
        2.23962         60.4324         7.79739 
        2.24577         60.1036         7.74595 
         2.2519         59.8075         7.69506 
        2.25802         59.5325          7.6447 
        2.26417         59.1715         7.59465 
        2.27031         58.8561         7.54501 
        2.27644         58.6239         7.49596 
        2.28257         58.3342         7.44734 
        2.28872         58.1289         7.39907 
        2.29486         57.8387         7.35124 
        2.30099         57.3736         7.30393 
        2.30712         57.2138         7.25701 
        2.31326         56.8992         7.21043 
         2.3194         56.5638         7.16429 
        2.32553         56.4219         7.11863 
        2.33166         55.9245         7.07338 
         2.3378         55.6762         7.02847 
        2.34394         55.4183         6.98394 
        2.35007         55.1254         6.93986 
        2.35619         54.9377         6.89621 
        2.36233         54.5383         6.85283 
        2.36848         54.3025         6.80974 
        2.37462         54.0307         6.76712 
        2.38075         53.8158         6.72489 
        2.38689          53.548           6.683 
        2.39303         53.3564         6.64147 
        2.39916          53.112         6.60033 
        2.40529         52.7456         6.55955 
        2.41143          52.491         6.51908 
        2.41757          52.207         6.47894 
         2.4237         52.0848         6.43921 
        2.42983         51.6519         6.39982 
        2.43598         51.3967         6.36065 
        2.44211          51.229         6.32188 
        2.44823         50.9573         6.28352 
        2.45437          50.699         6.24537 
        2.46052         50.3824         6.20751 
        2.46665         50.1561         6.17003 
        2.47279         49.9606         6.13287 
        2.47892         49.6708           6.096 
        2.48507         49.4673         6.05939 
         2.4912         49.1736         6.02316 
