# k  (h/Mpc)    P(k)  (Mpc/h)^3    P_linear(k)  (Mpc/h)^3
     0.00783031         13024.6         13208.8 
       0.013688         17245.2         17108.1 
       0.019231         18087.7         18089.3 
      0.0249154         17057.5         17453.4 
      0.0312784         15529.8         15765.7 
      0.0375637         13765.5         13848.5 
      0.0433917           11949         12252.3 
      0.0492413         10824.9         10981.4 
      0.0555754         9595.91         9979.77 
      0.0619321         9192.76         9262.66 
       0.067871          8394.8         8726.24 
      0.0738098         7883.92         8210.76 
      0.0800417         7207.05         7621.34 
      0.0862327         6668.62         6971.37 
      0.0921407         6148.29         6322.21 
      0.0982031         5506.37         5680.52 
       0.104506          5113.3         5094.33 
       0.110769          4667.1         4626.99 
       0.116806         4332.73         4289.62 
       0.122832         4106.67          4045.4 
       0.129052         3827.17         3857.23 
       0.135211         3669.95         3697.27 
       0.141259         3554.95         3535.08 
       0.147318          3391.8         3349.99 
       0.153489         3138.47         3136.05 
       0.159709          2977.6         2905.98 
       0.165845         2855.76         2683.05 
       0.171974         2673.18         2481.93 
       0.178125         2528.09         2313.11 
       0.184229         2409.28         2181.43 
        0.19034         2276.24         2081.04 
       0.196428         2239.95          2002.9 
       0.202534         2164.62         1934.99 
       0.208729         2081.75         1866.11 
       0.214876         2004.77         1790.78 
       0.220989         1945.86         1706.91 
       0.227147         1861.51         1615.95 
        0.23329         1788.15         1524.12 
       0.239377         1760.12            1438 
       0.245482         1649.81         1361.14 
       0.251667         1639.95         1295.41 
       0.257832         1576.55         1241.75 
       0.263955         1527.07         1197.76 
       0.270079         1478.78         1159.49 
        0.27624          1465.4         1123.03 
       0.282372            1405         1085.87 
        0.28843         1399.76         1046.88 
       0.294538         1333.11         1005.26 
       0.300721         1326.66         962.125 
        0.30691         1274.73         919.747 
       0.313033         1250.21         880.495 
       0.319153         1231.04         845.097 
       0.325316         1190.25         813.835 
        0.33145         1165.12         786.641 
       0.337538         1147.05          762.65 
       0.343633         1121.51         740.381 
       0.349808         1086.34          718.52 
       0.355968         1079.75         696.561 
       0.362074          1068.8         674.359 
       0.368217         1036.52         651.703 
       0.374374         999.077         629.123 
       0.380519         1000.16         607.336 
       0.386598         974.584         586.988 
       0.392688         971.146         568.162 
        0.39888         943.473         550.666 
       0.405048         932.558         534.694 
       0.411186         919.235         519.941 
       0.417313         900.359         505.926 
       0.423458         886.526         492.239 
       0.429607          873.81         478.722 
       0.435692         857.167         465.402 
       0.441815         851.439         452.126 
       0.447964         833.115         439.085 
       0.454126         824.807          426.46 
       0.460267          806.81         414.462 
       0.466387         797.234         403.196 
        0.47254         790.666          392.54 
       0.478662         784.084         382.526 
       0.484765         763.381         373.039 
       0.490885          758.68         363.896 
       0.497035         742.388         354.959 
       0.503198         738.196         346.184 
       0.509342         729.949         337.614 
       0.515458         726.203         329.265 
       0.521598         709.566         321.092 
       0.527764         695.319         313.147 
       0.533884         695.118          305.57 
           0.54          687.36         298.327 
       0.546137         682.393         291.363 
       0.552299         672.687         284.654 
       0.558452         668.306         278.212 
       0.564573         658.829         272.018 
       0.570708         652.399         265.987 
       0.576825         634.549         260.119 
       0.582926         637.684         254.401 
       0.589034         631.631         248.821 
       0.595184         625.542          243.36 
       0.601379         617.401         238.026 
       0.607522         608.908         232.903 
       0.613639         609.716         227.967 
       0.619772         595.188         223.183 
       0.625918         592.214         218.551 
       0.632068         584.965         214.064 
       0.638161         583.077         209.749 
         0.6443         571.911         205.518 
       0.650464          570.27         201.376 
       0.656582         567.186         197.366 
       0.662703          563.75         193.457 
       0.668861         553.875         189.629 
       0.675024         549.778         185.905 
       0.681124         546.553         182.323 
       0.687237         541.866         178.832 
       0.693381         535.217         175.421 
       0.699536         526.703         172.097 
       0.705665           526.7         168.876 
       0.711789         522.692         165.743 
       0.717957         518.046          162.67 
        0.72409         514.936         159.693 
       0.730186         508.031         156.808 
       0.736317         504.727         153.977 
       0.742472         502.463         151.205 
       0.748622         496.825         148.503 
        0.75476         489.922         145.872 
       0.760888         485.311         143.309 
       0.767043         485.651         140.799 
       0.773185         480.149         138.356 
       0.779291         475.484         135.986 
       0.785407         471.858         133.671 
       0.791564         466.632         131.396 
       0.797719         464.316         129.177 
       0.803834         460.308         127.024 
       0.809972         458.081         124.912 
       0.816124         457.427         122.844 
       0.822261         450.318         120.828 
       0.828378         448.187         118.863 
       0.834502         443.553         116.941 
       0.840667         439.765         115.049 
       0.846816         437.858         113.204 
       0.852925         433.961         111.412 
       0.859047         433.104         109.655 
       0.865192         427.946         107.931 
       0.871341         424.379         106.244 
       0.877463         423.298           104.6 
       0.883569         419.372         102.996 
       0.889708         416.736         101.418 
       0.895864         413.698         99.8693 
       0.902008         410.803         98.3565 
       0.908149         407.081         96.8761 
       0.914301         403.876          95.424 
       0.920448         401.419         94.0033 
       0.926574          395.86         92.6167 
       0.932687         396.071         91.2613 
       0.938823         391.556         89.9284 
       0.944975         391.779         88.6192 
       0.951105         386.665         87.3411 
       0.957225         384.172         86.0906 
       0.963368         380.405         84.8605 
       0.969511         378.787         83.6546 
       0.975621           376.1         82.4789 
       0.981748         374.815          81.323 
       0.987916         372.134         80.1821 
        0.99406         365.841         79.0676 
        1.00019         365.358         77.9767 
        1.00632         363.314         76.9076 
        1.01246         360.304         75.8571 
        1.01859         360.603         74.8282 
        1.02471         355.326         73.8197 
        1.03085         353.416         72.8265 
        1.03698         352.266         71.8539 
        1.04314         348.812          70.895 
        1.04929         345.406         69.9561 
        1.05541         345.875         69.0381 
        1.06154          340.49         68.1344 
        1.06769         339.081         67.2457 
        1.07382         337.133         66.3758 
        1.07993         334.947         65.5235 
        1.08607         333.817         64.6827 
        1.09222         330.738          63.856 
        1.09836         328.538         63.0448 
        1.10449         325.347         62.2487 
        1.11063         322.263         61.4655 
        1.11677         322.401         60.6962 
         1.1229         320.295         59.9415 
        1.12903         317.531         59.1991 
        1.13518          314.69         58.4687 
        1.14131         313.301         57.7511 
        1.14745         311.388         57.0461 
        1.15359         309.203         56.3527 
        1.15973         307.315         55.6707 
        1.16584         305.035         55.0031 
        1.17197         304.556         54.3456 
        1.17811         301.305         53.6969 
        1.18424         298.924         53.0608 
        1.19038         297.645         52.4331 
        1.19652         295.383          51.816 
        1.20267         294.406         51.2088 
        1.20881          292.57         50.6116 
        1.21495         290.084         50.0249 
        1.22108         288.579         49.4476 
         1.2272         286.553         48.8809 
        1.23334         284.637         48.3218 
        1.23949         283.142         47.7702 
        1.24562         281.736         47.2289 
        1.25174         279.098         46.6968 
        1.25789         276.976         46.1713 
        1.26402         275.352         45.6549 
        1.27014         273.505         45.1477 
        1.27628         272.094         44.6468 
        1.28244         271.564         44.1525 
        1.28858         268.585         43.6664 
        1.29471         266.481         43.1888 
        1.30084           265.4         42.7189 
        1.30697         263.588         42.2552 
        1.31312         260.958         41.7978 
        1.31925          260.74         41.3487 
        1.32537           259.4         40.9067 
        1.33151         256.669         40.4696 
        1.33765         254.936         40.0391 
        1.34378         254.063         39.6158 
        1.34992          252.46         39.1984 
        1.35606         251.795         38.7861 
         1.3622         249.598         38.3805 
        1.36833         247.488         37.9817 
        1.37445         246.376         37.5888 
        1.38059         244.108         37.2003 
        1.38675         243.281         36.8163 
        1.39288         241.544         36.4394 
        1.39901         240.848         36.0679 
        1.40515         238.883         35.7008 
         1.4113         237.471         35.3389 
        1.41742         235.757         34.9835 
        1.42355         234.311         34.6323 
         1.4297         232.651          34.285 
        1.43585         231.374         33.9425 
        1.44198         230.099         33.6061 
        1.44809         228.875         33.2749 
        1.45423         227.146          32.947 
        1.46036         226.147          32.624 
        1.46649          224.16         32.3054 
        1.47263          222.78         31.9907 
        1.47877         221.606         31.6804 
        1.48491         219.946         31.3738 
        1.49104         219.075         31.0719 
        1.49718         217.113         30.7737 
        1.50333         216.273         30.4791 
        1.50947         214.988         30.1889 
         1.5156         212.974         29.9029 
        1.52172         212.298         29.6207 
        1.52787         210.631         29.3415 
          1.534         209.932         29.0663 
        1.54013         207.958          28.795 
        1.54627         207.249         28.5266 
        1.55241         205.593         28.2616 
        1.55855         204.357         28.0004 
        1.56467         203.073         27.7432 
         1.5708           202.7         27.4886 
        1.57695         200.797         27.2367 
        1.58308         199.809         26.9886 
        1.58922         197.809         26.7435 
        1.59535          196.52         26.5015 
         1.6015         196.165         26.2621 
        1.60764         194.666         26.0259 
        1.61376         193.273         25.7932 
        1.61989         192.356         25.5632 
        1.62604         191.271         25.3354 
        1.63218         190.076         25.1107 
        1.63831         188.798         24.8891 
        1.64444         188.007         24.6702 
        1.65059         186.446         24.4534 
        1.65673         185.387         24.2395 
        1.66285         184.398         24.0287 
        1.66898         183.043         23.8204 
        1.67512         182.747         23.6141 
        1.68127         180.531         23.4101 
         1.6874         179.727          23.209 
        1.69353         178.772         23.0104 
        1.69967         177.442         22.8136 
        1.70581         176.628         22.6193 
        1.71193         175.329         22.4279 
        1.71806         174.797         22.2384 
        1.72421          173.31         22.0507 
        1.73035         172.689         21.8654 
        1.73649         171.659         21.6822 
        1.74262         170.419         21.5013 
        1.74876         169.517         21.3224 
        1.75489         168.301         21.1459 
        1.76101         167.226         20.9714 
        1.76715         166.571         20.7987 
        1.77329         165.719         20.6277 
        1.77943         164.674         20.4586 
        1.78557          163.75         20.2916 
        1.79171         162.714         20.1265 
        1.79785         161.542         19.9632 
        1.80399          160.59         19.8017 
        1.81012          159.63         19.6422 
        1.81625         158.991         19.4846 
        1.82239         157.832         19.3285 
        1.82853         157.247         19.1741 
        1.83466         155.998         19.0217 
        1.84078         155.411          18.871 
        1.84692         153.779         18.7217 
        1.85306         153.656         18.5739 
         1.8592         152.397         18.4279 
        1.86533         151.538         18.2835 
        1.87147         150.404         18.1406 
        1.87761         149.982         17.9991 
        1.88375         148.348         17.8593 
        1.88988         147.691         17.7211 
        1.89601         147.121         17.5844 
        1.90215         145.998         17.4489 
        1.90829          145.38          17.315 
        1.91442         144.466         17.1825 
        1.92056         143.742         17.0515 
         1.9267         142.879         16.9217 
        1.93284         142.023         16.7932 
        1.93897         141.149         16.6662 
        1.94509         140.477         16.5409 
        1.95123         139.812         16.4165 
        1.95737         139.083         16.2934 
        1.96349         138.208         16.1718 
        1.96964         137.061         16.0511 
        1.97578         136.278         15.9316 
        1.98192         135.719         15.8136 
        1.98805         134.691         15.6967 
        1.99419         134.027          15.581 
        2.00033         133.268         15.4665 
        2.00647         132.725         15.3531 
         2.0126         131.398         15.2411 
        2.01874         131.043           15.13 
        2.02488         130.454         15.0199 
        2.03101         129.218         14.9111 
        2.03714         128.743         14.8035 
        2.04328         127.915         14.6969 
        2.04941          127.28         14.5914 
        2.05554         126.422          14.487 
        2.06167         126.113         14.3835 
        2.06781         125.331          14.281 
        2.07396         124.298         14.1793 
        2.08009         123.871         14.0788 
        2.08622         122.973         13.9795 
        2.09237         122.206         13.8808 
        2.09851         121.641         13.7831 
        2.10464         121.196         13.6866 
        2.11077         120.401          13.591 
        2.11691         119.791         13.4962 
        2.12305         118.628         13.4022 
        2.12918         118.209         13.3094 
        2.13531         117.662         13.2175 
        2.14145         116.756         13.1262 
         2.1476         115.945         13.0357 
        2.15372         115.696         12.9465 
        2.15985         115.307          12.858 
        2.16599         114.244         12.7701 
        2.17213         113.617         12.6832 
        2.17827          113.11          12.597 
         2.1844         112.328         12.5118 
        2.19054         111.873         12.4273 
        2.19666         111.211         12.3437 
         2.2028         110.469         12.2608 
        2.20893         109.994         12.1787 
        2.21508         109.282         12.0971 
        2.22122         108.737         12.0164 
        2.22736         108.121         11.9365 
        2.23349         107.545         11.8574 
        2.23962         106.835         11.7789 
        2.24577         106.457         11.7011 
         2.2519         105.946         11.6241 
        2.25802         105.003         11.5479 
        2.26417         104.547         11.4722 
        2.27031         103.825         11.3971 
        2.27644         103.386         11.3229 
        2.28257         102.832         11.2494 
        2.28872         102.337         11.1764 
        2.29486         101.717          11.104 
        2.30099         101.219         11.0325 
        2.30712         100.642         10.9615 
        2.31326         99.9683          10.891 
         2.3194         99.4113         10.8212 
        2.32553          98.957         10.7522 
        2.33166         98.5173         10.6838 
         2.3378         98.0121         10.6158 
        2.34394          97.529         10.5485 
        2.35007         96.8093         10.4818 
        2.35619         96.3819         10.4158 
        2.36233         95.8401         10.3502 
        2.36848         95.2329          10.285 
        2.37462         94.8761         10.2206 
        2.38075         94.3113         10.1567 
        2.38689         93.7631         10.0933 
        2.39303         93.0517         10.0305 
        2.39916         92.7812         9.96834 
        2.40529         92.4147         9.90667 
        2.41143          91.834         9.84547 
        2.41757         91.3366         9.78477 
         2.4237         90.7317         9.72469 
        2.42983         90.1763         9.66513 
        2.43598         89.7015          9.6059 
        2.44211         89.4647         9.54728 
        2.44823          88.987         9.48927 
        2.45437         88.2946         9.43159 
        2.46052         87.7631         9.37434 
        2.46665         87.3926         9.31766 
        2.47279         86.9344         9.26148 
        2.47892         86.5269         9.20572 
        2.48507         85.9755         9.15037 
         2.4912         85.6616         9.09559 
