# k  (h/Mpc)    Pcb(k)  (Mpc/h)^3    Pcb_linear(k)  (Mpc/h)^3
     0.00783031         11995.9         12054.3 
       0.013688         14695.2         15055.6 
       0.019231         15161.6         15377.1 
      0.0249154         14357.7         14342.6 
      0.0312784           12441         12568.2 
      0.0375637           10674         10864.1 
      0.0433917         9540.36         9607.57 
      0.0492413         8561.97         8693.75 
      0.0555754         7921.44         7994.15 
      0.0619321         7155.41         7435.14 
       0.067871         6749.78         6918.09 
      0.0738098          6245.3          6347.2 
      0.0800417          5632.2         5698.17 
      0.0862327         4992.26         5059.06 
      0.0921407          4488.8         4515.35 
      0.0982031         4101.96         4065.16 
       0.104506         3704.44         3721.35 
       0.110769         3478.71         3482.11 
       0.116806         3354.37         3308.98 
       0.122832         3157.46          3152.2 
       0.129052         2982.45         2976.41 
       0.135211         2851.81         2776.74 
       0.141259         2615.68         2563.41 
       0.147318         2395.68         2351.13 
       0.153489         2242.61         2156.41 
       0.159709         2143.05         1995.48 
       0.165845         1968.72         1874.07 
       0.171974         1929.49         1783.12 
       0.178125         1869.29         1710.03 
       0.184229         1734.91         1642.56 
        0.19034         1701.12         1570.47 
       0.196428          1642.3         1490.33 
       0.202534         1530.56         1403.61 
       0.208729         1493.22         1315.06 
       0.214876         1422.58         1233.33 
       0.220989         1341.65         1162.89 
       0.227147         1308.71          1104.5 
        0.23329         1260.29         1057.28 
       0.239377         1249.29         1017.81 
       0.245482         1189.61         981.409 
       0.251667         1145.14         944.284 
       0.257832         1128.36         905.211 
       0.263955         1071.65         864.528 
       0.270079          1038.1         823.446 
        0.27624         993.818         783.835 
       0.282372          977.52          747.88 
        0.28843          964.72         716.588 
       0.294538         917.734         689.213 
       0.300721         896.617         664.789 
        0.30691         878.696         642.352 
       0.313033         842.364         620.852 
       0.319153         831.124         599.312 
       0.325316         819.014         577.302 
        0.33145         800.813         555.422 
       0.337538         772.539         534.254 
       0.343633         752.371         514.236 
       0.349808         736.013         495.525 
       0.355968         722.208         478.537 
       0.362074         698.375         463.163 
       0.368217         695.595         448.779 
       0.374374         684.443         435.057 
       0.380519         658.403         421.693 
       0.386598         652.751         408.653 
       0.392688         637.847         395.772 
        0.39888          621.69         382.967 
       0.405048         610.445         370.709 
       0.411186         608.617         359.145 
       0.417313         603.178         348.285 
       0.423458         584.797         338.087 
       0.429607         568.717         328.468 
       0.435692         561.904          319.39 
       0.441815         552.111         310.589 
       0.447964         542.315         302.002 
       0.454126         535.993         293.593 
       0.460267         527.417         285.433 
       0.466387         518.637         277.566 
        0.47254          510.62         269.954 
       0.478662          501.32         262.701 
       0.484765         495.737         255.808 
       0.490885         490.725         249.216 
       0.497035         480.782         242.865 
       0.503198         480.332         236.733 
       0.509342         469.898          230.82 
       0.515458         461.324         225.114 
       0.521598         456.169         219.546 
       0.527764         448.047         214.116 
       0.533884         445.256         208.898 
           0.54           439.9         203.867 
       0.546137         431.458         199.006 
       0.552299         430.325         194.304 
       0.558452         423.652         189.775 
       0.564573          419.68         185.422 
       0.570708         414.807         181.199 
       0.576825         406.796          177.12 
       0.582926          404.83         173.172 
       0.589034         398.536         169.332 
       0.595184         395.635         165.576 
       0.601379         389.257         161.906 
       0.607522         382.179          158.38 
       0.613639         380.919          154.98 
       0.619772         379.453         151.679 
       0.625918         372.366         148.474 
       0.632068         369.263         145.362 
       0.638161         366.014         142.367 
         0.6443         361.872         139.434 
       0.650464         357.452          136.57 
       0.656582         354.225         133.808 
       0.662703         351.662         131.121 
       0.668861         346.008         128.494 
       0.675024         344.141         125.938 
       0.681124         339.531         123.479 
       0.687237         337.558         121.083 
       0.693381         333.027         118.739 
       0.699536         331.221         116.455 
       0.705665         327.421          114.24 
       0.711789         325.491         112.086 
       0.717957          321.44         109.972 
        0.72409         317.742         107.926 
       0.730186         319.531         105.944 
       0.736317         313.664         104.002 
       0.742472         310.597         102.102 
       0.748622         307.507         100.252 
        0.75476         306.648          98.452 
       0.760888          303.17         96.6995 
       0.767043         300.139         94.9831 
       0.773185         298.501         93.3123 
       0.779291         294.223         91.6915 
       0.785407         293.064         90.1071 
       0.791564         290.449         88.5505 
       0.797719          285.81         87.0317 
       0.803834         287.979         85.5584 
       0.809972         283.603         84.1143 
       0.816124         280.128         82.7007 
       0.822261         277.993         81.3236 
       0.828378         277.224         79.9824 
       0.834502         273.228         78.6706 
       0.840667         273.336         77.3801 
       0.846816         268.251         76.1224 
       0.852925         268.439         74.9009 
       0.859047         265.823         73.7039 
       0.865192         265.056         72.5294 
       0.871341         261.385         71.3799 
       0.877463          259.45         70.2608 
       0.883569         258.397         69.1688 
       0.889708          255.96         68.0945 
       0.895864         253.654         67.0405 
       0.902008         251.811         66.0112 
       0.908149         249.762         65.0044 
       0.914301         248.328          64.017 
       0.920448         247.234         63.0513 
       0.926574         244.956          62.109 
       0.932687          243.86         61.1881 
       0.938823         241.399         60.2827 
       0.944975         240.629         59.3937 
       0.951105         238.025          58.526 
       0.957225         235.963         57.6771 
       0.963368         235.889         56.8424 
       0.969511         231.702         56.0242 
       0.975621         230.547         55.2267 
       0.981748         229.663         54.4428 
       0.987916         228.608         53.6692 
        0.99406         226.461         52.9137 
        1.00019          224.93         52.1743 
        1.00632         224.175         51.4497 
        1.01246         222.278          50.738 
        1.01859         219.963         50.0409 
        1.02471         218.389         49.3579 
        1.03085          217.28         48.6853 
        1.03698         216.132         48.0268 
        1.04314         215.632         47.3778 
        1.04929         214.058         46.7424 
        1.05541         212.283         46.1212 
        1.06154         210.537         45.5099 
        1.06769         209.012         44.9088 
        1.07382         208.498         44.3207 
        1.07993         206.084         43.7444 
        1.08607         205.054         43.1762 
        1.09222         203.649         42.6175 
        1.09836         202.963         42.0694 
        1.10449         201.176         41.5316 
        1.11063         199.802         41.0028 
        1.11677         198.656         40.4834 
         1.1229         197.504         39.9739 
        1.12903         196.206         39.4729 
        1.13518           194.8         38.9801 
        1.14131         194.022          38.496 
        1.14745         192.039         38.0204 
        1.15359         190.608         37.5529 
        1.15973         190.169          37.093 
        1.16584         189.179          36.643 
        1.17197         187.917         36.1998 
        1.17811         186.282         35.7626 
        1.18424         185.292          35.334 
        1.19038         184.211         34.9112 
        1.19652         182.462         34.4955 
        1.20267         181.676         34.0866 
        1.20881         180.332         33.6844 
        1.21495          180.14         33.2894 
        1.22108          178.65         32.9009 
         1.2272         177.065         32.5195 
        1.23334         176.366         32.1432 
        1.23949         175.684         31.7721 
        1.24562         174.304         31.4079 
        1.25174         173.299         31.0499 
        1.25789          171.81         30.6965 
        1.26402         171.636         30.3492 
        1.27014         170.706         30.0082 
        1.27628         168.863         29.6714 
        1.28244         168.123         29.3391 
        1.28858          167.02         29.0125 
        1.29471          166.17         28.6915 
        1.30084         165.068         28.3757 
        1.30697         163.839         28.0642 
        1.31312         162.978          27.757 
        1.31925         161.897         27.4554 
        1.32537         161.355         27.1586 
        1.33151         160.366         26.8651 
        1.33765         158.964         26.5761 
        1.34378         158.652          26.292 
        1.34992         157.586         26.0119 
        1.35606         156.629         25.7353 
         1.3622         155.964         25.4632 
        1.36833         154.348         25.1957 
        1.37445         154.341         24.9322 
        1.38059         152.881         24.6717 
        1.38675         152.075         24.4143 
        1.39288         150.973         24.1616 
        1.39901         150.202         23.9127 
        1.40515         149.634         23.6667 
         1.4113         148.469         23.4242 
        1.41742         147.404         23.1861 
        1.42355          147.42         22.9509 
         1.4297         145.936         22.7182 
        1.43585         145.303         22.4889 
        1.44198         143.813         22.2636 
        1.44809         143.353         22.0418 
        1.45423          142.81         21.8223 
        1.46036         141.699         21.6061 
        1.46649         140.856         21.3928 
        1.47263         140.332         21.1822 
        1.47877         139.148         20.9746 
        1.48491         138.467         20.7694 
        1.49104         137.012         20.5674 
        1.49718         136.887         20.3679 
        1.50333         136.234         20.1708 
        1.50947         135.286         19.9768 
         1.5156         134.342         19.7855 
        1.52172         133.789         19.5968 
        1.52787         133.081         19.4102 
          1.534         132.256         19.2262 
        1.54013         131.519         19.0448 
        1.54627          130.64         18.8655 
        1.55241         130.232         18.6884 
        1.55855         129.529         18.5139 
        1.56467         128.595         18.3421 
         1.5708         127.504         18.1719 
        1.57695         127.192         18.0037 
        1.58308         126.244         17.8381 
        1.58922         126.008         17.6744 
        1.59535         125.232         17.5128 
         1.6015         124.159          17.353 
        1.60764         123.406         17.1953 
        1.61376         122.809           17.04 
        1.61989          122.28         16.8865 
        1.62604         121.339         16.7346 
        1.63218         120.858         16.5846 
        1.63831         120.046         16.4368 
        1.64444         119.283         16.2908 
        1.65059         118.646         16.1462 
        1.65673         118.317         16.0035 
        1.66285         117.772         15.8629 
        1.66898         116.752          15.724 
        1.67512         116.159         15.5865 
        1.68127         115.634         15.4505 
         1.6874         114.612         15.3164 
        1.69353         114.258          15.184 
        1.69967         113.454         15.0529 
        1.70581         113.183         14.9234 
        1.71193         112.278         14.7959 
        1.71806         111.501         14.6696 
        1.72421         111.066         14.5445 
        1.73035         110.461         14.4211 
        1.73649         109.623         14.2991 
        1.74262         109.381         14.1786 
        1.74876          108.48         14.0594 
        1.75489         108.107         13.9419 
        1.76101         107.408         13.8257 
        1.76715         106.583         13.7108 
        1.77329         106.205         13.5969 
        1.77943         105.436         13.4844 
        1.78557         105.152         13.3732 
        1.79171          104.56         13.2633 
        1.79785           103.6         13.1546 
        1.80399         103.403         13.0472 
        1.81012         102.454         12.9411 
        1.81625         102.138         12.8363 
        1.82239         101.622         12.7324 
        1.82853         101.027         12.6298 
        1.83466         100.269         12.5284 
        1.84078         99.9942         12.4282 
        1.84692          99.669         12.3289 
        1.85306         98.9071         12.2306 
         1.8592           98.49         12.1336 
        1.86533         97.7046         12.0376 
        1.87147         97.4587         11.9426 
        1.87761         96.5356         11.8486 
        1.88375          96.052         11.7557 
        1.88988         95.3579         11.6639 
        1.89601         95.3256          11.573 
        1.90215          94.743          11.483 
        1.90829         93.9472         11.3941 
        1.91442         93.4231          11.306 
        1.92056         93.0662          11.219 
         1.9267         92.4905         11.1328 
        1.93284         91.9939         11.0474 
        1.93897         91.6116         10.9632 
        1.94509         90.9996         10.8799 
        1.95123         90.5186         10.7974 
        1.95737         90.2991         10.7156 
        1.96349          89.727         10.6349 
        1.96964         89.1734         10.5548 
        1.97578         88.5609         10.4755 
        1.98192         88.2163         10.3971 
        1.98805          87.611         10.3196 
        1.99419          87.284         10.2428 
        2.00033         86.6157         10.1668 
        2.00647         86.2715         10.0916 
         2.0126          85.824         10.0172 
        2.01874         85.6897         9.94355 
        2.02488          84.869         9.87054 
        2.03101         84.4804         9.79839 
        2.03714         84.0442         9.72704 
        2.04328         83.7636         9.65632 
        2.04941         83.3592         9.58635 
        2.05554          82.748         9.51714 
        2.06167         82.1206         9.44851 
        2.06781         81.7046         9.38055 
        2.07396         81.3645         9.31317 
        2.08009         80.7447         9.24656 
        2.08622         80.6175         9.18069 
        2.09237         80.1944         9.11532 
        2.09851         79.4603         9.05059 
        2.10464          79.358         8.98659 
        2.11077         78.9258         8.92329 
        2.11691         78.5883         8.86046 
        2.12305         78.0449         8.79823 
        2.12918         77.6405         8.73675 
        2.13531          77.158         8.67585 
        2.14145         76.7382          8.6154 
         2.1476         76.5162         8.55545 
        2.15372         75.9402         8.49638 
        2.15985         75.5225          8.4378 
        2.16599         75.1964         8.37961 
        2.17213         74.7891         8.32204 
        2.17827         74.2264         8.26502 
         2.1844         73.9283         8.20858 
        2.19054         73.5958         8.15266 
        2.19666         73.3032         8.09733 
         2.2028         72.8131         8.04247 
        2.20893         72.4767         7.98809 
        2.21508         72.0246         7.93416 
        2.22122         71.5916          7.8807 
        2.22736         71.3402         7.82785 
        2.23349         70.8756         7.77549 
        2.23962         70.6186         7.72359 
        2.24577         70.2121         7.67212 
         2.2519         69.8305         7.62119 
        2.25802         69.4072          7.5708 
        2.26417         69.0427         7.52073 
        2.27031          68.698         7.47107 
        2.27644         68.3701           7.422 
        2.28257         68.0395         7.37338 
        2.28872         67.6224          7.3251 
        2.29486         67.4013         7.27726 
        2.30099          66.903         7.22995 
        2.30712         66.6715         7.18304 
        2.31326         66.3961         7.13646 
         2.3194         65.9384         7.09033 
        2.32553         65.5616         7.04468 
        2.33166          65.227         6.99946 
         2.3378         65.0326         6.95457 
        2.34394         64.6507         6.91006 
        2.35007          64.273         6.86601 
        2.35619         63.9831         6.82239 
        2.36233         63.6128         6.77905 
        2.36848         63.2678         6.73599 
        2.37462         62.9633          6.6934 
        2.38075         62.6526         6.65122 
        2.38689         62.2548         6.60937 
        2.39303         62.0183         6.56789 
        2.39916         61.6496         6.52681 
        2.40529         61.4268         6.48608 
        2.41143         61.1408         6.44567 
        2.41757         60.6634         6.40558 
         2.4237         60.4935         6.36591 
        2.42983         60.1404         6.32659 
        2.43598          59.872         6.28749 
        2.44211         59.4719         6.24878 
        2.44823            59.3         6.21049 
        2.45437         58.9162         6.17242 
        2.46052         58.5734         6.13463 
        2.46665         58.2368         6.09723 
        2.47279         58.0012         6.06015 
        2.47892         57.7809         6.02336 
        2.48507         57.3894         5.98683 
         2.4912         57.1349         5.95068 
