# k  (h/Mpc)    P(k)  (Mpc/h)^3    P_linear(k)  (Mpc/h)^3
     0.00783031         715.412         721.213 
       0.013688         940.034         949.766 
       0.019231         1012.71         1017.28 
      0.0249154         995.398         996.226 
      0.0312784         916.611         918.411 
      0.0375637          823.38         825.895 
      0.0433917         747.908         747.262 
      0.0492413         681.798          683.05 
      0.0555754         630.748         629.772 
      0.0619321         583.356         587.745 
       0.067871         551.305         552.618 
      0.0738098         516.121         516.939 
      0.0800417         477.064         476.885 
      0.0862327          434.52         435.302 
      0.0921407         395.657         396.476 
      0.0982031         360.796         360.339 
       0.104506         327.519          328.85 
       0.110769         303.318         304.287 
       0.116806         286.968         286.109 
       0.122832         270.966         271.643 
       0.129052         258.693          258.52 
       0.135211         246.526         245.604 
       0.141259         232.055         232.076 
       0.147318         216.556         217.632 
       0.153489         202.553         202.638 
       0.159709         188.962          188.21 
       0.165845         174.672         175.504 
       0.171974         166.082         164.798 
       0.178125         157.362         156.055 
       0.184229         149.375         148.989 
        0.19034         144.337         142.934 
       0.196428         138.552         137.312 
       0.202534         131.608         131.622 
       0.208729         126.647         125.572 
       0.214876         121.145         119.331 
       0.220989         113.526         113.112 
       0.227147         109.167         107.127 
        0.23329         103.992         101.685 
       0.239377         99.5405         96.9473 
       0.245482         95.1081          92.846 
       0.251667         91.0387         89.2367 
       0.257832         88.6662         86.0043 
       0.263955         84.9096         82.9705 
       0.270079         81.9399         79.9707 
        0.27624         78.4366         76.9239 
       0.282372         75.5877         73.8671 
        0.28843         73.5569         70.8835 
       0.294538         70.4471         67.9924 
       0.300721         67.3011         65.2587 
        0.30691          65.474         62.7582 
       0.313033         63.0032         60.5169 
       0.319153         61.6478         58.4783 
       0.325316         58.8878         56.5745 
        0.33145         57.0554         54.7748 
       0.337538         55.4698         53.0384 
       0.343633         53.9155          51.327 
       0.349808         52.1012          49.618 
       0.355968         50.3867         47.9507 
       0.362074          49.175         46.3574 
       0.368217         47.6148         44.8322 
       0.374374         46.5786         43.3958 
       0.380519         44.7109         42.0541 
       0.386598         43.3796         40.8101 
       0.392688         42.1489         39.6329 
        0.39888         41.2399         38.4891 
       0.405048         40.2099         37.3901 
       0.411186         39.1027         36.3269 
       0.417313         38.0513         35.2921 
       0.423458         36.8859         34.2839 
       0.429607         36.2127         33.3084 
       0.435692           35.46         32.3805 
       0.441815         34.2077         31.4883 
       0.447964         33.2088         30.6344 
       0.454126         32.6188         29.8182 
       0.460267         32.1825          29.041 
       0.466387         31.2428         28.2972 
        0.47254         30.6904         27.5751 
       0.478662         29.8322         26.8791 
       0.484765         29.1793         26.2063 
       0.490885         28.3741         25.5515 
       0.497035         27.7537         24.9139 
       0.503198         27.1802         24.2968 
       0.509342          26.469         23.7039 
       0.515458         26.0835         23.1354 
       0.521598         25.4982         22.5857 
       0.527764         25.1264         22.0537 
       0.533884         24.4099         21.5441 
           0.54         23.9681         21.0515 
       0.546137         23.2895         20.5722 
       0.552299         22.8953         20.1053 
       0.558452         22.4376          19.653 
       0.564573          22.119         19.2165 
       0.570708         21.6148         18.7922 
       0.576825         21.2363         18.3822 
       0.582926         20.8171          17.986 
       0.589034         20.4474         17.6018 
       0.595184         20.1685          17.227 
       0.601379         19.6434         16.8612 
       0.607522         19.3207         16.5093 
       0.613639         18.9105         16.1688 
       0.619772         18.6478         15.8371 
       0.625918         18.2642          15.514 
       0.632068         18.0579         15.1998 
       0.638161         17.7017         14.8971 
         0.6443         17.3843         14.6006 
       0.650464         16.9753         14.3112 
       0.656582          16.858          14.032 
       0.662703         16.6222         13.7603 
       0.668861         16.1813         13.4945 
       0.675024         15.9539         13.2357 
       0.681124         15.8933         12.9865 
       0.687237         15.5495         12.7433 
       0.693381         15.1667         12.5052 
       0.699536         15.0929         12.2729 
       0.705665          14.819         12.0474 
       0.711789         14.5236         11.8279 
       0.717957         14.2453         11.6125 
        0.72409         14.1117         11.4037 
       0.730186         13.9964         11.2014 
       0.736317         13.7064         11.0031 
       0.742472         13.5348         10.8089 
       0.748622         13.3351         10.6197 
        0.75476         13.0138         10.4355 
       0.760888         12.9252          10.256 
       0.767043          12.662         10.0801 
       0.773185         12.5182         9.90872 
       0.779291         12.4504         9.74235 
       0.785407         12.2064         9.57962 
       0.791564         12.0717         9.41964 
       0.797719         11.8456         9.26345 
       0.803834         11.7418         9.11186 
       0.809972         11.5373         8.96317 
       0.816124         11.4024         8.81753 
       0.822261          11.262         8.67558 
       0.828378         11.0972         8.53723 
       0.834502         10.9802         8.40182 
       0.840667         10.8722         8.26852 
       0.846816         10.6632         8.13852 
       0.852925         10.5545         8.01218 
       0.859047         10.4272         7.88829 
       0.865192         10.2874         7.76664 
       0.871341         10.1418         7.64752 
       0.877463         10.0275         7.53146 
       0.883569         9.92927         7.41814 
       0.889708         9.79038         7.30661 
       0.895864         9.66978         7.19711 
       0.902008         9.53757         7.09011 
       0.908149         9.42093         6.98538 
       0.914301          9.3455         6.88262 
       0.920448         9.21833         6.78205 
       0.926574         9.16882         6.68388 
       0.932687         9.01852         6.58788 
       0.938823         8.88814         6.49345 
       0.944975         8.81701         6.40067 
       0.951105         8.68193         6.31007 
       0.957225         8.62624          6.2214 
       0.963368         8.53632         6.13415 
       0.969511         8.43897          6.0486 
       0.975621         8.33536         5.96516 
       0.981748         8.19756         5.88311 
       0.987916          8.1335          5.8021 
        0.99406         8.08856         5.72295 
        1.00019         7.99954         5.64544 
        1.00632         7.92087         5.56947 
        1.01246         7.81268          5.4948 
        1.01859         7.73101         5.42163 
        1.02471         7.62102         5.34991 
        1.03085         7.58938         5.27925 
        1.03698         7.50843         5.21004 
        1.04314         7.43834         5.14179 
        1.04929         7.33376         5.07494 
        1.05541         7.26865         5.00956 
        1.06154         7.20998         4.94518 
        1.06769         7.17791         4.88186 
        1.07382         7.05413         4.81986 
        1.07993         6.97461          4.7591 
        1.08607          6.9399         4.69914 
        1.09222         6.84673         4.64017 
        1.09836         6.83556         4.58229 
        1.10449         6.69426         4.52547 
        1.11063         6.66815         4.46957 
        1.11677         6.61302         4.41464 
         1.1229         6.54269         4.36074 
        1.12903         6.50181          4.3077 
        1.13518         6.40454         4.25551 
        1.14131         6.35191         4.20422 
        1.14745          6.2801         4.15382 
        1.15359         6.23526         4.10424 
        1.15973         6.17383         4.05546 
        1.16584         6.12313          4.0077 
        1.17197         6.06241         3.96065 
        1.17811         6.00685         3.91422 
        1.18424         5.95489         3.86868 
        1.19038         5.90523         3.82374 
        1.19652         5.86724         3.77954 
        1.20267         5.81723         3.73604 
        1.20881         5.75914         3.69324 
        1.21495         5.71066          3.6512 
        1.22108         5.66926         3.60982 
         1.2272         5.59721         3.56918 
        1.23334         5.58977         3.52909 
        1.23949         5.52485         3.48952 
        1.24562         5.48062         3.45068 
        1.25174         5.44262         3.41249 
        1.25789         5.37257         3.37477 
        1.26402         5.33213          3.3377 
        1.27014         5.29509         3.30128 
        1.27628         5.24375          3.2653 
        1.28244         5.21798         3.22979 
        1.28858         5.18097         3.19486 
        1.29471         5.11355         3.16054 
        1.30084         5.07618         3.12676 
        1.30697         5.04947         3.09342 
        1.31312         5.00883         3.06053 
        1.31925         4.96778         3.02822 
        1.32537         4.93681         2.99642 
        1.33151         4.88826         2.96496 
        1.33765         4.85495         2.93398 
        1.34378         4.82619         2.90351 
        1.34992         4.78761         2.87345 
        1.35606          4.7515         2.84376 
         1.3622         4.71892         2.81454 
        1.36833         4.67029         2.78581 
        1.37445         4.63234         2.75749 
        1.38059         4.60426         2.72949 
        1.38675         4.56924         2.70181 
        1.39288          4.5463         2.67463 
        1.39901         4.49791         2.64784 
        1.40515         4.46982         2.62136 
         1.4113         4.44307         2.59526 
        1.41742         4.40232         2.56961 
        1.42355         4.36858         2.54427 
         1.4297         4.34971         2.51919 
        1.43585         4.31523         2.49447 
        1.44198         4.28408         2.47018 
        1.44809         4.26233         2.44626 
        1.45423         4.23222         2.42257 
        1.46036         4.20198         2.39923 
        1.46649         4.15579         2.37621 
        1.47263         4.14699         2.35347 
        1.47877         4.11965         2.33103 
        1.48491          4.0833         2.30886 
        1.49104         4.05835         2.28703 
        1.49718         4.03313         2.26547 
        1.50333          4.0027         2.24415 
        1.50947         3.97311         2.22315 
         1.5156         3.95247         2.20246 
        1.52172         3.92853         2.18203 
        1.52787         3.90217         2.16182 
          1.534         3.87918          2.1419 
        1.54013         3.84754         2.12224 
        1.54627         3.82377         2.10281 
        1.55241         3.79342         2.08361 
        1.55855         3.77704         2.06468 
        1.56467         3.75211         2.04605 
         1.5708         3.72746         2.02759 
        1.57695         3.69439         2.00933 
        1.58308         3.67046         1.99134 
        1.58922         3.66397         1.97357 
        1.59535         3.62986         1.95601 
         1.6015         3.60223         1.93865 
        1.60764         3.58672         1.92151 
        1.61376         3.56027         1.90463 
        1.61989         3.53805         1.88793 
        1.62604         3.51376          1.8714 
        1.63218         3.50314         1.85508 
        1.63831         3.48419           1.839 
        1.64444         3.45817          1.8231 
        1.65059         3.44334         1.80735 
        1.65673         3.41307         1.79181 
        1.66285         3.39415          1.7765 
        1.66898         3.37802         1.76136 
        1.67512         3.34877         1.74637 
        1.68127         3.32763         1.73154 
         1.6874         3.32531         1.71692 
        1.69353         3.28724         1.70247 
        1.69967         3.27514         1.68816 
        1.70581         3.26316         1.67403 
        1.71193         3.22938         1.66011 
        1.71806         3.21481         1.64632 
        1.72421         3.20171         1.63266 
        1.73035         3.17719         1.61917 
        1.73649         3.16992         1.60584 
        1.74262         3.14772         1.59267 
        1.74876         3.12657         1.57964 
        1.75489         3.11368         1.56678 
        1.76101         3.08964         1.55408 
        1.76715         3.07903         1.54149 
        1.77329         3.05747         1.52904 
        1.77943         3.04264         1.51671 
        1.78557         3.02695         1.50454 
        1.79171         3.01488         1.49251 
        1.79785         2.99434          1.4806 
        1.80399         2.97813         1.46883 
        1.81012         2.95856          1.4572 
        1.81625         2.93988          1.4457 
        1.82239         2.92764         1.43431 
        1.82853         2.91164         1.42306 
        1.83466          2.8899         1.41193 
        1.84078         2.87751         1.40093 
        1.84692         2.86385         1.39004 
        1.85306         2.85311         1.37925 
         1.8592         2.83504         1.36859 
        1.86533         2.81963         1.35805 
        1.87147         2.80435         1.34761 
        1.87761         2.79369         1.33728 
        1.88375         2.77723         1.32707 
        1.88988         2.76407         1.31697 
        1.89601          2.7447         1.30698 
        1.90215          2.7305         1.29708 
        1.90829          2.7233          1.2873 
        1.91442         2.70406         1.27761 
        1.92056         2.69588         1.26803 
         1.9267          2.6831         1.25854 
        1.93284         2.66668         1.24914 
        1.93897         2.64672         1.23986 
        1.94509         2.64352         1.23069 
        1.95123         2.62398          1.2216 
        1.95737          2.6149         1.21258 
        1.96349         2.60075         1.20369 
        1.96964         2.58858         1.19486 
        1.97578         2.57301         1.18611 
        1.98192         2.55751         1.17747 
        1.98805         2.55184         1.16891 
        1.99419         2.53574         1.16044 
        2.00033         2.52223         1.15205 
        2.00647         2.51569         1.14375 
         2.0126         2.50399         1.13554 
        2.01874         2.48942          1.1274 
        2.02488         2.47505         1.11934 
        2.03101         2.46606         1.11137 
        2.03714         2.45735         1.10348 
        2.04328         2.44141         1.09567 
        2.04941         2.43024         1.08793 
        2.05554         2.42083         1.08028 
        2.06167         2.40721         1.07269 
        2.06781         2.39569         1.06517 
        2.07396         2.38575         1.05771 
        2.08009         2.37686         1.05034 
        2.08622         2.36386         1.04305 
        2.09237          2.3567         1.03582 
        2.09851         2.33879         1.02865 
        2.10464          2.3379         1.02156 
        2.11077         2.32479         1.01455 
        2.11691         2.31031         1.00758 
        2.12305         2.30165         1.00069 
        2.12918         2.28829        0.993873 
        2.13531         2.27893        0.987122 
        2.14145         2.27049        0.980418 
         2.1476         2.25814        0.973769 
        2.15372         2.24585        0.967216 
        2.15985         2.23818        0.960717 
        2.16599         2.23243        0.954259 
        2.17213         2.22117        0.947869 
        2.17827         2.20832        0.941538 
         2.1844         2.19969        0.935272 
        2.19054         2.19097        0.929061 
        2.19666         2.18161        0.922915 
         2.2028         2.17021         0.91682 
        2.20893         2.16062        0.910778 
        2.21508         2.15521        0.904783 
        2.22122         2.14723        0.898841 
        2.22736         2.12955        0.892965 
        2.23349         2.12468        0.887143 
        2.23962         2.11695        0.881371 
        2.24577         2.10693        0.875645 
         2.2519         2.09587        0.869978 
        2.25802         2.09318        0.864371 
        2.26417         2.08157        0.858798 
        2.27031         2.07218        0.853269 
        2.27644          2.0653        0.847806 
        2.28257         2.05087        0.842391 
        2.28872         2.04795        0.837013 
        2.29486         2.03797        0.831684 
        2.30099         2.02696        0.826412 
        2.30712         2.02399        0.821184 
        2.31326         2.01421        0.815993 
         2.3194         2.00465         0.81085 
        2.32553         1.99852        0.805761 
        2.33166         1.99269        0.800717 
         2.3378         1.98238         0.79571 
        2.34394         1.97278        0.790745 
        2.35007         1.96131        0.785829 
        2.35619          1.9583        0.780961 
        2.36233         1.94831        0.776124 
        2.36848         1.94309        0.771317 
        2.37462         1.93658        0.766562 
        2.38075          1.9255        0.761852 
        2.38689         1.92117        0.757177 
        2.39303         1.91433        0.752543 
        2.39916         1.90227        0.747952 
        2.40529         1.89956        0.743401 
        2.41143          1.8895        0.738884 
        2.41757          1.8842        0.734403 
         2.4237         1.87719        0.729968 
        2.42983         1.86643         0.72557 
        2.43598         1.86334        0.721197 
        2.44211         1.85424        0.716867 
        2.44823         1.84795        0.712583 
        2.45437         1.84186        0.708322 
        2.46052         1.83453        0.704093 
        2.46665         1.82807        0.699906 
        2.47279         1.81865        0.695755 
        2.47892         1.81284        0.691635 
        2.48507         1.80558        0.687545 
         2.4912         1.79911        0.683495 
