# k  (h/Mpc)    P(k)  (Mpc/h)^3    P_linear(k)  (Mpc/h)^3
     0.00783031           10252           10402 
       0.013688         13127.2         13046.5 
       0.019231         13463.8         13457.3 
      0.0249154         12487.4         12722.1 
      0.0312784         11206.6         11323.8 
      0.0375637          9886.6         9907.17 
      0.0433917         8654.73         8811.24 
      0.0492413         7902.67         7976.54 
      0.0555754         7100.91         7314.97 
      0.0619321         6776.57         6791.41 
       0.067871         6160.28         6331.88 
      0.0738098         5684.24         5845.66 
      0.0800417         5100.44         5298.64 
      0.0862327         4628.69         4750.19 
      0.0921407         4221.31         4266.41 
      0.0982031         3788.79         3846.12 
       0.104506         3551.37         3506.53 
       0.110769         3293.49         3258.47 
       0.116806         3092.72         3078.76 
       0.122832         2952.12         2927.37 
       0.129052         2744.86         2773.05 
       0.135211         2593.85         2606.27 
       0.141259         2465.03         2427.61 
       0.147318         2310.94          2243.5 
       0.153489         2117.98         2065.31 
       0.159709         1999.04         1908.28 
       0.165845         1918.25         1781.99 
       0.171974         1808.73         1683.29 
       0.178125         1724.66         1605.14 
       0.184229         1658.04         1538.93 
        0.19034         1557.71         1475.14 
       0.196428         1527.21         1408.19 
       0.202534         1470.76         1335.92 
       0.208729         1397.35         1259.48 
       0.214876         1328.15         1184.86 
       0.220989         1284.59         1116.29 
       0.227147         1221.56         1055.96 
        0.23329         1174.26          1005.3 
       0.239377         1153.26         963.238 
       0.245482         1080.05         926.627 
       0.251667         1072.38         892.276 
       0.257832         1032.02         858.319 
       0.263955          997.91         823.655 
       0.270079         962.957          788.05 
        0.27624          951.55          752.25 
       0.282372         910.596         718.032 
        0.28843         895.991          686.75 
       0.294538          851.88         658.435 
       0.300721         848.544         633.038 
        0.30691         811.236         610.336 
       0.313033         795.892          589.68 
       0.319153         776.754         569.971 
       0.325316         752.474         550.421 
        0.33145          733.04         531.018 
       0.337538         723.114         511.879 
       0.343633         702.037         493.172 
       0.349808         678.696         475.052 
       0.355968         674.273         458.138 
       0.362074         663.629         442.625 
       0.368217         644.901         428.236 
       0.374374         618.598         414.819 
       0.380519         616.192         402.151 
       0.386598         600.986         390.096 
       0.392688         598.457         378.312 
        0.39888         580.835         366.572 
       0.405048         570.435          355.16 
       0.411186         561.027         344.158 
       0.417313         550.416         333.637 
       0.423458         540.995         323.626 
       0.429607         531.252         314.149 
       0.435692         519.196         305.289 
       0.441815         515.601         296.816 
       0.447964          504.84         288.664 
       0.454126         492.993         280.779 
       0.460267         485.298         273.162 
       0.466387         479.983         265.781 
        0.47254         470.811         258.573 
       0.478662         469.578         251.644 
       0.484765         455.161         244.997 
       0.490885          450.97         238.598 
       0.497035         442.776         232.435 
       0.503198         436.342         226.523 
       0.509342         432.863         220.863 
       0.515458         428.799         215.428 
       0.521598         419.568         210.147 
       0.527764         411.617         205.008 
       0.533884         409.584         200.063 
           0.54         404.013         195.271 
       0.546137         402.417         190.612 
       0.552299         394.345         186.087 
       0.558452         392.064         181.728 
       0.564573         385.919         177.543 
       0.570708         379.866         173.492 
       0.576825         372.442         169.586 
       0.582926         370.748         165.811 
       0.589034         367.217         162.147 
       0.595184         363.706         158.568 
       0.601379         359.528          155.07 
       0.607522         353.791         151.703 
       0.613639          352.38         148.448 
       0.619772         343.718          145.28 
       0.625918         342.829           142.2 
       0.632068         337.731         139.212 
       0.638161         336.438         136.341 
         0.6443         330.385         133.533 
       0.650464         327.836         130.796 
       0.656582         326.424         128.156 
       0.662703         324.056         125.586 
       0.668861          318.24         123.072 
       0.675024         315.138         120.624 
       0.681124         313.566         118.267 
       0.687237         310.058          115.97 
       0.693381         305.653         113.724 
       0.699536          302.89         111.535 
       0.705665         300.826         109.414 
       0.711789         297.976         107.351 
       0.717957         295.799         105.327 
        0.72409         292.834         103.368 
       0.730186         289.787          101.47 
       0.736317         286.878         99.6095 
       0.742472         285.634         97.7892 
       0.748622         282.899         96.0163 
        0.75476         280.347         94.2915 
       0.760888         276.857         92.6121 
       0.767043         276.921         90.9674 
       0.773185         273.267         89.3664 
       0.779291         268.772         87.8135 
       0.785407         268.079         86.2957 
       0.791564         265.199         84.8045 
       0.797719          262.81         83.3495 
       0.803834         261.134         81.9382 
       0.809972         259.356         80.5547 
       0.816124         259.407         79.2003 
       0.822261         255.183          77.881 
       0.828378         253.461         76.5958 
       0.834502         252.788         75.3388 
       0.840667         248.983          74.102 
       0.846816         247.673         72.8967 
       0.852925         246.197         71.7261 
       0.859047         244.303         70.5788 
       0.865192         242.025         69.4531 
       0.871341         239.901         68.3514 
       0.877463         238.332         67.2787 
       0.883569         237.089          66.232 
       0.889708         234.842         65.2024 
       0.895864         231.985         64.1921 
       0.902008         231.414         63.2056 
       0.908149         230.318         62.2405 
       0.914301         227.388         61.2941 
       0.920448         225.697         60.3685 
       0.926574         224.388         59.4653 
       0.932687         224.187         58.5826 
       0.938823         221.453         57.7149 
       0.944975         219.908         56.8628 
       0.951105         218.809         56.0311 
       0.957225         216.665         55.2175 
       0.963368         214.162         54.4175 
       0.969511         213.286         53.6333 
       0.975621         211.508          52.869 
       0.981748         211.622         52.1176 
       0.987916         209.129         51.3762 
        0.99406          207.17         50.6521 
        1.00019         207.105         49.9435 
        1.00632         205.174         49.2491 
        1.01246         203.699          48.567 
        1.01859         203.016          47.899 
        1.02471         201.037         47.2444 
        1.03085         198.807         46.5999 
        1.03698         197.961         45.9688 
        1.04314         196.504         45.3468 
        1.04929         195.053         44.7377 
        1.05541         194.746         44.1424 
        1.06154         192.889         43.5565 
        1.06769          192.61         42.9804 
        1.07382          191.02         42.4167 
        1.07993         189.305         41.8644 
        1.08607         188.506         41.3197 
        1.09222         187.444         40.7842 
        1.09836         185.725         40.2589 
        1.10449         184.043         39.7435 
        1.11063         182.591         39.2366 
        1.11677         182.378         38.7387 
         1.1229         180.698         38.2505 
        1.12903         179.762         37.7702 
        1.13518          179.01         37.2978 
        1.14131         177.329         36.8338 
        1.14745          176.91          36.378 
        1.15359         175.464         35.9299 
        1.15973          174.88         35.4892 
        1.16584          172.92         35.0579 
        1.17197         172.395         34.6331 
        1.17811         171.287         34.2142 
        1.18424         170.276         33.8034 
        1.19038         169.757         33.3982 
        1.19652         168.429         32.9998 
        1.20267         167.654          32.608 
        1.20881          166.08         32.2226 
        1.21495         165.447         31.8441 
        1.22108         164.629         31.4717 
         1.2272         163.112         31.1062 
        1.23334         162.418         30.7457 
        1.23949          161.05         30.3901 
        1.24562         160.413         30.0411 
        1.25174          158.54         29.6981 
        1.25789          157.92         29.3594 
        1.26402         157.186         29.0267 
        1.27014         156.092            28.7 
        1.27628         155.361         28.3773 
        1.28244         154.826         28.0589 
        1.28858         153.827         27.7459 
        1.29471         152.144         27.4384 
        1.30084         151.629         27.1358 
        1.30697         150.704         26.8374 
        1.31312         150.154          26.543 
        1.31925         148.999          26.254 
        1.32537         148.242         25.9695 
        1.33151         146.827         25.6883 
        1.33765         146.471         25.4115 
        1.34378         145.468         25.1392 
        1.34992          144.98         24.8708 
        1.35606         144.204         24.6058 
         1.3622         143.122         24.3451 
        1.36833         142.117         24.0888 
        1.37445         141.178         23.8363 
        1.38059         140.755         23.5867 
        1.38675          139.73         23.3401 
        1.39288         139.228         23.0981 
        1.39901         138.779         22.8595 
        1.40515           137.6         22.6238 
         1.4113         136.294         22.3916 
        1.41742          135.95         22.1635 
        1.42355         134.976         21.9381 
         1.4297         134.263         21.7152 
        1.43585         133.019         21.4956 
        1.44198         132.932         21.2798 
        1.44809         131.932         21.0673 
        1.45423         130.947         20.8571 
        1.46036         130.565           20.65 
        1.46649         129.671         20.4457 
        1.47263         129.135          20.244 
        1.47877         128.471         20.0451 
        1.48491         127.166         19.8486 
        1.49104         126.898         19.6552 
        1.49718         125.662         19.4641 
        1.50333         125.275         19.2754 
        1.50947         124.701         19.0895 
         1.5156         123.868         18.9063 
        1.52172         123.059         18.7256 
        1.52787         122.505         18.5468 
          1.534         121.796         18.3706 
        1.54013           120.9         18.1969 
        1.54627         120.465         18.0251 
        1.55241         119.584         17.8555 
        1.55855         119.064         17.6884 
        1.56467         118.546         17.5238 
         1.5708          117.66         17.3609 
        1.57695         117.254         17.1998 
        1.58308          116.39         17.0412 
        1.58922         116.072         16.8844 
        1.59535         115.177         16.7297 
         1.6015         114.683         16.5767 
        1.60764         113.959         16.4256 
        1.61376         113.677         16.2769 
        1.61989         112.726         16.1299 
        1.62604         112.258         15.9844 
        1.63218         111.632         15.8408 
        1.63831         110.791         15.6993 
        1.64444         110.435         15.5595 
        1.65059          109.82          15.421 
        1.65673         108.781         15.2844 
        1.66285         108.716         15.1499 
        1.66898         107.916         15.0169 
        1.67512         107.424         14.8852 
        1.68127         106.699          14.755 
         1.6874         105.911         14.6267 
        1.69353         105.448         14.4999 
        1.69967         105.051         14.3744 
        1.70581         104.409         14.2504 
        1.71193         104.058         14.1283 
        1.71806         103.245         14.0074 
        1.72421          102.71         13.8877 
        1.73035         102.157         13.7696 
        1.73649         101.498         13.6528 
        1.74262         101.002         13.5375 
        1.74876          100.64         13.4234 
        1.75489         99.7253         13.3109 
        1.76101         99.4417         13.1997 
        1.76715         98.6518         13.0896 
        1.77329         98.4053         12.9806 
        1.77943         97.6154         12.8729 
        1.78557         97.3013         12.7665 
        1.79171          96.622         12.6613 
        1.79785         96.1597         12.5573 
        1.80399         95.6739         12.4545 
        1.81012         95.2322          12.353 
        1.81625          94.571         12.2526 
        1.82239         94.2857         12.1532 
        1.82853          93.902          12.055 
        1.83466          93.107         11.9579 
        1.84078         92.9909          11.862 
        1.84692         92.1083          11.767 
        1.85306         91.5557          11.673 
         1.8592         91.1285         11.5801 
        1.86533          90.724         11.4883 
        1.87147         89.9534         11.3973 
        1.87761         89.7378         11.3073 
        1.88375         89.1762         11.2184 
        1.88988         88.6751         11.1306 
        1.89601         88.2248         11.0436 
        1.90215         87.8837         10.9575 
        1.90829         87.3133         10.8724 
        1.91442         86.9865         10.7882 
        1.92056         86.2442         10.7049 
         1.9267          86.011         10.6224 
        1.93284         85.3827         10.5408 
        1.93897         84.9708         10.4601 
        1.94509         84.6731         10.3805 
        1.95123         84.1095         10.3015 
        1.95737         83.8285         10.2233 
        1.96349         83.1515         10.1461 
        1.96964         82.6438         10.0694 
        1.97578         82.4768         9.99355 
        1.98192         81.9338          9.9186 
        1.98805          81.354         9.84442 
        1.99419         80.9465         9.77099 
        2.00033         80.6408         9.69827 
        2.00647         80.2268         9.62631 
         2.0126         79.7054         9.55521 
        2.01874         79.2289         9.48471 
        2.02488         78.8518         9.41487 
        2.03101         78.5487         9.34586 
        2.03714         77.9352          9.2776 
        2.04328         77.6484         9.20995 
        2.04941         77.1485         9.14303 
        2.05554         76.9302         9.07683 
        2.06167         76.3946         9.01119 
        2.06781         75.9538         8.94619 
        2.07396         75.5791         8.88174 
        2.08009         75.2229         8.81803 
        2.08622         74.9137         8.75503 
        2.09237         74.4054         8.69252 
        2.09851         74.2004          8.6306 
        2.10464         73.6853          8.5694 
        2.11077         73.2744         8.50886 
        2.11691         72.9726         8.44877 
        2.12305          72.528         8.38926 
        2.12918         72.1752         8.33047 
        2.13531         71.8009         8.27223 
        2.14145         71.2736         8.21442 
         2.1476         71.0289         8.15709 
        2.15372         70.6545          8.1006 
        2.15985         70.2688         8.04458 
        2.16599         69.9732         7.98894 
        2.17213         69.5804         7.93388 
        2.17827         69.2226         7.87936 
         2.1844         68.7921          7.8254 
        2.19054         68.5466         7.77192 
        2.19666         68.1388         7.71902 
         2.2028         68.0099         7.66656 
        2.20893         67.4795         7.61457 
        2.21508          67.022           7.563 
        2.22122         66.8956          7.5119 
        2.22736         66.4476         7.46137 
        2.23349         66.1402         7.41132 
        2.23962          65.665          7.3617 
        2.24577         65.2869         7.31249 
         2.2519         65.1033          7.2638 
        2.25802         64.7439         7.21564 
        2.26417         64.3325         7.16777 
        2.27031         64.0626          7.1203 
        2.27644         63.7722         7.07339 
        2.28257         63.3617         7.02691 
        2.28872         63.0999         6.98076 
        2.29486         62.7834         6.93503 
        2.30099         62.3999          6.8898 
        2.30712         62.2034         6.84496 
        2.31326         61.7756         6.80044 
         2.3194         61.5782         6.75635 
        2.32553         61.1093         6.71272 
        2.33166          60.775         6.66949 
         2.3378         60.5493         6.62658 
        2.34394         60.1471         6.58404 
        2.35007         59.7838         6.54193 
        2.35619         59.5519         6.50025 
        2.36233         59.3479         6.45882 
        2.36848         59.0121         6.41767 
        2.37462         58.6924         6.37697 
        2.38075         58.4579         6.33666 
        2.38689         58.1119         6.29667 
        2.39303         57.8501         6.25702 
        2.39916         57.6494         6.21776 
        2.40529         57.2811         6.17884 
        2.41143         56.9953         6.14023 
        2.41757         56.6933         6.10192 
         2.4237          56.448         6.06402 
        2.42983         56.0277         6.02644 
        2.43598         55.7913         5.98908 
        2.44211         55.5366          5.9521 
        2.44823         55.2752         5.91551 
        2.45437         54.9502         5.87913 
        2.46052         54.6177         5.84302 
        2.46665         54.3941         5.80729 
        2.47279         54.1268         5.77186 
        2.47892         53.9149          5.7367 
        2.48507         53.5969         5.70181 
         2.4912         53.4394         5.66727 
