# k  (h/Mpc)    Pcb(k)  (Mpc/h)^3    Pcb_linear(k)  (Mpc/h)^3
     0.00783031         44.4833         44.7988 
       0.013688          59.168          59.543 
       0.019231         64.0666         64.2147 
      0.0249154         63.1214         63.2386 
      0.0312784         58.5101          58.566 
      0.0375637         52.7884         52.8088 
      0.0433917         47.8811         47.8333 
      0.0492413          43.753         43.7364 
      0.0555754         40.3929         40.3396 
      0.0619321         37.6449         37.6962 
       0.067871         35.5183         35.5286 
      0.0738098         33.3381          33.347 
      0.0800417         30.8912         30.8831 
      0.0862327         28.2796         28.2837 
      0.0921407         25.8031         25.8091 
      0.0982031         23.4811         23.4611 
       0.104506         21.3689         21.3793 
       0.110769           19.73         19.7369 
       0.116806         18.5397         18.5235 
       0.122832         17.5661         17.5779 
       0.129052         16.7515         16.7511 
       0.135211          15.968         15.9615 
       0.141259          15.128         15.1388 
       0.147318         14.2207         14.2471 
       0.153489         13.2885         13.2981 
       0.159709          12.358         12.3593 
       0.165845         11.4861         11.5113 
       0.171974         10.7896         10.7832 
       0.178125         10.1882         10.1843 
       0.184229         9.69684         9.70581 
        0.19034         9.31687         9.30886 
       0.196428         8.95409         8.95499 
       0.202534          8.5846         8.60643 
       0.208729          8.2297         8.23673 
       0.214876         7.85588         7.84868 
       0.220989         7.43349         7.45146 
       0.227147         7.06782         7.05827 
        0.23329         6.70342         6.69201 
       0.239377         6.38032         6.36809 
       0.245482         6.09794         6.08681 
       0.251667         5.84356         5.84266 
       0.257832         5.64027         5.63008 
       0.263955         5.43981         5.43668 
       0.270079          5.2516         5.24952 
        0.27624         5.05322         5.06001 
       0.282372         4.86311         4.86758 
        0.28843         4.68356         4.67593 
       0.294538          4.4914         4.48591 
       0.300721         4.30175          4.3028 
        0.30691         4.14127         4.13316 
       0.313033         3.98712         3.98101 
       0.319153         3.86316         3.84385 
       0.325316         3.71802         3.71815 
        0.33145         3.60313         3.60164 
       0.337538         3.49533         3.49093 
       0.343633          3.3896         3.38223 
       0.349808         3.27835         3.27319 
       0.355968         3.16825          3.1654 
       0.362074         3.06802         3.06089 
       0.368217         2.96637         2.95953 
       0.374374         2.87842         2.86319 
       0.380519         2.78005         2.77313 
       0.386598         2.69498         2.68993 
       0.392688         2.61514         2.61202 
        0.39888         2.54347         2.53718 
       0.405048          2.4728          2.4659 
       0.411186         2.40267         2.39728 
       0.417313         2.33804         2.33038 
       0.423458         2.26795         2.26478 
       0.429607         2.20905         2.20084 
       0.435692         2.14869         2.13953 
       0.441815         2.08728         2.08021 
       0.447964         2.02607         2.02336 
       0.454126          1.9771         1.96911 
       0.460267         1.92955         1.91763 
       0.466387          1.8785         1.86868 
        0.47254         1.83228          1.8214 
       0.478662         1.78546         1.77596 
       0.484765         1.74254         1.73202 
       0.490885         1.69814         1.68921 
       0.497035         1.65257         1.64736 
       0.503198         1.61513         1.60667 
       0.509342         1.57301         1.56744 
       0.515458         1.53879         1.52979 
       0.521598         1.50203         1.49338 
       0.527764         1.47001         1.45818 
       0.533884         1.43107         1.42454 
           0.54         1.39994         1.39212 
       0.546137         1.36627         1.36063 
       0.552299         1.33756         1.32996 
       0.558452          1.3088         1.30024 
       0.564573         1.28008         1.27151 
       0.570708         1.25174         1.24355 
       0.576825         1.22491         1.21648 
       0.582926         1.19696         1.19029 
       0.589034         1.17529         1.16488 
       0.595184          1.1509          1.1401 
       0.601379         1.12461         1.11595 
       0.607522         1.10067         1.09272 
       0.613639         1.07627         1.07028 
       0.619772         1.05761         1.04841 
       0.625918         1.03588         1.02712 
       0.632068         1.01521          1.0064 
       0.638161        0.994889        0.986432 
         0.6443        0.975129        0.966859 
       0.650464        0.956436        0.947745 
       0.656582        0.939109         0.92929 
       0.662703         0.92047        0.911332 
       0.668861        0.900438        0.893764 
       0.675024        0.884898        0.876666 
       0.681124        0.872265        0.860206 
       0.687237        0.853437        0.844147 
       0.693381        0.835875         0.82843 
       0.699536        0.823545        0.813089 
       0.705665        0.808098        0.798201 
       0.711789        0.791502          0.7837 
       0.717957         0.77834        0.769462 
        0.72409         0.76383        0.755662 
       0.730186        0.752255         0.74229 
       0.736317        0.737801        0.729177 
       0.742472        0.725727        0.716341 
       0.748622        0.713412        0.703832 
        0.75476        0.700674        0.691656 
       0.760888        0.690202        0.679791 
       0.767043        0.674532        0.668161 
       0.773185        0.664895        0.656831 
       0.779291        0.655762        0.645831 
       0.785407        0.643758        0.635071 
       0.791564        0.633347        0.624491 
       0.797719        0.622865        0.614161 
       0.803834        0.612477        0.604134 
       0.809972        0.602907        0.594298 
       0.816124        0.592988        0.584664 
       0.822261        0.584401        0.575274 
       0.828378        0.574318        0.566121 
       0.834502        0.565571        0.557163 
       0.840667        0.557392        0.548344 
       0.846816        0.548645        0.539743 
       0.852925        0.539014        0.531384 
       0.859047        0.531197        0.523186 
       0.865192        0.523543        0.515136 
       0.871341        0.516271        0.507253 
       0.877463        0.507184        0.499573 
       0.883569        0.500107        0.492073 
       0.889708        0.493198         0.48469 
       0.895864        0.485982        0.477442 
       0.902008        0.478294         0.47036 
       0.908149        0.472065        0.463427 
       0.914301        0.465954        0.456625 
       0.920448        0.458936        0.449967 
       0.926574        0.453004        0.443467 
       0.932687        0.446476        0.437111 
       0.938823        0.438947        0.430859 
       0.944975        0.433674        0.424716 
       0.951105        0.426645        0.418717 
       0.957225        0.420518        0.412845 
       0.963368        0.415612        0.407068 
       0.969511        0.410558        0.401402 
       0.975621        0.404094        0.395876 
       0.981748        0.397814        0.390442 
       0.987916        0.392836        0.385077 
        0.99406        0.388154        0.379834 
        1.00019        0.382657          0.3747 
        1.00632        0.378636        0.369667 
        1.01246        0.373527        0.364721 
        1.01859        0.368209        0.359874 
        1.02471         0.36304        0.355123 
        1.03085        0.358087        0.350441 
        1.03698        0.354027        0.345856 
        1.04314        0.349524        0.341334 
        1.04929        0.345716        0.336904 
        1.05541        0.340244        0.332572 
        1.06154        0.336538        0.328306 
        1.06769        0.332609         0.32411 
        1.07382        0.328444        0.320002 
        1.07993        0.324556        0.315975 
        1.08607        0.319975        0.312002 
        1.09222        0.316101        0.308093 
        1.09836        0.312142        0.304257 
        1.10449        0.308354        0.300492 
        1.11063        0.304722        0.296786 
        1.11677        0.301494        0.293145 
         1.1229        0.297017        0.289573 
        1.12903        0.294022        0.286057 
        1.13518        0.290308        0.282597 
        1.14131        0.287179        0.279197 
        1.14745        0.284532        0.275856 
        1.15359        0.280699        0.272569 
        1.15973        0.277842        0.269335 
        1.16584         0.27419        0.266169 
        1.17197        0.270939         0.26305 
        1.17811        0.267705        0.259971 
        1.18424        0.264686        0.256952 
        1.19038        0.261381        0.253972 
        1.19652        0.259374        0.251041 
        1.20267        0.256128        0.248156 
        1.20881        0.252488        0.245319 
        1.21495        0.250089         0.24253 
        1.22108        0.247585        0.239786 
         1.2272        0.244503        0.237092 
        1.23334        0.241894        0.234433 
        1.23949        0.239748        0.231809 
        1.24562        0.236937        0.229232 
        1.25174        0.234301          0.2267 
        1.25789        0.231274        0.224198 
        1.26402         0.22953        0.221739 
        1.27014        0.226438        0.219323 
        1.27628          0.2245        0.216937 
        1.28244        0.222199        0.214581 
        1.28858        0.219508        0.212265 
        1.29471        0.217272        0.209987 
        1.30084        0.214946        0.207746 
        1.30697         0.21308        0.205535 
        1.31312        0.210931        0.203353 
        1.31925        0.208572        0.201209 
        1.32537        0.206501          0.1991 
        1.33151        0.204428        0.197013 
        1.33765        0.202144        0.194957 
        1.34378         0.19995        0.192935 
        1.34992        0.198582        0.190941 
        1.35606        0.196334        0.188971 
         1.3622        0.194341        0.187032 
        1.36833        0.192655        0.185126 
        1.37445        0.190926        0.183247 
        1.38059        0.188698        0.181389 
        1.38675        0.186686        0.179552 
        1.39288        0.184621        0.177748 
        1.39901        0.183499        0.175971 
        1.40515        0.181394        0.174213 
         1.4113         0.17993        0.172481 
        1.41742        0.178221        0.170779 
        1.42355        0.176026        0.169097 
         1.4297        0.174875        0.167433 
        1.43585        0.172894        0.165792 
        1.44198        0.171448        0.164179 
        1.44809        0.169687        0.162592 
        1.45423        0.168246        0.161019 
        1.46036        0.166617        0.159471 
        1.46649         0.16501        0.157942 
        1.47263        0.163161        0.156433 
        1.47877        0.162472        0.154944 
        1.48491        0.160291        0.153472 
        1.49104         0.15941        0.152023 
        1.49718        0.157762        0.150591 
        1.50333         0.15627        0.149176 
        1.50947        0.155056        0.147782 
         1.5156        0.153478        0.146409 
        1.52172        0.152242        0.145052 
        1.52787         0.15057        0.143711 
          1.534        0.149603        0.142388 
        1.54013        0.148096        0.141083 
        1.54627        0.146927        0.139793 
        1.55241        0.145559        0.138518 
        1.55855        0.144327        0.137262 
        1.56467        0.143186        0.136024 
         1.5708        0.141763        0.134799 
        1.57695        0.140627        0.133587 
        1.58308        0.139022        0.132392 
        1.58922        0.138197        0.131212 
        1.59535        0.136865        0.130046 
         1.6015        0.135854        0.128894 
        1.60764        0.134481        0.127755 
        1.61376        0.133488        0.126634 
        1.61989        0.132276        0.125525 
        1.62604        0.131336        0.124428 
        1.63218        0.130181        0.123344 
        1.63831        0.129111        0.122276 
        1.64444        0.127971         0.12122 
        1.65059         0.12675        0.120174 
        1.65673        0.125898        0.119142 
        1.66285        0.124964        0.118125 
        1.66898         0.12363        0.117119 
        1.67512        0.122766        0.116124 
        1.68127        0.121861        0.115139 
         1.6874        0.120907        0.114168 
        1.69353        0.119956        0.113209 
        1.69967        0.118714        0.112258 
        1.70581        0.118156        0.111319 
        1.71193        0.117132        0.110395 
        1.71806        0.116112        0.109479 
        1.72421        0.115081        0.108571 
        1.73035         0.11434        0.107676 
        1.73649        0.113382         0.10679 
        1.74262        0.112507        0.105915 
        1.74876        0.111716         0.10505 
        1.75489        0.110729        0.104196 
        1.76101        0.109916        0.103352 
        1.76715        0.109185        0.102516 
        1.77329        0.108158        0.101688 
        1.77943        0.107315         0.10087 
        1.78557        0.106704        0.100061 
        1.79171        0.105877       0.0992618 
        1.79785          0.1049       0.0984709 
        1.80399        0.104086       0.0976888 
        1.81012        0.103428       0.0969163 
        1.81625        0.102631       0.0961526 
        1.82239        0.102027        0.095396 
        1.82853        0.101088        0.094648 
        1.83466        0.100374       0.0939088 
        1.84078        0.099676       0.0931783 
        1.84692       0.0989645       0.0924544 
        1.85306       0.0982526       0.0917375 
         1.8592       0.0975255       0.0910293 
        1.86533       0.0968853        0.090329 
        1.87147       0.0961487       0.0896354 
        1.87761       0.0952857       0.0889488 
        1.88375       0.0944793       0.0882702 
        1.88988       0.0940498       0.0875996 
        1.89601       0.0932741       0.0869355 
        1.90215       0.0925252       0.0862779 
        1.90829       0.0917869       0.0856275 
        1.91442       0.0912987       0.0849838 
        1.92056       0.0906697       0.0843473 
         1.9267       0.0899793       0.0837167 
        1.93284         0.08924       0.0830923 
        1.93897       0.0886594       0.0824754 
        1.94509       0.0879985       0.0818662 
        1.95123       0.0874968       0.0812616 
        1.95737        0.086953       0.0806628 
        1.96349       0.0863912       0.0800716 
        1.96964       0.0856507       0.0794846 
        1.97578       0.0851403       0.0789034 
        1.98192        0.084553       0.0783291 
        1.98805       0.0840475       0.0777605 
        1.99419       0.0834379       0.0771976 
        2.00033       0.0827542       0.0766401 
        2.00647       0.0822123       0.0760882 
         2.0126       0.0819026       0.0755428 
        2.01874         0.08116       0.0750019 
        2.02488       0.0806006       0.0744659 
        2.03101       0.0800575       0.0739361 
        2.03714       0.0798249       0.0734121 
        2.04328       0.0789431       0.0728925 
        2.04941       0.0785246       0.0723785 
        2.05554       0.0781216       0.0718698 
        2.06167       0.0775261       0.0713653 
        2.06781       0.0769235       0.0708657 
        2.07396       0.0764154       0.0703702 
        2.08009       0.0759992       0.0698802 
        2.08622       0.0755446       0.0693956 
        2.09237       0.0749775       0.0689146 
        2.09851       0.0745566       0.0684381 
        2.10464       0.0740109        0.067967 
        2.11077       0.0735278       0.0675008 
        2.11691       0.0732329       0.0670381 
        2.12305       0.0724769       0.0665797 
        2.12918       0.0721169       0.0661267 
        2.13531       0.0716736       0.0656779 
        2.14145       0.0712298       0.0652323 
         2.1476       0.0708264       0.0647903 
        2.15372       0.0703521       0.0643547 
        2.15985       0.0698987       0.0639226 
        2.16599       0.0693831       0.0634933 
        2.17213       0.0691226       0.0630685 
        2.17827       0.0686263       0.0626477 
         2.1844       0.0681888       0.0622311 
        2.19054       0.0678192       0.0618182 
        2.19666       0.0673518       0.0614096 
         2.2028       0.0668252       0.0610044 
        2.20893       0.0665553       0.0606027 
        2.21508       0.0660725       0.0602042 
        2.22122       0.0656327       0.0598091 
        2.22736        0.065309       0.0594185 
        2.23349        0.064885       0.0590314 
        2.23962       0.0645846       0.0586477 
        2.24577       0.0641645        0.058267 
         2.2519       0.0637385       0.0578902 
        2.25802       0.0634194       0.0575174 
        2.26417       0.0630617       0.0571469 
        2.27031       0.0626665       0.0567793 
        2.27644       0.0623397       0.0564161 
        2.28257       0.0619626        0.056056 
        2.28872       0.0615473       0.0556985 
        2.29486       0.0612354       0.0553441 
        2.30099       0.0607996       0.0549936 
        2.30712       0.0605606        0.054646 
        2.31326       0.0600554       0.0543008 
         2.3194       0.0597894       0.0539589 
        2.32553       0.0594864       0.0536204 
        2.33166       0.0590795       0.0532851 
         2.3378       0.0587494       0.0529522 
        2.34394       0.0584263        0.052622 
        2.35007       0.0581412       0.0522951 
        2.35619       0.0579478       0.0519715 
        2.36233       0.0574334       0.0516498 
        2.36848       0.0571621       0.0513302 
        2.37462       0.0568839        0.051014 
        2.38075       0.0565327       0.0507007 
        2.38689       0.0562262       0.0503899 
        2.39303       0.0559748       0.0500818 
        2.39916       0.0554813       0.0497765 
        2.40529       0.0551842       0.0494739 
        2.41143       0.0548769       0.0491735 
        2.41757       0.0546409       0.0488755 
         2.4237       0.0543139       0.0485806 
        2.42983       0.0540441       0.0482881 
        2.43598       0.0536982       0.0479973 
        2.44211       0.0533859       0.0477094 
        2.44823       0.0531661       0.0474245 
        2.45437       0.0528459       0.0471412 
        2.46052       0.0525688       0.0468599 
        2.46665       0.0522536       0.0465815 
        2.47279       0.0520881       0.0463054 
        2.47892       0.0518086       0.0460314 
        2.48507       0.0514734       0.0457594 
         2.4912       0.0512231       0.0454901 
