# k  (h/Mpc)    P(k)  (Mpc/h)^3    P_linear(k)  (Mpc/h)^3
     0.00783031         8879.35         8960.61 
       0.013688         10170.8         10395.1 
       0.019231         9819.56         9932.93 
      0.0249154         8652.47         8618.18 
      0.0312784         6913.84         6930.87 
      0.0375637         5481.47         5519.23 
      0.0433917         4600.14         4586.04 
      0.0492413         3979.38         3986.53 
      0.0555754          3625.7         3604.55 
      0.0619321         3298.19         3358.74 
       0.067871         3125.92         3144.05 
      0.0738098         2880.99         2882.85 
      0.0800417         2562.62         2549.85 
      0.0862327         2202.55         2194.88 
      0.0921407         1903.09         1881.22 
      0.0982031         1667.92         1621.58 
       0.104506          1458.1          1433.3 
       0.110769         1350.77         1320.41 
       0.116806         1303.05         1259.56 
       0.122832         1243.75         1218.95 
       0.129052         1194.31         1172.53 
       0.135211         1143.01         1106.07 
       0.141259         1045.05         1018.84 
       0.147318         941.819          918.85 
       0.153489          853.65         818.726 
       0.159709         786.825         732.816 
       0.165845         709.907         669.698 
       0.171974          687.49         628.161 
       0.178125         659.773         602.921 
       0.184229         624.317         586.304 
        0.19034         613.298         570.032 
       0.196428         592.271         548.344 
       0.202534         548.549         518.948 
       0.208729         529.676         482.998 
       0.214876         497.901         445.418 
       0.220989         457.681         410.707 
       0.227147         440.284         381.721 
        0.23329         419.672         360.021 
       0.239377           410.5         344.918 
       0.245482         390.657         334.065 
       0.251667         376.026         324.751 
       0.257832         371.708         314.763 
       0.263955         350.582         302.707 
       0.270079         335.238         288.343 
        0.27624          319.39         272.489 
       0.282372         308.504         256.703 
        0.28843         303.253         242.467 
       0.294538         286.636         230.309 
       0.300721         275.804          220.49 
        0.30691         270.907         212.748 
       0.313033         258.364         206.372 
       0.319153         254.033         200.404 
       0.325316         247.236         194.112 
        0.33145         239.826         187.203 
       0.337538         230.547         179.763 
       0.343633         222.872         172.043 
       0.349808         215.718         164.432 
       0.355968         210.397         157.431 
       0.362074          203.93         151.348 
       0.368217         200.509         146.085 
       0.374374         195.202         141.527 
       0.380519         187.042         137.428 
       0.386598         183.835         133.522 
       0.392688         178.138         129.576 
        0.39888         174.431         125.419 
       0.405048         170.118         121.156 
       0.411186         167.872         116.923 
       0.417313         163.919         112.833 
       0.423458         159.468          108.99 
       0.429607         155.148         105.492 
       0.435692         152.577         102.349 
       0.441815         148.751          99.452 
       0.447964         144.282         96.7364 
       0.454126         141.783         94.1118 
       0.460267         140.129         91.5143 
       0.466387         136.463         88.9318 
        0.47254         134.854         86.3508 
       0.478662         130.395          83.819 
       0.484765         128.405         81.3769 
       0.490885         125.819         79.0544 
       0.497035         124.324         76.8671 
       0.503198         122.281         74.8085 
       0.509342         119.023          72.872 
       0.515458         117.081         71.0384 
       0.521598          114.09          69.263 
       0.527764         113.027         67.5187 
       0.533884         112.088         65.8106 
           0.54          109.09         64.1363 
       0.546137         106.531         62.5005 
       0.552299         104.861         60.9134 
       0.558452         103.043         59.3896 
       0.564573         102.467          57.936 
       0.570708         99.5478         56.5435 
       0.576825         98.3698         55.2179 
       0.582926         97.2249         53.9478 
       0.589034         95.4544         52.7169 
       0.595184         94.2723         51.5087 
       0.601379         92.3358         50.3182 
       0.607522         90.3169         49.1663 
       0.613639          89.623         48.0514 
       0.619772         88.0602         46.9688 
       0.625918         87.4316         45.9209 
       0.632068         85.3538          44.908 
       0.638161         84.3647         43.9374 
         0.6443         83.7433         42.9906 
       0.650464         81.8486         42.0698 
       0.656582         81.4294         41.1833 
       0.662703         80.3486         40.3224 
       0.668861         78.6035         39.4809 
       0.675024         78.5151         38.6619 
       0.681124         77.1128          37.873 
       0.687237          75.925         37.1032 
       0.693381         74.9799         36.3503 
       0.699536         74.1745         35.6168 
       0.705665         73.2384         34.9069 
       0.711789          72.149         34.2176 
       0.717957         71.1787         33.5434 
        0.72409         70.4392          32.892 
       0.730186         70.0705         32.2624 
       0.736317         68.9609         31.6464 
       0.742472         67.8024         31.0442 
       0.748622         66.8104         30.4581 
        0.75476         66.6963         29.8881 
       0.760888         66.0792         29.3332 
       0.767043         64.6852         28.7899 
       0.773185          63.816         28.2613 
       0.779291         63.1703         27.7489 
       0.785407         62.5753         27.2485 
       0.791564         62.2096         26.7574 
       0.797719         61.1574         26.2787 
       0.803834         60.8516         25.8149 
       0.809972         60.2629         25.3607 
       0.816124          59.349         24.9166 
       0.822261         58.6096         24.4844 
       0.828378         58.4492         24.0638 
       0.834502         57.7188         23.6528 
       0.840667         57.2069         23.2487 
       0.846816         56.6185         22.8553 
       0.852925         55.8821         22.4735 
       0.859047         55.6463         22.0996 
       0.865192         54.8854          21.733 
       0.871341         54.3081         21.3745 
       0.877463         53.7783         21.0258 
       0.883569         53.6991         20.6857 
       0.889708         53.0621         20.3514 
       0.895864         52.6443         20.0237 
       0.902008         52.0148         19.7038 
       0.908149         51.3545         19.3912 
       0.914301         51.0903         19.0848 
       0.920448         50.9991         18.7854 
       0.926574         49.9197         18.4934 
       0.932687         49.6839         18.2083 
       0.938823         49.2765         17.9282 
       0.944975         48.6642         17.6533 
       0.951105         48.2602         17.3852 
       0.957225         48.0198         17.1231 
       0.963368         47.5728         16.8656 
       0.969511         47.2021         16.6133 
       0.975621         46.7057         16.3676 
       0.981748         46.3478         16.1262 
       0.987916         45.9011         15.8881 
        0.99406         45.7112         15.6558 
        1.00019          45.108         15.4286 
        1.00632         44.7732         15.2061 
        1.01246          44.481         14.9877 
        1.01859         44.2261         14.7739 
        1.02471         43.7974         14.5645 
        1.03085         43.4094         14.3585 
        1.03698          43.168         14.1569 
        1.04314         42.7813         13.9583 
        1.04929          42.382          13.764 
        1.05541         42.1815         13.5741 
        1.06154         41.8231         13.3874 
        1.06769         41.4402         13.2039 
        1.07382         41.0348         13.0245 
        1.07993         40.9068         12.8488 
        1.08607         40.5245         12.6756 
        1.09222         40.3338         12.5055 
        1.09836         40.0225         12.3386 
        1.10449         39.7626         12.1751 
        1.11063         39.4111         12.0142 
        1.11677         39.2799         11.8564 
         1.1229         38.8537         11.7017 
        1.12903         38.6503         11.5496 
        1.13518         38.4609            11.4 
        1.14131         38.0972         11.2533 
        1.14745         37.8603         11.1091 
        1.15359         37.3966         10.9675 
        1.15973         37.4061         10.8283 
        1.16584         37.0805         10.6921 
        1.17197           36.71         10.5581 
        1.17811         36.5241         10.4259 
        1.18424          36.033         10.2965 
        1.19038         35.9143         10.1688 
        1.19652          35.769         10.0433 
        1.20267         35.4735         9.91999 
        1.20881         35.2496         9.79875 
        1.21495         35.1198         9.67972 
        1.22108           35.02         9.56269 
         1.2272         34.5798         9.44786 
        1.23334         34.4451         9.33466 
        1.23949         34.1951         9.22304 
        1.24562         33.9787         9.11356 
        1.25174          33.772         9.00601 
        1.25789         33.5873         8.89987 
        1.26402         33.3649         8.79562 
        1.27014         33.2553          8.6933 
        1.27628         32.9083         8.59229 
        1.28244         32.9215         8.49269 
        1.28858         32.5533          8.3948 
        1.29471          32.278         8.29867 
        1.30084         32.0572         8.20414 
        1.30697         32.0772         8.11093 
        1.31312         31.7995         8.01903 
        1.31925         31.5314         7.92885 
        1.32537         31.3365         7.84014 
        1.33151         31.1373         7.75247 
        1.33765         31.0682         7.66619 
        1.34378         30.8911          7.5814 
        1.34992         30.6384         7.49783 
        1.35606         30.3547         7.41533 
         1.3622          30.304         7.33422 
        1.36833         30.2078         7.25452 
        1.37445         29.8666         7.17604 
        1.38059         29.7426         7.09849 
        1.38675         29.5741         7.02189 
        1.39288         29.4614         6.94672 
        1.39901         29.2093         6.87269 
        1.40515         29.1064         6.79957 
         1.4113         29.0275         6.72755 
        1.41742         28.8088         6.65683 
        1.42355         28.5826           6.587 
         1.4297         28.5292         6.51796 
        1.43585         28.3481         6.44994 
        1.44198         28.1239         6.38314 
        1.44809         27.9444         6.31742 
        1.45423         27.8768         6.25237 
        1.46036         27.7765         6.18835 
        1.46649         27.5293         6.12521 
        1.47263         27.3877         6.06289 
        1.47877         27.2536         6.00147 
        1.48491         27.0871          5.9408 
        1.49104         26.9295         5.88109 
        1.49718         26.8801         5.82216 
        1.50333          26.739         5.76394 
        1.50947         26.5024         5.70664 
         1.5156         26.4557         5.65019 
        1.52172         26.2419         5.59451 
        1.52787         26.2073         5.53947 
          1.534         25.9516         5.48523 
        1.54013          26.001         5.43177 
        1.54627         25.7433         5.37893 
        1.55241         25.6368         5.32678 
        1.55855         25.4864         5.27539 
        1.56467         25.2987         5.22482 
         1.5708         25.2836         5.17477 
        1.57695         25.1533          5.1253 
        1.58308         24.9306         5.07659 
        1.58922         24.8376         5.02847 
        1.59535         24.7637           4.981 
         1.6015         24.7054         4.93407 
        1.60764         24.4635         4.88776 
        1.61376         24.3511         4.84218 
        1.61989         24.1974         4.79714 
        1.62604         24.0915         4.75257 
        1.63218         23.9047          4.7086 
        1.63831         23.8804         4.66528 
        1.64444         23.7762         4.62249 
        1.65059          23.624         4.58013 
        1.65673          23.542         4.53835 
        1.66285         23.4546          4.4972 
        1.66898         23.3183         4.45655 
        1.67512         23.2165         4.41632 
        1.68127         23.0911         4.37655 
         1.6874         23.0082         4.33736 
        1.69353         22.8697         4.29867 
        1.69967         22.7818         4.26035 
        1.70581          22.663         4.22252 
        1.71193         22.5559         4.18529 
        1.71806          22.477         4.14843 
        1.72421         22.3606         4.11194 
        1.73035         22.2482         4.07593 
        1.73649         22.1018         4.04036 
        1.74262         21.9872         4.00524 
        1.74876         22.0256         3.97051 
        1.75489         21.8148         3.93626 
        1.76101         21.7553         3.90243 
        1.76715         21.5909         3.86894 
        1.77329         21.4725         3.83581 
        1.77943         21.4546         3.80305 
        1.78557         21.3868         3.77072 
        1.79171         21.2582         3.73876 
        1.79785          21.163         3.70716 
        1.80399         21.0249         3.67593 
        1.81012         20.9889         3.64511 
        1.81625         20.8024         3.61465 
        1.82239         20.7413         3.58449 
        1.82853          20.666         3.55469 
        1.83466         20.5564         3.52525 
        1.84078         20.4482         3.49618 
        1.84692         20.3543         3.46739 
        1.85306         20.2603         3.43888 
         1.8592         20.2367         3.41074 
        1.86533         20.1281         3.38293 
        1.87147         20.0109          3.3554 
        1.87761         19.9149         3.32816 
        1.88375          19.829         3.30126 
        1.88988         19.7543         3.27468 
        1.89601         19.6541         3.24837 
        1.90215         19.5742         3.22234 
        1.90829         19.5083          3.1966 
        1.91442          19.385         3.17114 
        1.92056         19.3428         3.14598 
         1.9267         19.2741         3.12106 
        1.93284         19.1946          3.0964 
        1.93897         19.1036         3.07205 
        1.94509         19.0122         3.04801 
        1.95123         18.9232         3.02417 
        1.95737         18.8407         3.00057 
        1.96349         18.7941         2.97728 
        1.96964         18.6868         2.95416 
        1.97578         18.6014         2.93128 
        1.98192         18.5121         2.90869 
        1.98805         18.4298         2.88634 
        1.99419         18.3509         2.86421 
        2.00033         18.2734         2.84231 
        2.00647         18.2242         2.82064 
         2.0126         18.0939         2.79924 
        2.01874         18.0519         2.77802 
        2.02488         17.9478           2.757 
        2.03101          17.877         2.73624 
        2.03714         17.8183         2.71571 
        2.04328         17.7289         2.69537 
        2.04941         17.6427         2.67525 
        2.05554         17.6061         2.65535 
        2.06167         17.5414         2.63563 
        2.06781         17.4543          2.6161 
        2.07396         17.3866         2.59674 
        2.08009         17.2754         2.57761 
        2.08622         17.2534         2.55869 
        2.09237         17.1624         2.53993 
        2.09851         17.1221         2.52135 
        2.10464         16.9934         2.50299 
        2.11077         16.9552         2.48483 
        2.11691         16.8694         2.46681 
        2.12305         16.8321         2.44897 
        2.12918         16.7413         2.43134 
        2.13531         16.6865         2.41389 
        2.14145         16.6145         2.39657 
         2.1476          16.527          2.3794 
        2.15372         16.4995         2.36248 
        2.15985         16.4062         2.34571 
        2.16599         16.3183         2.32905 
        2.17213         16.2663         2.31257 
        2.17827         16.1984         2.29625 
         2.1844          16.118         2.28011 
        2.19054         16.1187         2.26412 
        2.19666         16.0062          2.2483 
         2.2028         15.9956         2.23261 
        2.20893         15.8857         2.21707 
        2.21508         15.8292         2.20166 
        2.22122         15.7529         2.18639 
        2.22736         15.7242          2.1713 
        2.23349         15.6424         2.15635 
        2.23962         15.5974         2.14153 
        2.24577         15.5077         2.12684 
         2.2519         15.4416          2.1123 
        2.25802          15.358         2.09793 
        2.26417         15.3257         2.08365 
        2.27031         15.2565         2.06948 
        2.27644         15.2103         2.05549 
        2.28257         15.1574         2.04163 
        2.28872         15.1209         2.02787 
        2.29486         15.0558         2.01424 
        2.30099         14.9606         2.00076 
        2.30712         14.9363          1.9874 
        2.31326         14.8495         1.97414 
         2.3194          14.811         1.96101 
        2.32553          14.747         1.94801 
        2.33166         14.6763         1.93514 
         2.3378         14.6287         1.92237 
        2.34394         14.5697         1.90971 
        2.35007         14.5179         1.89718 
        2.35619         14.4925         1.88478 
        2.36233         14.3706         1.87246 
        2.36848         14.3545         1.86022 
        2.37462         14.3161         1.84812 
        2.38075         14.2506         1.83614 
        2.38689         14.1651         1.82425 
        2.39303         14.1244         1.81247 
        2.39916         14.0654         1.80081 
        2.40529         14.0265         1.78925 
        2.41143         13.9474         1.77778 
        2.41757         13.8794          1.7664 
         2.4237         13.8459         1.75515 
        2.42983         13.8074         1.74399 
        2.43598         13.7408         1.73291 
        2.44211         13.7028         1.72193 
        2.44823         13.6194         1.71108 
        2.45437         13.6041         1.70029 
        2.46052         13.5461         1.68958 
        2.46665          13.517         1.67898 
        2.47279         13.4365         1.66848 
        2.47892         13.3869         1.65806 
        2.48507         13.3507         1.64772 
         2.4912         13.2851         1.63748 
