# k  (h/Mpc)    Pcb(k)  (Mpc/h)^3    Pcb_linear(k)  (Mpc/h)^3
     0.00783031         17216.4         17294.3 
       0.013688         20983.3         21583.2 
       0.019231         21555.2           21929 
      0.0249154         20247.2         20228.1 
      0.0312784         17168.7         17387.6 
      0.0375637         14375.8         14678.4 
      0.0433917         12597.8         12703.4 
      0.0492413         11124.7         11310.6 
      0.0555754         10221.9         10322.3 
      0.0619321         9217.61         9626.31 
       0.067871          8769.5         9029.74 
      0.0738098         8196.19         8355.36 
      0.0800417         7415.12         7532.99 
      0.0862327         6552.53         6660.84 
      0.0921407         5851.55         5872.48 
      0.0982031         5286.99         5190.96 
       0.104506         4700.82         4661.99 
       0.110769         4380.16         4309.48 
       0.116806         4216.58         4089.19 
       0.122832         3998.83         3927.32 
       0.129052         3794.93         3761.92 
       0.135211            3681         3560.06 
       0.141259         3389.29         3315.23 
       0.147318          3119.1         3040.31 
       0.153489         2908.48         2761.31 
       0.159709          2771.9         2512.79 
       0.165845         2530.98         2318.82 
       0.171974         2463.04         2179.13 
       0.178125         2390.55         2082.98 
       0.184229         2213.44         2013.05 
        0.19034         2188.99         1948.68 
       0.196428         2127.09         1874.79 
       0.202534         1997.45         1783.81 
       0.208729          1951.3         1676.53 
       0.214876         1855.59         1564.28 
       0.220989         1760.56         1458.08 
       0.227147         1708.03          1365.6 
        0.23329         1639.26          1292.1 
       0.239377         1631.91         1236.93 
       0.245482         1556.76         1194.56 
       0.251667         1501.82         1158.07 
       0.257832          1477.3         1121.57 
       0.263955         1411.35         1080.94 
       0.270079         1373.97         1034.66 
        0.27624         1316.47         984.188 
       0.282372          1300.4          933.51 
        0.28843         1274.44         886.586 
       0.294538         1217.49         845.136 
       0.300721         1195.24         810.103 
        0.30691         1164.52         781.413 
       0.313033         1121.17         757.292 
       0.319153         1110.22         735.149 
       0.325316          1095.2         712.658 
        0.33145         1070.28         688.946 
       0.337538         1035.59         663.809 
       0.343633         1012.19         637.863 
       0.349808         993.653          611.93 
       0.355968         973.638         587.652 
       0.362074         943.719             566 
       0.368217         940.696         546.822 
       0.374374         926.312         529.967 
       0.380519         893.809         514.729 
       0.386598         889.117         500.455 
       0.392688         866.037         486.287 
        0.39888         849.216         471.571 
       0.405048         831.646          456.65 
       0.411186          829.87         441.756 
       0.417313         823.894         427.232 
       0.423458         799.693         413.464 
       0.429607          778.69         400.693 
       0.435692         771.738         389.092 
       0.441815         756.712         378.388 
       0.447964         747.894         368.337 
       0.454126         738.074          358.66 
       0.460267         728.973         349.217 
       0.466387         715.442         339.889 
        0.47254         705.141         330.532 
       0.478662         694.539         321.342 
       0.484765          686.75         312.459 
       0.490885         680.006         303.938 
       0.497035          666.55         295.812 
       0.503198         665.679          288.14 
       0.509342         653.165         280.944 
       0.515458         640.211          274.13 
       0.521598          639.16         267.525 
       0.527764         624.117         261.044 
       0.533884          617.42         254.745 
           0.54         613.222         248.581 
       0.546137         603.994         242.529 
       0.552299         600.381         236.611 
       0.558452         592.493         230.902 
       0.564573         589.411          225.46 
       0.570708         582.188         220.251 
       0.576825         570.693         215.278 
       0.582926         569.259         210.498 
       0.589034         560.833         205.855 
       0.595184         555.355         201.306 
       0.601379         546.913         196.844 
       0.607522         538.236         192.536 
       0.613639         537.557         188.357 
       0.619772         533.807         184.279 
       0.625918         524.888         180.309 
       0.632068         522.651         176.458 
       0.638161         516.187         172.767 
         0.6443         509.979         169.175 
       0.650464         506.129          165.69 
       0.656582         501.994         162.338 
       0.662703         496.827         159.079 
       0.668861         490.355         155.886 
       0.675024         488.254         152.765 
       0.681124         478.245         149.751 
       0.687237         478.562         146.807 
       0.693381         470.862         143.926 
       0.699536         471.494          141.12 
       0.705665         464.006         138.408 
       0.711789         462.902         135.777 
       0.717957         456.903         133.202 
        0.72409         452.781         130.711 
       0.730186         452.442           128.3 
       0.736317         445.612         125.937 
       0.742472         441.096         123.621 
       0.748622         439.911         121.364 
        0.75476         434.084         119.165 
       0.760888         432.176         117.024 
       0.767043         429.016         114.926 
       0.773185         425.387         112.884 
       0.779291         421.275         110.904 
       0.785407          417.98         108.971 
       0.791564         415.923         107.074 
       0.797719         409.299         105.223 
       0.803834         410.359          103.43 
       0.809972         403.814         101.672 
       0.816124         401.031         99.9523 
       0.822261         398.524         98.2771 
       0.828378         396.603         96.6452 
       0.834502         390.302          95.049 
       0.840667         389.597         93.4785 
       0.846816         385.133         91.9479 
       0.852925         385.463         90.4612 
       0.859047         380.911         89.0045 
       0.865192         378.766         87.5752 
       0.871341         374.357         86.1765 
       0.877463         373.337          84.815 
       0.883569         369.967         83.4866 
       0.889708         366.105         82.1802 
       0.895864         362.053         80.8986 
       0.902008         361.352         79.6472 
       0.908149          357.71         78.4233 
       0.914301         356.627         77.2233 
       0.920448         352.378         76.0497 
       0.926574         350.461         74.9048 
       0.932687         349.655          73.786 
       0.938823         345.511         72.6862 
       0.944975         344.708         71.6064 
       0.951105          341.71         70.5525 
       0.957225          337.38         69.5218 
       0.963368         337.778         68.5082 
       0.969511         332.826          67.515 
       0.975621           330.6         66.5468 
       0.981748         329.642         65.5953 
       0.987916         327.444         64.6565 
        0.99406         324.201         63.7397 
        1.00019         321.014         62.8426 
        1.00632         320.561         61.9637 
        1.01246         317.733         61.1003 
        1.01859         314.956         60.2549 
        1.02471         313.179         59.4266 
        1.03085         311.789         58.6111 
        1.03698         309.892         57.8127 
        1.04314         307.952         57.0259 
        1.04929         306.348         56.2557 
        1.05541         303.374         55.5029 
        1.06154         301.073          54.762 
        1.06769         298.785         54.0337 
        1.07382         296.409         53.3211 
        1.07993         295.778          52.623 
        1.08607             294         51.9346 
        1.09222         291.213         51.2579 
        1.09836         289.874         50.5941 
        1.10449         287.886          49.943 
        1.11063         286.386         49.3026 
        1.11677          283.19         48.6737 
         1.1229         282.665          48.057 
        1.12903         279.977         47.4505 
        1.13518         278.249         46.8539 
        1.14131         276.841          46.268 
        1.14745         274.337         45.6925 
        1.15359         272.219         45.1268 
        1.15973         270.865         44.5704 
        1.16584         269.296         44.0259 
        1.17197         267.762         43.4898 
        1.17811         264.928          42.961 
        1.18424          263.95         42.4425 
        1.19038         262.656         41.9312 
        1.19652         259.819         41.4285 
        1.20267         258.981         40.9341 
        1.20881         257.369         40.4478 
        1.21495         255.751         39.9703 
        1.22108         254.207         39.5006 
         1.2272         251.293         39.0395 
        1.23334          250.24         38.5848 
        1.23949         248.805         38.1363 
        1.24562           247.4         37.6961 
        1.25174         246.297         37.2636 
        1.25789         243.751         36.8366 
        1.26402         243.129         36.4171 
        1.27014          241.66         36.0051 
        1.27628         239.969         35.5983 
        1.28244         237.713          35.197 
        1.28858         237.069         34.8025 
        1.29471         235.379          34.415 
        1.30084         234.968         34.0337 
        1.30697         232.236         33.6576 
        1.31312         231.119         33.2867 
        1.31925         229.809         32.9226 
        1.32537         228.935         32.5643 
        1.33151         226.652         32.2101 
        1.33765         225.172         31.8614 
        1.34378         224.547         31.5185 
        1.34992         222.117         31.1805 
        1.35606         221.221         30.8467 
         1.3622          219.28         30.5185 
        1.36833         219.112         30.1958 
        1.37445         217.924         29.8779 
        1.38059         215.287         29.5637 
        1.38675         214.019         29.2532 
        1.39288         213.411         28.9485 
        1.39901         211.371         28.6483 
        1.40515         210.445         28.3516 
         1.4113         209.131         28.0593 
        1.41742         207.598         27.7722 
        1.42355         206.572         27.4886 
         1.4297         205.335         27.2081 
        1.43585         204.308         26.9316 
        1.44198         202.782         26.6601 
        1.44809         201.903         26.3928 
        1.45423         200.667         26.1282 
        1.46036         199.764         25.8677 
        1.46649         198.105         25.6107 
        1.47263         197.024         25.3569 
        1.47877         195.805         25.1068 
        1.48491         194.377         24.8596 
        1.49104         192.575         24.6163 
        1.49718         192.188          24.376 
        1.50333         190.577         24.1386 
        1.50947         189.541         23.9048 
         1.5156         188.585         23.6745 
        1.52172         187.362         23.4473 
        1.52787         186.274         23.2226 
          1.534         185.665         23.0011 
        1.54013         184.058         22.7827 
        1.54627         183.331         22.5668 
        1.55241         182.284         22.3536 
        1.55855          181.02         22.1435 
        1.56467         180.074         21.9367 
         1.5708         178.586          21.732 
        1.57695         178.005         21.5295 
        1.58308         176.856         21.3301 
        1.58922         175.463         21.1332 
        1.59535         174.316         20.9387 
         1.6015         173.629         20.7465 
        1.60764         172.244         20.5568 
        1.61376         171.234         20.3699 
        1.61989         170.239         20.1853 
        1.62604         169.511         20.0025 
        1.63218         168.211         19.8221 
        1.63831         167.677         19.6444 
        1.64444          166.24         19.4687 
        1.65059         165.347         19.2948 
        1.65673         164.344         19.1233 
        1.66285         163.401         18.9542 
        1.66898         162.577         18.7872 
        1.67512         161.414         18.6219 
        1.68127         160.595         18.4584 
         1.6874         159.619         18.2972 
        1.69353         159.014         18.1381 
        1.69967         157.618         17.9804 
        1.70581         157.144         17.8247 
        1.71193         156.063         17.6715 
        1.71806         154.892         17.5197 
        1.72421         154.083         17.3695 
        1.73035         153.183         17.2211 
        1.73649         152.065         17.0745 
        1.74262         151.327         16.9298 
        1.74876          150.59         16.7866 
        1.75489         150.114         16.6454 
        1.76101         148.875         16.5059 
        1.76715         147.999         16.3677 
        1.77329         146.977          16.231 
        1.77943         146.052         16.0958 
        1.78557         145.096         15.9623 
        1.79171         144.524         15.8303 
        1.79785          143.41         15.6998 
        1.80399          142.82         15.5708 
        1.81012         142.323         15.4434 
        1.81625         140.821         15.3175 
        1.82239         140.627         15.1928 
        1.82853         139.464         15.0696 
        1.83466         138.406         14.9479 
        1.84078         137.981         14.8276 
        1.84692         137.279         14.7085 
        1.85306         136.278         14.5905 
         1.8592         135.701          14.474 
        1.86533          134.57         14.3588 
        1.87147         133.732         14.2448 
        1.87761         133.163          14.132 
        1.88375         132.167         14.0205 
        1.88988         131.642         13.9103 
        1.89601         130.916         13.8013 
        1.90215          130.35         13.6933 
        1.90829         129.144         13.5866 
        1.91442          128.48         13.4809 
        1.92056          128.03         13.3765 
         1.9267           127.1         13.2731 
        1.93284         126.033         13.1708 
        1.93897         125.894         13.0697 
        1.94509         124.874         12.9699 
        1.95123         124.248         12.8708 
        1.95737         123.769         12.7728 
        1.96349         122.793          12.676 
        1.96964         121.964         12.5799 
        1.97578         121.367         12.4848 
        1.98192         120.926         12.3909 
        1.98805         120.167         12.2979 
        1.99419         119.262         12.2059 
        2.00033         118.673         12.1147 
        2.00647         118.032         12.0246 
         2.0126         117.254         11.9355 
        2.01874         116.552         11.8471 
        2.02488         116.054         11.7596 
        2.03101           115.5         11.6732 
        2.03714         114.826         11.5876 
        2.04328         114.103         11.5029 
        2.04941         113.542          11.419 
        2.05554         112.999         11.3361 
        2.06167         112.229         11.2539 
        2.06781         111.729         11.1724 
        2.07396          110.91         11.0917 
        2.08009         110.376         11.0119 
        2.08622         109.786          10.933 
        2.09237         108.944         10.8547 
        2.09851         108.594         10.7771 
        2.10464         108.034         10.7004 
        2.11077         107.373         10.6246 
        2.11691          106.73         10.5494 
        2.12305         106.069         10.4748 
        2.12918         105.638         10.4012 
        2.13531         104.883         10.3283 
        2.14145         104.479         10.2559 
         2.1476          103.81         10.1841 
        2.15372         103.126         10.1134 
        2.15985         102.668         10.0432 
        2.16599         101.898         9.97355 
        2.17213         101.506         9.90461 
        2.17827         100.993         9.83635 
         2.1844         100.338         9.76878 
        2.19054         99.9396         9.70183 
        2.19666         99.1424          9.6356 
         2.2028         98.8058         9.56993 
        2.20893         98.3127         9.50484 
        2.21508          97.516         9.44028 
        2.22122         96.8948          9.3763 
        2.22736         96.8099         9.31305 
        2.23349         96.2857         9.25039 
        2.23962         95.5655         9.18828 
        2.24577         94.8661         9.12669 
         2.2519         94.3902         9.06574 
        2.25802         94.0278         9.00545 
        2.26417         93.4132         8.94554 
        2.27031         92.8166         8.88612 
        2.27644         92.4001         8.82742 
        2.28257         92.1594         8.76925 
        2.28872         91.4906         8.71149 
        2.29486         91.0383         8.65426 
        2.30099         90.4341         8.59767 
        2.30712          90.029         8.54156 
        2.31326         89.4662         8.48585 
         2.3194         89.1492         8.43067 
        2.32553         88.6367         8.37608 
        2.33166         88.1468         8.32199 
         2.3378         87.5392         8.26831 
        2.34394         87.1387         8.21508 
        2.35007         86.5882          8.1624 
        2.35619         86.0435         8.11024 
        2.36233         85.6716         8.05842 
        2.36848         85.2441         8.00694 
        2.37462          84.991         7.95602 
        2.38075         84.3074         7.90559 
        2.38689         83.9567         7.85555 
        2.39303         83.6299         7.80596 
        2.39916         82.9825         7.75685 
        2.40529           82.67         7.70816 
        2.41143         82.0769         7.65985 
        2.41757         81.4828         7.61194 
         2.4237         81.2617         7.56453 
        2.42983         80.7655         7.51752 
        2.43598         80.3201         7.47079 
        2.44211         79.9955         7.42454 
        2.44823         79.5418         7.37878 
        2.45437         79.3025         7.33328 
        2.46052         78.7516         7.28813 
        2.46665         78.1664         7.24343 
        2.47279         77.8975         7.19913 
        2.47892         77.5122         7.15516 
        2.48507         77.1677         7.11153 
         2.4912         76.6232         7.06834 
