# k  (h/Mpc)    Pcb(k)  (Mpc/h)^3    Pcb_linear(k)  (Mpc/h)^3
     0.00783031         7849.47         7898.03 
       0.013688         9419.48         9608.28 
       0.019231         9468.78         9568.83 
      0.0249154         8724.05         8700.91 
      0.0312784         7393.48          7429.2 
      0.0375637         6231.06         6295.11 
      0.0433917         5497.25         5503.28 
      0.0492413          4915.6         4953.45 
      0.0555754          4541.6          4545.6 
      0.0619321          4113.5         4216.74 
       0.067871         3855.05         3901.16 
      0.0738098         3524.92         3545.88 
      0.0800417         3143.73         3144.76 
      0.0862327         2753.17         2759.96 
      0.0921407         2451.99         2444.51 
      0.0982031         2227.27         2194.61 
       0.104506         2014.84         2012.77 
       0.110769         1897.89         1890.54 
       0.116806         1830.81         1800.37 
       0.122832         1720.91          1712.4 
       0.129052         1622.44         1607.54 
       0.135211         1529.65         1486.94 
       0.141259         1393.53         1360.86 
       0.147318          1265.4         1240.14 
       0.153489         1175.75         1134.52 
       0.159709         1114.32         1051.51 
       0.165845         1027.14         991.469 
       0.171974         1008.14         946.962 
       0.178125         971.265         909.441 
       0.184229         908.512         871.841 
        0.19034         882.408         829.511 
       0.196428         843.635         782.255 
       0.202534           779.5         732.485 
       0.208729         755.105          683.77 
       0.214876         717.931         640.858 
       0.220989         670.629         605.399 
       0.227147         655.215         576.775 
        0.23329         631.451         553.543 
       0.239377         620.229         533.294 
       0.245482         589.342         513.439 
       0.251667         565.202         492.338 
       0.257832         556.393         470.016 
       0.263955         523.775         447.246 
       0.270079         502.918          425.06 
        0.27624         480.624         404.466 
       0.282372         468.335         386.352 
        0.28843         464.023         370.876 
       0.294538         440.989         357.248 
       0.300721         426.626          344.77 
        0.30691         419.468         332.828 
       0.313033         400.929         321.064 
       0.319153         393.756         309.145 
       0.325316         384.027         297.126 
        0.33145         373.712          285.43 
       0.337538         360.087         274.435 
       0.343633         348.894         264.255 
       0.349808         339.284         254.868 
       0.355968         332.243         246.331 
       0.362074          322.68         238.485 
       0.368217         318.689         230.993 
       0.374374          311.41          223.69 
       0.380519         298.716         216.524 
       0.386598         294.169         209.546 
       0.392688         286.607          202.73 
        0.39888         279.852         196.076 
       0.405048         274.184         189.794 
       0.411186         271.739         183.918 
       0.417313         266.495         178.423 
       0.423458         259.228          173.22 
       0.429607         252.788         168.257 
       0.435692         248.573          163.53 
       0.441815         243.584          158.91 
       0.447964         236.974         154.389 
       0.454126         233.446         149.993 
       0.460267         230.503         145.763 
       0.466387         225.612         141.712 
        0.47254         222.806         137.818 
       0.478662         216.268         134.126 
       0.484765         213.547          130.61 
       0.490885         210.322         127.226 
       0.497035         207.667         123.949 
       0.503198         205.118         120.777 
       0.509342         199.706         117.713 
       0.515458         197.096         114.752 
       0.521598         192.614         111.873 
       0.527764         190.611          109.08 
       0.533884         189.794          106.41 
           0.54         185.319          103.84 
       0.546137         181.179         101.353 
       0.552299         179.473         98.9447 
       0.558452         176.359         96.6228 
       0.564573          175.39         94.3883 
       0.570708         171.166         92.2183 
       0.576825         168.943         90.1189 
       0.582926         167.154          88.087 
       0.589034         164.669         86.1138 
       0.595184         163.251         84.1893 
       0.601379         159.902         82.3136 
       0.607522         156.908         80.5133 
       0.613639         155.837         78.7767 
       0.619772          153.96         77.0885 
       0.625918         152.758          75.447 
       0.632068         149.287         73.8524 
       0.638161         147.872          72.318 
         0.6443         146.977         70.8164 
       0.650464         144.076         69.3522 
       0.656582         143.382         67.9404 
       0.662703         141.863          66.568 
       0.668861         138.956         65.2263 
       0.675024         138.945          63.921 
       0.681124         136.705         62.6651 
       0.687237         134.854         61.4409 
       0.693381         133.679         60.2442 
       0.699536         132.108         59.0778 
       0.705665          130.58         57.9477 
       0.711789         128.923         56.8485 
       0.717957         127.525         55.7707 
        0.72409         126.369         54.7271 
       0.730186          126.12         53.7168 
       0.736317         124.039         52.7267 
       0.742472         122.252         51.7583 
       0.748622         120.464         50.8152 
        0.75476         120.742          49.898 
       0.760888         119.524         49.0049 
       0.767043          117.34         48.1304 
       0.773185         116.099         47.2793 
       0.779291         114.794         46.4538 
       0.785407         113.896          45.647 
       0.791564         113.239         44.8545 
       0.797719         111.646         44.0814 
       0.803834         111.397         43.3316 
       0.809972         110.476         42.5967 
       0.816124         108.884         41.8775 
       0.822261         107.833          41.177 
       0.828378         107.615         40.4948 
       0.834502          106.05         39.8276 
       0.840667         105.509         39.1714 
       0.846816         104.468         38.5319 
       0.852925         103.322         37.9108 
       0.859047         102.762         37.3023 
       0.865192          101.73         36.7052 
       0.871341         100.659          36.121 
       0.877463         99.8747         35.5522 
       0.883569         99.7884         34.9973 
       0.889708         98.8377         34.4515 
       0.895864         97.9743          33.916 
       0.902008         96.9825         33.3931 
       0.908149         95.7561         32.8817 
       0.914301         95.7021         32.3803 
       0.920448         95.3627         31.8899 
       0.926574         93.4624         31.4114 
       0.932687          93.405         30.9439 
       0.938823         92.6838         30.4843 
       0.944975         91.6439         30.0331 
       0.951105         90.8891         29.5927 
       0.957225         90.7371          29.162 
       0.963368         89.7207         28.7384 
       0.969511         89.1313         28.3233 
       0.975621         88.2596         27.9188 
       0.981748         87.5915         27.5211 
       0.987916         87.0303         27.1287 
        0.99406         86.7086         26.7456 
        1.00019         85.6415         26.3706 
        1.00632         85.0772         26.0032 
        1.01246         84.6238         25.6423 
        1.01859         84.2399          25.289 
        1.02471         83.4868         24.9427 
        1.03085          82.738         24.6018 
        1.03698         82.2515         24.2681 
        1.04314         81.6446         23.9391 
        1.04929         81.2906         23.6171 
        1.05541         80.6829         23.3023 
        1.06154         80.1881         22.9926 
        1.06769         79.5321          22.688 
        1.07382         78.8147           22.39 
        1.07993          78.615          22.098 
        1.08607         77.9897         21.8102 
        1.09222          77.716         21.5271 
        1.09836         76.9616         21.2495 
        1.10449         76.5534         20.9772 
        1.11063         76.0202         20.7093 
        1.11677         75.6144         20.4463 
         1.1229         74.9303         20.1883 
        1.12903         74.6989         19.9346 
        1.13518         74.3829          19.685 
        1.14131         73.7307           19.44 
        1.14745         73.3209         19.1992 
        1.15359         72.4401         18.9625 
        1.15973         72.4193         18.7298 
        1.16584         71.9174          18.502 
        1.17197         71.4059         18.2777 
        1.17811         70.9413         18.0565 
        1.18424         70.2535         17.8396 
        1.19038         70.1999         17.6256 
        1.19652         69.7749         17.4153 
        1.20267         69.2639         17.2084 
        1.20881          68.873          17.005 
        1.21495         68.4678         16.8051 
        1.22108          68.292         16.6086 
         1.2272         67.5484         16.4156 
        1.23334         67.3847         16.2253 
        1.23949         66.9163         16.0376 
        1.24562         66.4211         15.8534 
        1.25174         66.0942         15.6724 
        1.25789          65.982         15.4936 
        1.26402         65.4531          15.318 
        1.27014         65.1983         15.1456 
        1.27628         64.6098         14.9753 
        1.28244         64.5311         14.8073 
        1.28858         64.0436         14.6422 
        1.29471         63.6578         14.4799 
        1.30084         63.0643         14.3203 
        1.30697         63.1632         14.1628 
        1.31312         62.6474         14.0075 
        1.31925         62.1664          13.855 
        1.32537          61.898          13.705 
        1.33151          61.624         13.5566 
        1.33765         61.2787         13.4106 
        1.34378         60.9476          13.267 
        1.34992          60.683         13.1254 
        1.35606           60.23         12.9856 
         1.3622         60.0438         12.8481 
        1.36833         59.6421         12.7129 
        1.37445         59.1206         12.5798 
        1.38059         59.0626         12.4481 
        1.38675         58.4625         12.3181 
        1.39288         58.4505         12.1904 
        1.39901         57.9167         12.0646 
        1.40515         57.7676         11.9403 
         1.4113         57.5649         11.8178 
        1.41742         57.1664         11.6975 
        1.42355          56.921         11.5787 
         1.4297         56.6215         11.4612 
        1.43585         56.2584         11.3454 
        1.44198         55.9263         11.2316 
        1.44809         55.5932         11.1196 
        1.45423         55.4046         11.0087 
        1.46036          55.109         10.8995 
        1.46649         54.8881         10.7918 
        1.47263         54.5808         10.6855 
        1.47877         54.3741         10.5806 
        1.48491         54.0638          10.477 
        1.49104          53.652          10.375 
        1.49718         53.4925         10.2743 
        1.50333         53.2354         10.1748 
        1.50947         52.9945         10.0768 
         1.5156         52.7799         9.98025 
        1.52172         52.3901         9.88496 
        1.52787         52.1229         9.79074 
          1.534         51.8672         9.69786 
        1.54013         51.8199         9.60628 
        1.54627         51.3094         9.51573 
        1.55241         51.0934         9.42634 
        1.55855         50.9459         9.33823 
        1.56467         50.5141         9.25149 
         1.5708         50.4995         9.16561 
        1.57695         50.1773          9.0807 
        1.58308         49.8702         8.99707 
        1.58922         49.6723         8.91444 
        1.59535         49.5397         8.83288 
         1.6015         49.4539         8.75223 
        1.60764         49.0539         8.67264 
        1.61376         48.7908         8.59425 
        1.61989         48.4408         8.51678 
        1.62604          48.303          8.4401 
        1.63218         48.0046         8.36441 
        1.63831         47.9057         8.28982 
        1.64444          47.696         8.21613 
        1.65059         47.4053         8.14316 
        1.65673         47.1412         8.07116 
        1.66285         47.0367         8.00023 
        1.66898         46.6371         7.93014 
        1.67512         46.4902         7.86076 
        1.68127         46.3193         7.79214 
         1.6874         46.0821          7.7245 
        1.69353         45.9289         7.65771 
        1.69967         45.7299         7.59156 
        1.70581         45.4218         7.52621 
        1.71193         45.2494         7.46189 
        1.71806         45.0553         7.39818 
        1.72421         44.8691          7.3351 
        1.73035         44.6376         7.27282 
        1.73649         44.3456         7.21128 
        1.74262          44.065         7.15051 
        1.74876         44.1133         7.09039 
        1.75489         43.7609          7.0311 
        1.76101         43.6106          6.9725 
        1.76715         43.4939         6.91449 
        1.77329         43.0734         6.85707 
        1.77943         43.1165         6.80029 
        1.78557         42.8869         6.74423 
        1.79171         42.6404         6.68879 
        1.79785         42.4766         6.63398 
        1.80399         42.2407         6.57979 
        1.81012         42.1036         6.52628 
        1.81625         41.7848         6.47339 
        1.82239         41.6389         6.42101 
        1.82853         41.5046         6.36924 
        1.83466         41.2892         6.31809 
        1.84078         41.1185         6.26756 
        1.84692         40.9049          6.2175 
        1.85306         40.7018         6.16793 
         1.8592         40.5737         6.11898 
        1.86533         40.3914         6.07059 
        1.87147         40.2044         6.02267 
        1.87761         39.9796         5.97525 
        1.88375         39.8399         5.92839 
        1.88988         39.7039         5.88209 
        1.89601         39.4673         5.83627 
        1.90215         39.2769         5.79089 
        1.90829         39.1313         5.74602 
        1.91442           38.93         5.70163 
        1.92056          38.798         5.65775 
         1.9267         38.7139         5.61428 
        1.93284          38.461         5.57125 
        1.93897         38.3612         5.52875 
        1.94509         38.0739         5.48679 
        1.95123         37.9913         5.44516 
        1.95737          37.762         5.40393 
        1.96349         37.6971         5.36324 
        1.96964         37.4525         5.32285 
        1.97578         37.2805         5.28286 
        1.98192         37.1016         5.24336 
        1.98805         36.9305         5.20427 
        1.99419         36.8193         5.16557 
        2.00033         36.6534         5.12724 
        2.00647          36.566         5.08932 
         2.0126         36.3228         5.05185 
        2.01874         36.1991         5.01469 
        2.02488         35.9697         4.97788 
        2.03101         35.8718         4.94151 
        2.03714         35.7179         4.90554 
        2.04328          35.596         4.86988 
        2.04941         35.3858         4.83461 
        2.05554         35.2663         4.79972 
        2.06167         35.1081         4.76512 
        2.06781         34.9489         4.73086 
        2.07396         34.7946         4.69689 
        2.08009         34.6584         4.66332 
        2.08622         34.5153         4.63011 
        2.09237         34.3497         4.59716 
        2.09851         34.2231         4.56453 
        2.10464         34.0676         4.53227 
        2.11077         33.9687         4.50036 
        2.11691         33.7146         4.46868 
        2.12305         33.5723         4.43732 
        2.12918         33.4798         4.40633 
        2.13531         33.3354         4.37563 
        2.14145         33.2086         4.34516 
         2.1476         33.0602         4.31494 
        2.15372          32.978         4.28516 
        2.15985         32.7506         4.25563 
        2.16599           32.58          4.2263 
        2.17213         32.4937         4.19728 
        2.17827         32.3569         4.16853 
         2.1844          32.208         4.14009 
        2.19054         32.1072         4.11189 
        2.19666         31.9117         4.08401 
         2.2028         31.7975         4.05635 
        2.20893         31.7182         4.02894 
        2.21508         31.5792         4.00176 
        2.22122          31.435         3.97481 
        2.22736          31.247         3.94817 
        2.23349          31.163         3.92179 
        2.23962         31.0308         3.89563 
        2.24577          30.905         3.86968 
         2.2519         30.7402         3.84402 
        2.25802         30.6132         3.81862 
        2.26417         30.4812         3.79338 
        2.27031          30.385         3.76835 
        2.27644         30.3208         3.74362 
        2.28257         30.1132         3.71912 
        2.28872         30.0611         3.69478 
        2.29486         29.8942         3.67067 
        2.30099         29.7164         3.64683 
        2.30712         29.6466         3.62318 
        2.31326         29.5007         3.59971 
         2.3194         29.3728         3.57646 
        2.32553         29.2852         3.55345 
        2.33166         29.1587         3.53066 
         2.3378         29.0202         3.50804 
        2.34394         28.9164          3.4856 
        2.35007         28.8469          3.4634 
        2.35619         28.7245         3.44142 
        2.36233          28.544         3.41957 
        2.36848         28.4602         3.39787 
        2.37462         28.3763         3.37641 
        2.38075         28.1922         3.35515 
        2.38689         28.0825         3.33406 
        2.39303         28.0367         3.31315 
        2.39916         27.8331         3.29245 
        2.40529         27.7445         3.27192 
        2.41143         27.6309         3.25156 
        2.41757         27.5345         3.23136 
         2.4237         27.4432         3.21137 
        2.42983         27.2802         3.19155 
        2.43598         27.1652         3.17185 
        2.44211         27.0866         3.15234 
        2.44823         26.9358         3.13304 
        2.45437         26.9329         3.11386 
        2.46052          26.761         3.09481 
        2.46665          26.646         3.07597 
        2.47279          26.492         3.05728 
        2.47892         26.4178         3.03874 
        2.48507         26.3296         3.02033 
         2.4912         26.2412         3.00211 
