# k  (h/Mpc)    P(k)  (Mpc/h)^3    P_linear(k)  (Mpc/h)^3
     0.00783031          6574.1         6634.93 
       0.013688         7900.86         8062.25 
       0.019231         7939.63         8024.95 
      0.0249154         7308.28         7294.85 
      0.0312784         6199.33         6227.36 
      0.0375637         5227.19         5276.05 
      0.0433917            4609         4612.02 
      0.0492413         4122.98         4150.99 
      0.0555754         3808.58         3809.03 
      0.0619321         3455.18         3533.33 
       0.067871            3236          3268.8 
      0.0738098         2956.62         2971.05 
      0.0800417         2636.34         2634.91 
      0.0862327         2308.36         2312.46 
      0.0921407         2053.89         2048.13 
      0.0982031         1863.81         1838.73 
       0.104506         1687.02         1686.37 
       0.110769         1588.76         1583.95 
       0.116806         1531.85         1508.39 
       0.122832         1440.37         1434.68 
       0.129052         1358.58         1346.82 
       0.135211         1278.02         1245.77 
       0.141259         1164.35         1140.14 
       0.147318         1056.55         1038.99 
       0.153489         980.374         950.498 
       0.159709         926.879         880.952 
       0.165845         855.177          830.65 
       0.171974         838.608         793.359 
       0.178125         807.048         761.923 
       0.184229         756.939         730.423 
        0.19034         733.891         694.958 
       0.196428         700.275         655.364 
       0.202534         646.764         613.667 
       0.208729         624.842         572.853 
       0.214876         593.956         536.902 
       0.220989         553.884         507.195 
       0.227147         541.008         483.214 
        0.23329         521.417         463.749 
       0.239377         510.809         446.785 
       0.245482          485.71          430.15 
       0.251667         465.338         412.471 
       0.257832         457.711         393.771 
       0.263955         430.419         374.693 
       0.270079         412.706         356.106 
        0.27624          394.11         338.853 
       0.282372          383.11         323.677 
        0.28843          379.42         310.712 
       0.294538         360.959         299.294 
       0.300721         348.317          288.84 
        0.30691         342.561         278.836 
       0.313033         327.526         268.981 
       0.319153         321.468         258.995 
       0.325316          312.31         248.925 
        0.33145         303.373         239.127 
       0.337538         292.461         229.915 
       0.343633         283.213         221.386 
       0.349808         275.041         213.523 
       0.355968         268.968          206.37 
       0.362074         261.924         199.797 
       0.368217         257.821         193.521 
       0.374374         251.652         187.401 
       0.380519         241.283         181.398 
       0.386598         237.106         175.552 
       0.392688         230.716         169.841 
        0.39888         225.663         164.267 
       0.405048         220.879         159.004 
       0.411186         218.231         154.082 
       0.417313         213.526         149.478 
       0.423458         207.847         145.119 
       0.429607         202.984         140.961 
       0.435692         199.575         137.001 
       0.441815         195.003          133.13 
       0.447964         189.439         129.342 
       0.454126         186.316          125.66 
       0.460267         184.285         122.116 
       0.466387         180.195         118.722 
        0.47254         178.019          115.46 
       0.478662         172.351         112.367 
       0.484765         170.104         109.422 
       0.490885         167.076         106.587 
       0.497035         165.386         103.841 
       0.503198         162.615         101.184 
       0.509342         158.345         98.6164 
       0.515458         156.323         96.1359 
       0.521598         152.591         93.7237 
       0.527764         151.037          91.384 
       0.533884         150.276         89.1469 
           0.54         146.381         86.9938 
       0.546137         143.086         84.9107 
       0.552299         141.369         82.8929 
       0.558452         138.868         80.9478 
       0.564573         138.212         79.0758 
       0.570708         134.566         77.2578 
       0.576825         132.983          75.499 
       0.582926         131.546         73.7966 
       0.589034         129.462         72.1437 
       0.595184         128.153         70.5313 
       0.601379         125.288         68.9599 
       0.607522         123.081         67.4516 
       0.613639         122.158         65.9968 
       0.619772         120.332         64.5825 
       0.625918         119.425         63.2073 
       0.632068         116.844         61.8713 
       0.638161         115.402         60.5858 
         0.6443         114.783         59.3278 
       0.650464         112.415         58.1012 
       0.656582         111.985         56.9185 
       0.662703         110.606         55.7687 
       0.668861         108.252         54.6446 
       0.675024         108.251         53.5511 
       0.681124         106.438         52.4989 
       0.687237         104.696         51.4733 
       0.693381         103.971         50.4708 
       0.699536         102.664         49.4936 
       0.705665         101.339         48.5468 
       0.711789         100.016          47.626 
       0.717957         98.8639          46.723 
        0.72409         98.0236         45.8487 
       0.730186         97.5718         45.0023 
       0.736317         95.8933         44.1729 
       0.742472          94.586         43.3615 
       0.748622         93.2158         42.5715 
        0.75476         93.0423          41.803 
       0.760888         92.3686         41.0548 
       0.767043         90.5783         40.3222 
       0.773185          89.527         39.6091 
       0.779291         88.5532         38.9175 
       0.785407         87.6702         38.2416 
       0.791564          87.397         37.5777 
       0.797719         86.1495           36.93 
       0.803834         85.6509         36.3019 
       0.809972           84.94         35.6862 
       0.816124         83.8388         35.0837 
       0.822261         82.8349         34.4968 
       0.828378         82.6683         33.9253 
       0.834502         81.4569         33.3664 
       0.840667         80.9677         32.8166 
       0.846816         80.1903         32.2808 
       0.852925         79.2638         31.7605 
       0.859047         79.0257         31.2507 
       0.865192         77.9267         30.7505 
       0.871341         77.0801         30.2611 
       0.877463         76.5032         29.7846 
       0.883569           76.39         29.3197 
       0.889708         75.6265         28.8624 
       0.895864         75.0053         28.4138 
       0.902008         74.2463         27.9757 
       0.908149         73.3328         27.5473 
       0.914301         73.1174         27.1272 
       0.920448         72.8658         26.7164 
       0.926574         71.4056         26.3155 
       0.932687         71.2142         25.9239 
       0.938823         70.6429         25.5388 
       0.944975         69.8005         25.1608 
       0.951105          69.279         24.7918 
       0.957225         69.1013          24.431 
       0.963368         68.3848         24.0762 
       0.969511         67.8462         23.7284 
       0.975621         67.3036         23.3895 
       0.981748         66.6843         23.0563 
       0.987916         66.2197         22.7276 
        0.99406         65.8963         22.4066 
        1.00019         65.1014         22.0925 
        1.00632         64.6805         21.7847 
        1.01246         64.2829         21.4824 
        1.01859         64.0002         21.1863 
        1.02471         63.3018         20.8962 
        1.03085         62.8584         20.6106 
        1.03698         62.5048          20.331 
        1.04314         62.0116         20.0555 
        1.04929         61.5606         19.7857 
        1.05541         61.2125          19.522 
        1.06154         60.8316         19.2624 
        1.06769         60.1796         19.0073 
        1.07382         59.7195         18.7576 
        1.07993         59.5373         18.5131 
        1.08607         59.0503         18.2719 
        1.09222          58.833         18.0348 
        1.09836         58.3147         17.8022 
        1.10449         57.9943          17.574 
        1.11063         57.5068         17.3496 
        1.11677           57.33         17.1292 
         1.1229         56.7279         16.9131 
        1.12903         56.5429         16.7006 
        1.13518         56.3827         16.4915 
        1.14131         55.7862         16.2862 
        1.14745          55.382         16.0845 
        1.15359          54.797         15.8862 
        1.15973          54.804         15.6912 
        1.16584         54.3782         15.5004 
        1.17197         53.8335         15.3125 
        1.17811         53.6161         15.1271 
        1.18424         52.9278         14.9454 
        1.19038         52.8788         14.7662 
        1.19652         52.6335           14.59 
        1.20267          52.257         14.4167 
        1.20881         51.9313         14.2462 
        1.21495         51.6955         14.0788 
        1.22108         51.5485         13.9141 
         1.2272         50.9981         13.7525 
        1.23334         50.7751         13.5931 
        1.23949          50.457         13.4358 
        1.24562         50.1076         13.2815 
        1.25174         49.8113         13.1298 
        1.25789         49.7516         12.9801 
        1.26402         49.3441          12.833 
        1.27014         49.1705         12.6885 
        1.27628         48.6577         12.5458 
        1.28244         48.6263         12.4051 
        1.28858         48.2396         12.2667 
        1.29471         47.9434         12.1308 
        1.30084         47.5295         11.9971 
        1.30697         47.5783         11.8651 
        1.31312         47.1405          11.735 
        1.31925         46.7547         11.6073 
        1.32537         46.5627         11.4816 
        1.33151         46.2891         11.3573 
        1.33765         46.1146          11.235 
        1.34378         45.9013         11.1147 
        1.34992         45.5816         10.9961 
        1.35606         45.2536         10.8789 
         1.3622         45.0939         10.7637 
        1.36833         44.8817         10.6505 
        1.37445         44.4424         10.5389 
        1.38059         44.3911         10.4287 
        1.38675         43.9518         10.3197 
        1.39288         43.9178         10.2127 
        1.39901         43.5683         10.1074 
        1.40515         43.4191         10.0032 
         1.4113         43.3553         9.90061 
        1.41742         43.0339         9.79984 
        1.42355         42.7103         9.70029 
         1.4297         42.5501         9.60183 
        1.43585          42.279         9.50478 
        1.44198         42.0132         9.40945 
        1.44809         41.7685         9.31562 
        1.45423         41.6534         9.22273 
        1.46036         41.4884         9.13127 
        1.46649         41.2598         9.04104 
        1.47263          40.998         8.95195 
        1.47877          40.831         8.86411 
        1.48491         40.6605         8.77732 
        1.49104         40.3289         8.69187 
        1.49718         40.2334          8.6075 
        1.50333         40.0632         8.52413 
        1.50947         39.8009         8.44203 
         1.5156          39.639         8.36114 
        1.52172         39.3612         8.28131 
        1.52787         39.2343         8.20237 
          1.534         38.9799         8.12456 
        1.54013         38.9791         8.04784 
        1.54627         38.5916         7.97198 
        1.55241         38.4051         7.89709 
        1.55855         38.3379         7.82327 
        1.56467         38.0614          7.7506 
         1.5708         37.9849         7.67866 
        1.57695         37.7784         7.60753 
        1.58308         37.4712         7.53746 
        1.58922         37.3352         7.46823 
        1.59535         37.2054         7.39991 
         1.6015         37.1592         7.33234 
        1.60764         36.8567         7.26566 
        1.61376         36.6581         7.19999 
        1.61989          36.417         7.13509 
        1.62604         36.2971         7.07085 
        1.63218          36.099         7.00744 
        1.63831         36.0004         6.94495 
        1.64444         35.8216         6.88321 
        1.65059         35.6338         6.82208 
        1.65673         35.4745         6.76176 
        1.66285         35.4058         6.70234 
        1.66898         35.0946         6.64362 
        1.67512          35.025         6.58549 
        1.68127         34.8367         6.52801 
         1.6874         34.6759         6.47135 
        1.69353         34.5966         6.41539 
        1.69967         34.4347         6.35997 
        1.70581         34.1732         6.30522 
        1.71193         34.0257         6.25134 
        1.71806         33.9351         6.19796 
        1.72421         33.7742         6.14511 
        1.73035         33.5954         6.09294 
        1.73649         33.3736         6.04138 
        1.74262         33.1833         5.99047 
        1.74876         33.1896         5.94011 
        1.75489         32.9493         5.89043 
        1.76101         32.8451         5.84134 
        1.76715         32.7281         5.79274 
        1.77329         32.4571         5.74464 
        1.77943         32.4339         5.69706 
        1.78557         32.3101          5.6501 
        1.79171         32.1484         5.60366 
        1.79785         32.0024         5.55773 
        1.80399         31.8501         5.51234 
        1.81012         31.7597         5.46751 
        1.81625         31.4695          5.4232 
        1.82239         31.3994         5.37932 
        1.82853         31.2752         5.33594 
        1.83466         31.1173         5.29309 
        1.84078         30.9734         5.25076 
        1.84692         30.8593         5.20882 
        1.85306         30.6762          5.1673 
         1.8592          30.631         5.12629 
        1.86533         30.4602         5.08575 
        1.87147         30.3208          5.0456 
        1.87761         30.1471         5.00587 
        1.88375         30.1025         4.96662 
        1.88988         29.9452         4.92783 
        1.89601         29.7497         4.88944 
        1.90215         29.6716         4.85143 
        1.90829         29.5709         4.81384 
        1.91442         29.3947         4.77664 
        1.92056         29.2933         4.73988 
         1.9267         29.2185         4.70347 
        1.93284         29.0675         4.66742 
        1.93897         28.9802         4.63181 
        1.94509         28.8279         4.59666 
        1.95123         28.7383         4.56178 
        1.95737         28.5582         4.52724 
        1.96349         28.4883         4.49315 
        1.96964         28.4055         4.45931 
        1.97578         28.1751         4.42581 
        1.98192           28.09         4.39272 
        1.98805          27.919         4.35997 
        1.99419          27.862         4.32755 
        2.00033         27.7144         4.29544 
        2.00647           27.67         4.26367 
         2.0126         27.4859         4.23228 
        2.01874         27.3886         4.20115 
        2.02488         27.2407         4.17031 
        2.03101         27.1021         4.13984 
        2.03714          27.053          4.1097 
        2.04328         26.9314         4.07983 
        2.04941         26.8023         4.05029 
        2.05554         26.7254         4.02105 
        2.06167         26.5824         3.99207 
        2.06781         26.5152         3.96337 
        2.07396         26.4023         3.93491 
        2.08009         26.2603         3.90678 
        2.08622         26.1634         3.87896 
        2.09237         26.1015         3.85135 
        2.09851         25.9385         3.82402 
        2.10464         25.7927         3.79699 
        2.11077         25.7833         3.77026 
        2.11691         25.6298         3.74372 
        2.12305         25.5335         3.71744 
        2.12918         25.4286         3.69148 
        2.13531         25.3412         3.66576 
        2.14145         25.2292         3.64023 
         2.1476         25.0795         3.61492 
        2.15372         25.0433         3.58997 
        2.15985         24.9167         3.56523 
        2.16599         24.7713         3.54066 
        2.17213         24.7234         3.51635 
        2.17827          24.593         3.49227 
         2.1844         24.5202         3.46843 
        2.19054         24.4678         3.44481 
        2.19666         24.3039         3.42145 
         2.2028          24.274         3.39828 
        2.20893         24.1322         3.37532 
        2.21508         24.0378         3.35255 
        2.22122         23.9257         3.32997 
        2.22736         23.8824         3.30766 
        2.23349         23.7094         3.28555 
        2.23962         23.6612         3.26363 
        2.24577         23.5495          3.2419 
         2.2519          23.475         3.22039 
        2.25802         23.3292         3.19912 
        2.26417         23.2488         3.17798 
        2.27031         23.1867         3.15701 
        2.27644         23.1252         3.13629 
        2.28257         23.0112         3.11576 
        2.28872         22.9645         3.09537 
        2.29486         22.8417         3.07517 
        2.30099         22.7069          3.0552 
        2.30712         22.6594         3.03539 
        2.31326         22.5316         3.01572 
         2.3194         22.4706         2.99625 
        2.32553          22.405         2.97697 
        2.33166         22.2764         2.95788 
         2.3378         22.2237         2.93892 
        2.34394         22.1227         2.92013 
        2.35007         22.0571         2.90153 
        2.35619         22.0032         2.88311 
        2.36233         21.8245         2.86481 
        2.36848         21.7577         2.84663 
        2.37462         21.7326         2.82865 
        2.38075         21.6202         2.81084 
        2.38689         21.4952         2.79317 
        2.39303         21.4575         2.77566 
        2.39916         21.3335         2.75831 
        2.40529         21.2817         2.74111 
        2.41143         21.1711         2.72405 
        2.41757         21.0624         2.70713 
         2.4237         21.0223         2.69038 
        2.42983         20.9402         2.67378 
        2.43598          20.832         2.65727 
        2.44211         20.7871         2.64093 
        2.44823         20.6725         2.62477 
        2.45437         20.6665         2.60869 
        2.46052         20.5365         2.59274 
        2.46665         20.4945         2.57695 
        2.47279         20.3693         2.56129 
        2.47892         20.3003         2.54576 
        2.48507         20.2399         2.53034 
         2.4912         20.1579         2.51508 
