# k  (h/Mpc)    P(k)  (Mpc/h)^3    P_linear(k)  (Mpc/h)^3
     0.00783031         15816.1           15945 
       0.013688         17101.2           17549 
       0.019231         15777.1         15997.3 
      0.0249154         13395.3         13298.6 
      0.0312784         10334.3         10354.8 
      0.0375637         8130.64         8193.81 
      0.0433917         6945.46         6921.87 
      0.0492413         6155.02         6171.06 
      0.0555754         5693.15         5669.53 
      0.0619321         5106.76          5226.4 
       0.067871         4692.24         4727.57 
      0.0738098         4152.83          4135.7 
      0.0800417         3550.88          3495.1 
      0.0862327         2993.78         2941.11 
      0.0921407         2625.74          2547.5 
      0.0982031         2391.18         2286.96 
       0.104506          2182.5         2133.73 
       0.110769         2090.67         2041.36 
       0.116806          2019.9            1954 
       0.122832         1881.41         1834.25 
       0.129052         1724.75         1670.88 
       0.135211         1593.46         1489.11 
       0.141259         1415.22          1320.1 
       0.147318         1274.85         1182.47 
       0.153489         1182.98         1083.61 
       0.159709         1137.37         1021.13 
       0.165845         1059.52          982.11 
       0.171974         1045.58         949.093 
       0.178125         1004.19         908.821 
       0.184229         925.059         856.295 
        0.19034         887.617         793.781 
       0.196428         840.206         729.236 
       0.202534          767.47         670.462 
       0.208729         746.222          622.41 
       0.214876         707.163         587.371 
       0.220989         666.275         562.415 
       0.227147         651.125         542.586 
        0.23329         626.409         523.372 
       0.239377         617.215         501.728 
       0.245482         581.803         476.576 
       0.251667         555.363         448.964 
       0.257832         542.021         421.763 
       0.263955         509.588         397.357 
       0.270079         487.694         376.885 
        0.27624         467.235         360.265 
       0.282372         456.812         346.721 
        0.28843         450.993         334.846 
       0.294538         427.604         323.051 
       0.300721         415.065         310.489 
        0.30691         405.555         297.142 
       0.313033         385.478         283.677 
       0.319153          378.29         270.649 
       0.325316         370.193         258.614 
        0.33145          359.55          248.03 
       0.337538         345.225         238.863 
       0.343633          335.13         230.701 
       0.349808         325.864         223.008 
       0.355968         319.357         215.541 
       0.362074         307.039         208.086 
       0.368217         303.966         200.546 
       0.374374         297.437         193.071 
       0.380519         284.735         185.889 
       0.386598         280.671         179.248 
       0.392688          272.54         173.118 
        0.39888         265.992           167.4 
       0.405048         259.318         162.132 
       0.411186         258.022         157.158 
       0.417313         253.257         152.346 
       0.423458         246.443         147.626 
       0.429607          238.46         142.978 
       0.435692         234.868         138.493 
       0.441815         230.133         134.156 
       0.447964         223.992          130.02 
       0.454126         221.028         126.101 
       0.460267         217.435         122.424 
       0.466387         211.792         118.956 
        0.47254         209.374         115.618 
       0.478662         203.962         112.405 
       0.484765         200.497         109.295 
       0.490885         197.835         106.269 
       0.497035         194.023          103.32 
       0.503198         192.641         100.467 
       0.509342         188.002         97.7343 
       0.515458         184.424         95.1358 
       0.521598         180.608         92.6433 
       0.527764         178.636         90.2419 
       0.533884         176.776         87.9449 
           0.54         173.506         85.7253 
       0.546137         169.383         83.5695 
       0.552299         167.546         81.4741 
       0.558452         164.781         79.4487 
       0.564573          163.99         77.4984 
       0.570708         159.742         75.6088 
       0.576825          157.44         73.7903 
       0.582926         156.099         72.0418 
       0.589034         153.143         70.3533 
       0.595184         151.699         68.7111 
       0.601379         149.223         67.1109 
       0.607522         145.445         65.5728 
       0.613639         144.799         64.0861 
       0.619772         143.425         62.6398 
       0.625918         141.436         61.2344 
       0.632068         138.584         59.8717 
       0.638161         137.892          58.564 
         0.6443         135.925         57.2878 
       0.650464          133.67         56.0463 
       0.656582         132.344         54.8512 
       0.662703         131.577         53.6909 
       0.668861         128.494         52.5574 
       0.675024         128.154         51.4551 
       0.681124         126.231         50.3952 
       0.687237         125.202         49.3628 
       0.693381         122.746         48.3544 
       0.699536         122.219         47.3726 
       0.705665         120.744         46.4226 
       0.711789         118.772         45.4999 
       0.717957         117.793         44.5963 
        0.72409         116.121         43.7225 
       0.730186         116.299         42.8776 
       0.736317         114.663         42.0505 
       0.742472         112.802         41.2422 
       0.748622         111.244         40.4559 
        0.75476         111.408         39.6917 
       0.760888         109.853         38.9483 
       0.767043         107.871         38.2211 
       0.773185         106.642         37.5139 
       0.779291         105.869         36.8287 
       0.785407          105.05         36.1596 
       0.791564         104.013          35.503 
       0.797719         102.246         34.8631 
       0.803834         102.432         34.2431 
       0.809972         101.184          33.636 
       0.816124         99.3366         33.0424 
       0.822261         98.7879         32.4648 
       0.828378         98.2617         31.9027 
       0.834502         97.4201         31.3535 
       0.840667         96.7927         30.8138 
       0.846816         95.1926         30.2883 
       0.852925         94.6627         29.7784 
       0.859047         93.6241         29.2793 
       0.865192         93.0069           28.79 
       0.871341         92.2797         28.3115 
       0.877463         91.2644         27.8462 
       0.883569         91.1896         27.3925 
       0.889708         90.3364         26.9466 
       0.895864         89.2235         26.5095 
       0.902008         88.2105         26.0831 
       0.908149         87.3322         25.6663 
       0.914301         86.7601          25.258 
       0.920448         86.8142         24.8589 
       0.926574         85.1631         24.4699 
       0.932687         85.0111           24.09 
       0.938823         84.4252         23.7169 
       0.944975         83.7767         23.3508 
       0.951105         82.8925         22.9938 
       0.957225         82.3721         22.6448 
       0.963368         81.7009         22.3019 
       0.969511         81.1033         21.9661 
       0.975621         79.8205         21.6389 
       0.981748         79.7075         21.3177 
       0.987916         79.0586         21.0009 
        0.99406          78.633         20.6917 
        1.00019         78.0316         20.3894 
        1.00632         77.2396         20.0934 
        1.01246         76.7918         19.8029 
        1.01859         76.2835         19.5186 
        1.02471         75.8288         19.2402 
        1.03085         75.1373         18.9662 
        1.03698         74.4817         18.6982 
        1.04314         74.1363         18.4343 
        1.04929         73.7503          18.176 
        1.05541         73.0719         17.9237 
        1.06154         72.3658         17.6757 
        1.06769         71.9331         17.4319 
        1.07382         71.5462         17.1935 
        1.07993         71.1982         16.9602 
        1.08607          70.772         16.7302 
        1.09222         70.1019         16.5043 
        1.09836         69.6351         16.2828 
        1.10449         69.2252         16.0656 
        1.11063          68.656         15.8522 
        1.11677         68.4393         15.6427 
         1.1229         67.5865         15.4373 
        1.12903         67.1734         15.2355 
        1.13518         66.6623         15.0371 
        1.14131         66.4737         14.8424 
        1.14745         66.1041         14.6512 
        1.15359         65.4625         14.4634 
        1.15973         65.2338         14.2788 
        1.16584         64.7546         14.0982 
        1.17197         64.3715         13.9205 
        1.17811         63.9242         13.7453 
        1.18424         63.3994         13.5736 
        1.19038          63.136         13.4043 
        1.19652         62.8524          13.238 
        1.20267         62.2807         13.0745 
        1.20881         61.8295         12.9138 
        1.21495         61.6146         12.7561 
        1.22108         61.2282          12.601 
         1.2272         60.9982         12.4488 
        1.23334         60.6486         12.2988 
        1.23949         60.0949          12.151 
        1.24562         59.6225         12.0059 
        1.25174         59.6384         11.8635 
        1.25789         59.1064         11.7229 
        1.26402         58.7332         11.5848 
        1.27014         58.2303         11.4494 
        1.27628         58.0626         11.3156 
        1.28244         57.9315         11.1838 
        1.28858         57.4743         11.0542 
        1.29471         57.0479          10.927 
        1.30084         56.6499         10.8018 
        1.30697         56.4038         10.6785 
        1.31312         56.2205         10.5569 
        1.31925         55.6165         10.4376 
        1.32537         55.3929         10.3202 
        1.33151         55.3074         10.2042 
        1.33765         54.7951         10.0901 
        1.34378         54.5288         9.97792 
        1.34992         54.2401         9.86739 
        1.35606         54.0159         9.75829 
         1.3622         53.6899         9.65103 
        1.36833         53.3496         9.54564 
        1.37445         53.0777         9.44188 
        1.38059         52.7429         9.33933 
        1.38675         52.4489         9.23806 
        1.39288         52.1608         9.13869 
        1.39901         51.8827         9.04083 
        1.40515         51.5285         8.94418 
         1.4113         51.3097         8.84897 
        1.41742         51.0668         8.75551 
        1.42355         50.8594         8.66323 
         1.4297         50.5372         8.57199 
        1.43585         50.4421         8.48211 
        1.44198         49.9161         8.39385 
        1.44809         49.6096         8.30701 
        1.45423         49.5947         8.22108 
        1.46036         49.2555         8.13652 
        1.46649         48.8858         8.05311 
        1.47263          48.586          7.9708 
        1.47877         48.4285         7.88968 
        1.48491         48.0268         7.80955 
        1.49104         47.9187         7.73071 
        1.49718         47.5806         7.65289 
        1.50333         47.4475         7.57602 
        1.50947         47.2133         7.50035 
         1.5156         47.0294         7.42583 
        1.52172          46.628         7.35232 
        1.52787         46.4761         7.27966 
          1.534          46.198         7.20807 
        1.54013         46.0697         7.13751 
        1.54627          45.673         7.06776 
        1.55241         45.6408         6.99894 
        1.55855         45.2025         6.93112 
        1.56467         44.8564         6.86439 
         1.5708         44.8926         6.79835 
        1.57695          44.522         6.73308 
        1.58308         44.4066         6.66881 
        1.58922         44.1379         6.60534 
        1.59535          44.084         6.54271 
         1.6015         43.7809          6.4808 
        1.60764         43.5748         6.41973 
        1.61376         43.3572         6.35961 
        1.61989         42.9978          6.3002 
        1.62604         42.8982         6.24142 
        1.63218         42.6442         6.18343 
        1.63831          42.493         6.12631 
        1.64444         42.3092         6.06988 
        1.65059         42.0572         6.01403 
        1.65673         41.8644         5.95894 
        1.66285         41.5857          5.9047 
        1.66898         41.3576         5.85111 
        1.67512         41.1517         5.79808 
        1.68127         41.0875         5.74566 
         1.6874         40.8799           5.694 
        1.69353         40.6452           5.643 
        1.69967         40.4271         5.59251 
        1.70581         40.2798         5.54265 
        1.71193         39.9679         5.49359 
        1.71806         39.8817         5.44501 
        1.72421         39.6316         5.39693 
        1.73035         39.5082         5.34948 
        1.73649         39.2798         5.30261 
        1.74262         39.0916         5.25633 
        1.74876         39.0061         5.21057 
        1.75489         38.7743         5.16546 
        1.76101         38.6281         5.12089 
        1.76715         38.4071         5.07678 
        1.77329          38.235         5.03313 
        1.77943         38.0551         4.98998 
        1.78557         37.9097          4.9474 
        1.79171         37.6255         4.90531 
        1.79785         37.5318         4.86369 
        1.80399         37.3562         4.82257 
        1.81012         37.1234         4.78198 
        1.81625         36.9946         4.74186 
        1.82239         36.7459         4.70215 
        1.82853         36.6725         4.66291 
        1.83466         36.4327         4.62416 
        1.84078         36.2468         4.58588 
        1.84692         36.1976         4.54798 
        1.85306         36.0227         4.51045 
         1.8592         35.7586         4.47341 
        1.86533         35.6681          4.4368 
        1.87147         35.4301         4.40056 
        1.87761           35.28          4.3647 
        1.88375         35.1265         4.32929 
        1.88988         34.9769          4.2943 
        1.89601         34.8921         4.25969 
        1.90215         34.6501         4.22542 
        1.90829         34.5313         4.19155 
        1.91442         34.3316         4.15805 
        1.92056         34.1723         4.12494 
         1.9267         34.0437         4.09215 
        1.93284         33.8972         4.05971 
        1.93897         33.6563         4.02767 
        1.94509         33.6162         3.99605 
        1.95123         33.4303         3.96468 
        1.95737          33.291         3.93363 
        1.96349         33.1611         3.90299 
        1.96964         33.0022         3.87259 
        1.97578         32.8342          3.8425 
        1.98192         32.6343         3.81278 
        1.98805         32.4813         3.78338 
        1.99419         32.4116         3.75428 
        2.00033         32.2343         3.72548 
        2.00647         32.0767         3.69698 
         2.0126           31.95         3.66883 
        2.01874         31.8583         3.64093 
        2.02488         31.6625         3.61329 
        2.03101         31.5505         3.58599 
        2.03714          31.408           3.559 
        2.04328          31.325         3.53225 
        2.04941         31.0529          3.5058 
        2.05554         30.9467         3.47964 
        2.06167         30.8132         3.45371 
        2.06781         30.7439         3.42803 
        2.07396          30.563         3.40259 
        2.08009         30.4722         3.37744 
        2.08622         30.3343         3.35258 
        2.09237         30.1945         3.32791 
        2.09851         29.9771         3.30349 
        2.10464         29.9113         3.27935 
        2.11077         29.7839         3.25549 
        2.11691         29.6339          3.2318 
        2.12305         29.5027         3.20835 
        2.12918         29.3805         3.18519 
        2.13531         29.1831         3.16226 
        2.14145         29.1218         3.13949 
         2.1476         29.0467         3.11693 
        2.15372         28.9047         3.09469 
        2.15985         28.7316         3.07266 
        2.16599         28.6088         3.05077 
        2.17213         28.5401         3.02912 
        2.17827         28.3945         3.00768 
         2.1844         28.2291         2.98647 
        2.19054         28.2208         2.96545 
        2.19666         28.0302         2.94467 
         2.2028         27.8839         2.92406 
        2.20893         27.7525         2.90365 
        2.21508          27.658          2.8834 
        2.22122         27.5057         2.86334 
        2.22736         27.3615         2.84351 
        2.23349          27.302         2.82388 
        2.23962         27.2346         2.80441 
        2.24577         27.0719         2.78512 
         2.2519         26.9577         2.76603 
        2.25802         26.7774         2.74715 
        2.26417         26.6399         2.72839 
        2.27031         26.5681         2.70979 
        2.27644         26.4703         2.69142 
        2.28257         26.4046         2.67322 
        2.28872         26.2525         2.65515 
        2.29486         26.1497         2.63725 
        2.30099         26.0595         2.61955 
        2.30712         25.9103         2.60201 
        2.31326         25.8394          2.5846 
         2.3194         25.6817         2.56735 
        2.32553         25.6292         2.55029 
        2.33166         25.4934          2.5334 
         2.3378          25.406         2.51663 
        2.34394         25.2575         2.50001 
        2.35007          25.163         2.48356 
        2.35619         25.0637         2.46728 
        2.36233         24.9711          2.4511 
        2.36848         24.8769         2.43504 
        2.37462         24.8028         2.41915 
        2.38075         24.6539         2.40343 
        2.38689         24.5057         2.38782 
        2.39303         24.4357         2.37236 
        2.39916         24.3518         2.35705 
        2.40529         24.2587         2.34188 
        2.41143         24.1751         2.32682 
        2.41757         24.0612          2.3119 
         2.4237         23.9442         2.29713 
        2.42983         23.8241         2.28249 
        2.43598         23.7428         2.26794 
        2.44211         23.6102         2.25354 
        2.44823         23.5441          2.2393 
        2.45437         23.4442         2.22514 
        2.46052         23.3633         2.21109 
        2.46665         23.2506         2.19718 
        2.47279          23.129          2.1834 
        2.47892         23.0894         2.16973 
        2.48507         22.9436         2.15616 
         2.4912         22.8517         2.14273 
