# k  (h/Mpc)    Pcb(k)  (Mpc/h)^3    Pcb_linear(k)  (Mpc/h)^3
     0.00783031         31485.4         31657.9 
       0.013688           33729           34882 
       0.019231         31194.7         31813.7 
      0.0249154         26679.1         26454.3 
      0.0312784         20466.6         20602.4 
      0.0375637         16091.6         16304.7 
      0.0433917         13792.4         13774.7 
      0.0492413         12216.7         12281.3 
      0.0555754         11291.8         11283.7 
      0.0619321         10057.2         10402.1 
       0.067871         9258.01         9409.51 
      0.0738098         8271.41         8231.66 
      0.0800417         7098.76         6956.72 
      0.0862327         6022.03         5854.13 
      0.0921407         5345.32         5070.72 
      0.0982031         4892.32         4552.17 
       0.104506         4447.58         4247.21 
       0.110769         4255.58         4063.36 
       0.116806          4093.7          3889.5 
       0.122832         3837.11         3651.16 
       0.129052         3498.84         3325.96 
       0.135211         3303.92         2964.16 
       0.141259          2950.9         2627.75 
       0.147318         2701.31          2353.8 
       0.153489         2518.16         2157.01 
       0.159709         2438.68         2032.65 
       0.165845            2272         1954.98 
       0.171974         2217.02         1889.26 
       0.178125         2147.95         1809.08 
       0.184229         1961.27         1704.54 
        0.19034         1916.39          1580.1 
       0.196428          1835.7         1451.62 
       0.202534         1712.24         1334.63 
       0.208729         1667.97         1238.98 
       0.214876         1575.95         1169.23 
       0.220989         1510.83         1119.55 
       0.227147         1463.69         1080.08 
        0.23329         1406.85         1041.83 
       0.239377         1398.67         998.744 
       0.245482         1328.37         948.681 
       0.251667         1278.81         893.719 
       0.257832          1246.1         839.572 
       0.263955          1188.1         790.995 
       0.270079         1151.79         750.237 
        0.27624         1106.38          717.15 
       0.282372         1093.74         690.191 
        0.28843         1063.09         666.554 
       0.294538         1018.71         643.075 
       0.300721         999.942         618.068 
        0.30691         967.704           591.5 
       0.313033         933.439         564.696 
       0.319153         924.436         538.762 
       0.325316         907.906         514.804 
        0.33145         883.238         493.737 
       0.337538         854.136         475.488 
       0.343633         835.431         459.242 
       0.349808         819.141         443.928 
       0.355968         801.435         429.062 
       0.362074         776.491         414.224 
       0.368217         769.696         399.213 
       0.374374         757.911         384.334 
       0.380519         731.707         370.036 
       0.386598         725.151         356.818 
       0.392688         705.953         344.615 
        0.39888         695.355         333.232 
       0.405048         677.387         322.746 
       0.411186         677.207         312.843 
       0.417313         664.783         303.266 
       0.423458         650.467         293.869 
       0.429607         632.623         284.617 
       0.435692         624.281          275.69 
       0.441815          612.95         267.057 
       0.447964         605.446         258.822 
       0.454126         595.903         251.022 
       0.460267         589.864         243.702 
       0.466387         574.604         236.798 
        0.47254         572.205         230.154 
       0.478662         558.693         223.758 
       0.484765         551.222         217.568 
       0.490885         548.981         211.543 
       0.497035          534.73         205.673 
       0.503198         532.899         199.993 
       0.509342         523.362         194.554 
       0.515458         514.748         189.381 
       0.521598         512.738          184.42 
       0.527764         501.155         179.639 
       0.533884         492.975         175.066 
           0.54         491.532         170.649 
       0.546137         483.412         166.357 
       0.552299         478.704         162.186 
       0.558452         472.164         158.154 
       0.564573         472.273         154.272 
       0.570708         462.828          150.51 
       0.576825         456.392          146.89 
       0.582926         454.035         143.409 
       0.589034         446.553         140.048 
       0.595184         442.361         136.779 
       0.601379           434.9         133.594 
       0.607522         428.996         130.532 
       0.613639         427.537         127.573 
       0.619772         423.542         124.694 
       0.625918         417.933         121.896 
       0.632068         415.981         119.183 
       0.638161         409.501          116.58 
         0.6443         405.391         114.039 
       0.650464         401.489         111.568 
       0.656582         397.479         109.189 
       0.662703         395.237         106.879 
       0.668861         389.336         104.623 
       0.675024          387.76         102.429 
       0.681124         379.277         100.319 
       0.687237         378.562         98.2637 
       0.693381         374.093         96.2564 
       0.699536         372.844          94.302 
       0.705665         367.868         92.4109 
       0.711789         365.702         90.5741 
       0.717957         361.877         88.7754 
        0.72409         357.997          87.036 
       0.730186         358.377          85.354 
       0.736317         352.727         83.7076 
       0.742472         349.824         82.0986 
       0.748622         349.457         80.5333 
        0.75476         342.376          79.012 
       0.760888         342.643         77.5323 
       0.767043         339.118         76.0846 
       0.773185         335.664         74.6769 
       0.779291         333.053         73.3129 
       0.785407         331.164          71.981 
       0.791564         329.378         70.6739 
       0.797719         324.439         69.4001 
       0.803834         322.928         68.1659 
       0.809972         319.342         66.9574 
       0.816124         317.775         65.7757 
       0.822261         315.155         64.6258 
       0.828378         313.304          63.507 
       0.834502         309.826         62.4138 
       0.840667         307.179         61.3393 
       0.846816         305.279         60.2933 
       0.852925         305.694         59.2783 
       0.859047         299.982         58.2847 
       0.865192         299.359         57.3106 
       0.871341         297.053         56.3582 
       0.877463         295.032         55.4318 
       0.883569         293.999         54.5287 
       0.889708         290.182         53.6411 
       0.895864         287.732         52.7711 
       0.902008         286.549         51.9222 
       0.908149         283.293         51.0925 
       0.914301         282.316         50.2797 
       0.920448         278.811         49.4853 
       0.926574         277.331         48.7109 
       0.932687         275.825         47.9547 
       0.938823         273.843         47.2119 
       0.944975         273.369         46.4832 
       0.951105         271.242         45.7724 
       0.957225         268.626         45.0777 
       0.963368         267.929         44.3951 
       0.969511         264.964         43.7266 
       0.975621         263.147         43.0755 
       0.981748         261.577         42.4359 
       0.987916         259.949         41.8053 
        0.99406         257.882         41.1899 
        1.00019         255.046         40.5881 
        1.00632         254.349         39.9989 
        1.01246         252.744         39.4205 
        1.01859         251.351         38.8545 
        1.02471         249.833         38.3003 
        1.03085         248.728          37.755 
        1.03698         245.267         37.2215 
        1.04314         244.774         36.6961 
        1.04929         243.412          36.182 
        1.05541         242.684         35.6798 
        1.06154         239.738          35.186 
        1.06769         238.568         34.7007 
        1.07382         236.811         34.2262 
        1.07993         236.536         33.7617 
        1.08607         233.995         33.3039 
        1.09222         233.201         32.8542 
        1.09836          231.23         32.4132 
        1.10449         229.908         31.9809 
        1.11063         228.928          31.556 
        1.11677          227.05          31.139 
         1.1229         226.206         30.7303 
        1.12903          224.06         30.3285 
        1.13518         222.436         29.9336 
        1.14131         220.845          29.546 
        1.14745         220.146         29.1654 
        1.15359         218.039         28.7915 
        1.15973         217.496          28.424 
        1.16584         216.885         28.0645 
        1.17197         215.016         27.7107 
        1.17811         212.811          27.362 
        1.18424         212.013         27.0202 
        1.19038          210.96         26.6833 
        1.19652         209.058         26.3522 
        1.20267         207.535         26.0268 
        1.20881         207.369         25.7069 
        1.21495         205.545         25.3929 
        1.22108         204.165         25.0841 
         1.2272         202.991         24.7812 
        1.23334         201.295         24.4827 
        1.23949         200.815         24.1883 
        1.24562         199.245         23.8996 
        1.25174         198.203          23.616 
        1.25789         197.022         23.3361 
        1.26402         195.655         23.0613 
        1.27014         194.849         22.7916 
        1.27628         193.364         22.5254 
        1.28244         192.287         22.2629 
        1.28858         191.328          22.005 
        1.29471          190.05         21.7517 
        1.30084          189.15         21.5026 
        1.30697         187.639         21.2571 
        1.31312         187.626          21.015 
        1.31925         185.796         20.7775 
        1.32537         185.487         20.5439 
        1.33151         183.773          20.313 
        1.33765         183.222         20.0858 
        1.34378         182.054         19.8625 
        1.34992         180.897         19.6425 
        1.35606         179.709         19.4253 
         1.3622         178.397         19.2118 
        1.36833         177.802          19.002 
        1.37445         177.192         18.7954 
        1.38059         175.486         18.5913 
        1.38675         174.088         18.3897 
        1.39288         173.522         18.1919 
        1.39901         172.924         17.9971 
        1.40515         171.504         17.8047 
         1.4113         170.523         17.6152 
        1.41742         169.308         17.4291 
        1.42355         168.411         17.2454 
         1.4297         167.792         17.0638 
        1.43585         166.735         16.8849 
        1.44198         165.847         16.7092 
        1.44809         165.368         16.5363 
        1.45423         163.888         16.3653 
        1.46036          163.17         16.1969 
        1.46649         162.284         16.0309 
        1.47263         161.698          15.867 
        1.47877         160.023         15.7056 
        1.48491         159.889         15.5461 
        1.49104         158.672         15.3891 
        1.49718         157.216         15.2342 
        1.50333         156.528         15.0812 
        1.50947         155.317         14.9305 
         1.5156         154.921         14.7822 
        1.52172          154.08         14.6359 
        1.52787         152.885         14.4912 
          1.534         152.493         14.3487 
        1.54013           151.9         14.2082 
        1.54627         150.766         14.0694 
        1.55241         150.094         13.9324 
        1.55855         148.917         13.7974 
        1.56467         148.457         13.6646 
         1.5708         147.916         13.5331 
        1.57695         146.867         13.4032 
        1.58308         146.007         13.2752 
        1.58922         145.035         13.1489 
        1.59535         144.175         13.0242 
         1.6015         143.569          12.901 
        1.60764         142.732         12.7794 
        1.61376         141.817         12.6597 
        1.61989         141.008         12.5415 
        1.62604         140.561         12.4245 
        1.63218         139.374          12.309 
        1.63831         138.817         12.1953 
        1.64444         138.708          12.083 
        1.65059         137.281         11.9718 
        1.65673         136.632         11.8621 
        1.66285         136.092         11.7542 
        1.66898         134.937         11.6475 
        1.67512         134.243         11.5419 
        1.68127         133.814         11.4376 
         1.6874         132.771         11.3347 
        1.69353         132.048         11.2332 
        1.69967         131.525         11.1327 
        1.70581         130.528         11.0335 
        1.71193         130.043         10.9358 
        1.71806         129.487         10.8391 
        1.72421         128.693         10.7434 
        1.73035         128.117         10.6489 
        1.73649         127.399         10.5556 
        1.74262          126.61         10.4635 
        1.74876         125.764         10.3724 
        1.75489         125.131         10.2826 
        1.76101         124.651         10.1939 
        1.76715         124.229         10.1061 
        1.77329         123.418         10.0192 
        1.77943         122.696         9.93329 
        1.78557         121.813         9.84852 
        1.79171         121.185         9.76473 
        1.79785         120.311         9.68189 
        1.80399         119.813         9.60003 
        1.81012          119.31         9.51922 
        1.81625         118.517         9.43937 
        1.82239         118.129         9.36032 
        1.82853         117.499          9.2822 
        1.83466         116.832         9.20506 
        1.84078         116.494         9.12886 
        1.84692          115.83         9.05341 
        1.85306         114.872         8.97871 
         1.8592         114.046         8.90497 
        1.86533         113.519         8.83209 
        1.87147         113.247         8.75995 
        1.87761         112.616         8.68857 
        1.88375         111.578         8.61808 
        1.88988         110.925         8.54844 
        1.89601          110.68         8.47952 
        1.90215         110.184         8.41132 
        1.90829         109.538         8.34389 
        1.91442         108.839         8.27719 
        1.92056         108.416         8.21129 
         1.9267         107.842         8.14603 
        1.93284         107.281         8.08143 
        1.93897         106.565         8.01766 
        1.94509         106.225         7.95471 
        1.95123         105.355         7.89228 
        1.95737         104.926         7.83047 
        1.96349         104.366         7.76948 
        1.96964         103.922         7.70895 
        1.97578         103.216         7.64905 
        1.98192         102.971          7.5899 
        1.98805          102.25         7.53137 
        1.99419         101.757         7.47344 
        2.00033         101.153          7.4161 
        2.00647         100.671         7.35938 
         2.0126         100.188         7.30334 
        2.01874         99.5371         7.24779 
        2.02488         99.0975         7.19278 
        2.03101         98.7674         7.13843 
        2.03714          98.014          7.0847 
        2.04328         97.4287         7.03145 
        2.04941         96.9949          6.9788 
        2.05554          96.485         6.92672 
        2.06167         95.9751          6.8751 
        2.06781         95.4025           6.824 
        2.07396         95.1564         6.77334 
        2.08009         94.4948         6.72328 
        2.08622           94.06         6.67379 
        2.09237         93.5519         6.62469 
        2.09851          93.011         6.57608 
        2.10464         92.6124         6.52803 
        2.11077         92.1876         6.48052 
        2.11691         91.6767         6.43337 
        2.12305         91.1797         6.38669 
        2.12918         90.7884         6.34059 
        2.13531         90.4358         6.29493 
        2.14145         89.8522         6.24962 
         2.1476         89.2507         6.20469 
        2.15372         88.5854         6.16043 
        2.15985         88.2988         6.11656 
        2.16599          87.996         6.07299 
        2.17213         87.5642         6.02989 
        2.17827          86.957         5.98722 
         2.1844          86.702         5.94499 
        2.19054         86.2085         5.90316 
        2.19666         85.8954         5.86179 
         2.2028           85.21         5.82077 
        2.20893         84.7086         5.78013 
        2.21508         84.2827         5.73983 
        2.22122         83.9719         5.69989 
        2.22736         83.6142         5.66042 
        2.23349         83.2001         5.62133 
        2.23962         82.8768         5.58259 
        2.24577         82.3901         5.54418 
         2.2519         81.7838         5.50618 
        2.25802         81.4178          5.4686 
        2.26417         80.9838         5.43126 
        2.27031         80.7304         5.39424 
        2.27644         80.3143         5.35766 
        2.28257          80.012         5.32143 
        2.28872         79.3473         5.28546 
        2.29486          79.073         5.24983 
        2.30099         78.8029          5.2146 
        2.30712         78.2858         5.17968 
        2.31326          77.815         5.14501 
         2.3194         77.5537         5.11068 
        2.32553         77.0761         5.07673 
        2.33166         76.6754         5.04309 
         2.3378         76.3088         5.00971 
        2.34394         75.8516         4.97662 
        2.35007         75.5305         4.94388 
        2.35619         75.1742         4.91147 
        2.36233         74.7554         4.87927 
        2.36848         74.4725          4.8473 
        2.37462         74.0277         4.81567 
        2.38075          73.803         4.78436 
        2.38689         73.3239          4.7533 
        2.39303         72.9956         4.72252 
        2.39916         72.6234         4.69205 
        2.40529         72.1145         4.66184 
        2.41143         71.8241         4.63188 
        2.41757          71.453         4.60216 
         2.4237         71.0691         4.57277 
        2.42983         70.8318         4.54362 
        2.43598          70.414         4.51466 
        2.44211         70.0934         4.48599 
        2.44823         69.7262         4.45764 
        2.45437         69.4339         4.42945 
        2.46052         69.0068         4.40148 
        2.46665         68.8937          4.3738 
        2.47279         68.4137         4.34637 
        2.47892          68.006         4.31916 
        2.48507         67.7162         4.29215 
         2.4912         67.4148         4.26542 
