# k  (h/Mpc)    P(k)  (Mpc/h)^3    P_linear(k)  (Mpc/h)^3
     0.00783031         2363.45         2385.67 
       0.013688         2768.63         2807.65 
       0.019231         2698.26         2715.38 
      0.0249154         2393.51          2388.8 
      0.0312784         1959.04         1958.94 
      0.0375637          1593.2         1596.88 
      0.0433917         1361.09         1356.67 
      0.0492413         1199.76         1200.34 
      0.0555754         1100.06         1095.34 
      0.0619321         1008.82         1018.68 
       0.067871         943.632         945.372 
      0.0738098         858.164         857.991 
      0.0800417         756.811         753.639 
      0.0862327         651.314         649.808 
      0.0921407         565.756         563.434 
      0.0982031         501.163         495.556 
       0.104506         449.251         448.309 
       0.110769         421.492         419.916 
       0.116806          406.68         402.271 
       0.122832         387.403         386.331 
       0.129052         368.115         365.669 
       0.135211          343.51         338.908 
       0.141259         311.436         308.311 
       0.147318         279.226         277.305 
       0.153489         253.154         249.404 
       0.159709         233.195         227.591 
       0.165845         215.161         212.676 
       0.171974         208.873         202.979 
       0.178125         201.246         196.123 
       0.184229         192.762         189.706 
        0.19034         186.448          181.86 
       0.196428         176.683         171.966 
       0.202534         162.994         160.447 
       0.208729         153.635         148.378 
       0.214876         143.863          137.37 
       0.220989         132.899         128.306 
       0.227147         127.958         121.363 
        0.23329         122.886         116.306 
       0.239377         119.374         112.442 
       0.245482         114.829         108.918 
       0.251667         110.006         105.043 
       0.257832         107.196         100.547 
       0.263955          100.82         95.5291 
       0.270079         95.6626         90.2901 
        0.27624          90.406         85.2382 
       0.282372         86.3895         80.7859 
        0.28843           84.13         77.1101 
       0.294538          80.511         74.1097 
       0.300721         77.1821         71.5907 
        0.30691         75.6786         69.3327 
       0.313033         72.8126         67.1071 
       0.319153         71.2652         64.7531 
       0.325316         67.8998         62.2112 
        0.33145         65.1833         59.5981 
       0.337538         62.7572         57.0422 
       0.343633         60.6711         54.6561 
       0.349808         58.3403          52.492 
       0.355968         56.4031           50.61 
       0.362074         55.2531         48.9744 
       0.368217         53.5669         47.4795 
       0.374374         52.3191         46.0524 
       0.380519         50.1841         44.6268 
       0.386598         48.6484         43.1915 
       0.392688         47.0269         41.7354 
        0.39888          45.988         40.2655 
       0.405048         44.7107         38.8603 
       0.411186         43.3624         37.5533 
       0.417313         42.0569          36.352 
       0.423458         40.7637         35.2539 
       0.429607         40.0251          34.237 
       0.435692         39.3087          33.283 
       0.441815         37.7983         32.3534 
       0.447964         36.5927         31.4342 
       0.454126         35.9219         30.5175 
       0.460267         35.4293         29.6177 
       0.466387         34.3536         28.7472 
        0.47254         33.7556         27.9082 
       0.478662         32.6212         27.1159 
       0.484765         31.8916         26.3733 
       0.490885         30.9294         25.6729 
       0.497035         30.3851         25.0031 
       0.503198         29.7471         24.3567 
       0.509342         28.8681         23.7307 
       0.515458         28.4428         23.1232 
       0.521598         27.7517         22.5267 
       0.527764         27.3018         21.9415 
       0.533884         26.6304         21.3786 
           0.54         26.0908         20.8378 
       0.546137         25.2815         20.3195 
       0.552299         24.8155         19.8216 
       0.558452         24.2507         19.3443 
       0.564573         23.9742         18.8865 
       0.570708         23.3589         18.4426 
       0.576825          23.002         18.0135 
       0.582926         22.5568         17.5977 
       0.589034         22.0825         17.1922 
       0.595184         21.7956         16.7949 
       0.601379         21.1891         16.4066 
       0.607522         20.7989          16.034 
       0.613639         20.4427          15.676 
       0.619772         20.0664         15.3301 
       0.625918         19.6628         14.9952 
       0.632068         19.4558         14.6708 
       0.638161         19.0424         14.3588 
         0.6443         18.7177         14.0527 
       0.650464         18.2402         13.7536 
       0.656582         18.1053         13.4649 
       0.662703         17.8469         13.1842 
       0.668861         17.3678           12.91 
       0.675024         17.1072         12.6437 
       0.681124         17.0345         12.3882 
       0.687237         16.6589         12.1395 
       0.693381         16.2752         11.8966 
       0.699536         16.1766           11.66 
       0.705665         15.8521         11.4308 
       0.711789          15.565         11.2079 
       0.717957         15.2336         10.9892 
        0.72409         15.0851         10.7775 
       0.730186          14.997         10.5727 
       0.736317         14.6543          10.372 
       0.742472         14.4739         10.1759 
       0.748622         14.2367         9.98521 
        0.75476         13.8661         9.79987 
       0.760888         13.8073         9.61959 
       0.767043         13.5443         9.44319 
       0.773185         13.3745         9.27161 
       0.779291         13.2479          9.1053 
       0.785407         13.0161         8.94282 
       0.791564           12.89         8.78327 
       0.797719         12.6006         8.62768 
       0.803834         12.5385         8.47683 
       0.809972         12.2832         8.32905 
       0.816124         12.1419         8.18447 
       0.822261         11.9958         8.04372 
       0.828378         11.8504         7.90672 
       0.834502         11.7132         7.77282 
       0.840667         11.5762         7.64117 
       0.846816         11.3153         7.51296 
       0.852925         11.2678         7.38852 
       0.859047         11.1103         7.26666 
       0.865192         10.9492         7.14716 
       0.871341         10.8059         7.03029 
       0.877463         10.6636         6.91657 
       0.883569         10.5879         6.80567 
       0.889708         10.4063         6.69664 
       0.895864         10.2721         6.58973 
       0.902008         10.1497         6.48539 
       0.908149         9.99988         6.38337 
       0.914301         9.92659         6.28339 
       0.920448         9.79159         6.18565 
       0.926574         9.72632         6.09034 
       0.932687         9.56281         5.99725 
       0.938823         9.42614         5.90577 
       0.944975         9.37096           5.816 
       0.951105         9.23753         5.72841 
       0.957225         9.17528         5.64279 
       0.963368         9.02957         5.55862 
       0.969511         8.93115         5.47618 
       0.975621         8.83997         5.39585 
       0.981748         8.71654         5.31693 
       0.987916         8.64531          5.2391 
        0.99406         8.55109         5.16312 
        1.00019          8.4775          5.0888 
        1.00632         8.40501         5.01601 
        1.01246         8.28981         4.94454 
        1.01859         8.20034         4.87458 
        1.02471         8.09182         4.80607 
        1.03085         8.05206         4.73863 
        1.03698         7.96936         4.67264 
        1.04314         7.86789         4.60762 
        1.04929         7.76241         4.54399 
        1.05541         7.70783         4.48183 
        1.06154         7.63349         4.42068 
        1.06769          7.5841         4.36058 
        1.07382         7.45719         4.30179 
        1.07993         7.39085         4.24423 
        1.08607         7.34794         4.18749 
        1.09222         7.24977         4.13172 
        1.09836           7.217         4.07705 
        1.10449         7.10062         4.02342 
        1.11063         7.07379         3.97071 
        1.11677         7.01254         3.91896 
         1.1229         6.94177         3.86822 
        1.12903          6.8804         3.81834 
        1.13518         6.78782          3.7693 
        1.14131         6.73367         3.72115 
        1.14745         6.64066         3.67387 
        1.15359         6.58235          3.6274 
        1.15973          6.5271         3.58172 
        1.16584         6.47497         3.53703 
        1.17197         6.40926         3.49304 
        1.17811         6.35445         3.44966 
        1.18424         6.30527         3.40715 
        1.19038         6.26314         3.36523 
        1.19652         6.20449         3.32403 
        1.20267         6.15643         3.28352 
        1.20881         6.07848          3.2437 
        1.21495         6.03582         3.20459 
        1.22108         5.98253         3.16614 
         1.2272         5.92572         3.12841 
        1.23334         5.90661         3.09121 
        1.23949         5.83322         3.05453 
        1.24562         5.79179         3.01854 
        1.25174         5.75472         2.98319 
        1.25789          5.6697         2.94829 
        1.26402         5.64672         2.91402 
        1.27014         5.61161         2.88037 
        1.27628         5.54146         2.84716 
        1.28244         5.52383          2.8144 
        1.28858         5.47546         2.78221 
        1.29471         5.40494         2.75059 
        1.30084         5.36044         2.71949 
        1.30697         5.34834         2.68882 
        1.31312         5.28885         2.65859 
        1.31925         5.25035         2.62891 
        1.32537         5.21213         2.59972 
        1.33151         5.16581         2.57087 
        1.33765         5.12449         2.54247 
        1.34378         5.11385         2.51455 
        1.34992         5.05878         2.48704 
        1.35606         5.01844         2.45988 
         1.3622         4.97381         2.43317 
        1.36833         4.94218         2.40693 
        1.37445         4.89843         2.38108 
        1.38059         4.85611         2.35554 
        1.38675         4.82586         2.33031 
        1.39288         4.79424         2.30555 
        1.39901          4.7461         2.28116 
        1.40515         4.72043         2.25706 
         1.4113         4.68191         2.23333 
        1.41742          4.6585         2.21003 
        1.42355         4.61371         2.18701 
         1.4297         4.58197         2.16425 
        1.43585         4.56092         2.14183 
        1.44198         4.52098         2.11981 
        1.44809         4.49099         2.09814 
        1.45423         4.45478         2.07669 
        1.46036         4.43017         2.05558 
        1.46649         4.39675         2.03476 
        1.47263         4.37228          2.0142 
        1.47877         4.33906         1.99394 
        1.48491         4.31719         1.97393 
        1.49104          4.2797         1.95423 
        1.49718         4.25982         1.93479 
        1.50333         4.22191         1.91558 
        1.50947          4.1883         1.89667 
         1.5156         4.17158         1.87804 
        1.52172         4.14053         1.85966 
        1.52787         4.11817         1.84149 
          1.534         4.08632         1.82359 
        1.54013         4.06887         1.80594 
        1.54627         4.03161          1.7885 
        1.55241         4.00062         1.77128 
        1.55855         3.98911         1.75431 
        1.56467         3.96641         1.73761 
         1.5708         3.93031         1.72109 
        1.57695         3.89743         1.70475 
        1.58308         3.87152         1.68866 
        1.58922         3.86187         1.67277 
        1.59535         3.83742         1.65708 
         1.6015         3.79905         1.64158 
        1.60764         3.78534         1.62628 
        1.61376         3.76024         1.61122 
        1.61989         3.72705         1.59634 
        1.62604         3.71243         1.58161 
        1.63218         3.69381         1.56708 
        1.63831         3.67303         1.55276 
        1.64444         3.64169         1.53862 
        1.65059         3.62738         1.52462 
        1.65673         3.60458         1.51081 
        1.66285         3.58309         1.49721 
        1.66898         3.56115         1.48377 
        1.67512         3.53803         1.47046 
        1.68127         3.51208         1.45731 
         1.6874         3.49597         1.44435 
        1.69353          3.4696         1.43156 
        1.69967         3.45369         1.41888 
        1.70581         3.43081         1.40637 
        1.71193         3.41072         1.39406 
        1.71806         3.39258         1.38186 
        1.72421         3.37354         1.36979 
        1.73035         3.35457         1.35787 
        1.73649         3.33479          1.3461 
        1.74262         3.31492         1.33448 
        1.74876         3.30411         1.32299 
        1.75489         3.27848         1.31165 
        1.76101         3.25447         1.30045 
        1.76715         3.25031         1.28937 
        1.77329         3.22706          1.2784 
        1.77943          3.2006         1.26756 
        1.78557         3.19366         1.25686 
        1.79171         3.17253         1.24627 
        1.79785         3.16155         1.23581 
        1.80399         3.13202         1.22547 
        1.81012         3.12367         1.21526 
        1.81625         3.10042         1.20518 
        1.82239         3.09054         1.19519 
        1.82853          3.0691         1.18532 
        1.83466         3.04347         1.17557 
        1.84078         3.03018         1.16594 
        1.84692         3.01556          1.1564 
        1.85306         2.99934         1.14696 
         1.8592         2.98858         1.13763 
        1.86533         2.97403         1.12842 
        1.87147         2.96079          1.1193 
        1.87761         2.94486         1.11027 
        1.88375         2.92476         1.10135 
        1.88988         2.91052         1.09255 
        1.89601         2.89168         1.08383 
        1.90215          2.8754          1.0752 
        1.90829         2.86978         1.06667 
        1.91442         2.85006         1.05823 
        1.92056         2.84347         1.04989 
         1.9267         2.82116         1.04163 
        1.93284         2.81388         1.03345 
        1.93897         2.79205         1.02538 
        1.94509         2.77025         1.01741 
        1.95123         2.76792          1.0095 
        1.95737         2.75477         1.00167 
        1.96349         2.73625        0.993949 
        1.96964         2.72427        0.986283 
        1.97578         2.71119        0.978695 
        1.98192          2.6928        0.971201 
        1.98805         2.68466        0.963786 
        1.99419         2.67111        0.956446 
        2.00033         2.64967         0.94918 
        2.00647         2.64638        0.941991 
         2.0126          2.6337        0.934889 
        2.01874         2.62063        0.927848 
        2.02488         2.61105        0.920874 
        2.03101         2.58941        0.913984 
        2.03714         2.58084        0.907171 
        2.04328         2.57089         0.90042 
        2.04941         2.55584        0.893743 
        2.05554         2.54724        0.887138 
        2.06167         2.53496        0.880591 
        2.06781         2.52182        0.874108 
        2.07396         2.50878        0.867682 
        2.08009         2.50163        0.861331 
        2.08622         2.49198        0.855051 
        2.09237         2.48254         0.84882 
        2.09851         2.46272        0.842651 
        2.10464         2.45244        0.836553 
        2.11077         2.44729        0.830523 
        2.11691          2.4316        0.824538 
        2.12305         2.41799        0.818612 
        2.12918          2.4101        0.812759 
        2.13531         2.40041        0.806962 
        2.14145         2.38849        0.801208 
         2.1476         2.37246        0.795503 
        2.15372         2.36303        0.789883 
        2.15985         2.35649        0.784311 
        2.16599         2.34721        0.778776 
        2.17213         2.34045        0.773301 
        2.17827         2.32026         0.76788 
         2.1844         2.31378        0.762516 
        2.19054         2.30476          0.7572 
        2.19666         2.29698        0.751943 
         2.2028         2.27724        0.746731 
        2.20893         2.27983        0.741566 
        2.21508         2.26373        0.736443 
        2.22122         2.24944        0.731367 
        2.22736         2.24198         0.72635 
        2.23349         2.23289         0.72138 
        2.23962         2.22743        0.716455 
        2.24577         2.21178         0.71157 
         2.2519         2.20894        0.706738 
        2.25802         2.19197        0.701959 
        2.26417         2.18598         0.69721 
        2.27031         2.17732        0.692501 
        2.27644         2.16656        0.687848 
        2.28257         2.15921        0.683239 
        2.28872         2.14968        0.678663 
        2.29486         2.13803         0.67413 
        2.30099         2.13084        0.669647 
        2.30712         2.12335        0.665203 
        2.31326         2.11641        0.660792 
         2.3194         2.10366        0.656424 
        2.32553         2.09766        0.652102 
        2.33166         2.09074         0.64782 
         2.3378         2.08325        0.643571 
        2.34394         2.06809        0.639359 
        2.35007         2.06134         0.63519 
        2.35619         2.05681        0.631064 
        2.36233         2.04551        0.626964 
        2.36848         2.03889        0.622893 
        2.37462         2.03167        0.618865 
        2.38075         2.02443        0.614878 
        2.38689         2.01595        0.610921 
        2.39303         2.00718        0.607001 
        2.39916         2.00012        0.603118 
        2.40529         1.98946         0.59927 
        2.41143         1.98484        0.595453 
        2.41757         1.97881        0.591666 
         2.4237         1.96694         0.58792 
        2.42983         1.96275        0.584207 
        2.43598         1.95562        0.580515 
        2.44211         1.94385        0.576861 
        2.44823         1.93914        0.573247 
        2.45437         1.92811        0.569654 
        2.46052          1.9233        0.566089 
        2.46665         1.91642         0.56256 
        2.47279          1.9064        0.559063 
        2.47892         1.90313        0.555593 
        2.48507         1.89427        0.552149 
         2.4912         1.88907        0.548741 
