# k  (h/Mpc)    Pcb(k)  (Mpc/h)^3    Pcb_linear(k)  (Mpc/h)^3
     0.00783031         3312.27         3346.45 
       0.013688         4390.77         4382.19 
       0.019231         4654.35         4652.57 
      0.0249154         4444.81         4491.62 
      0.0312784         4031.68         4050.23 
      0.0375637         3551.99         3549.34 
      0.0433917         3112.27         3136.27 
      0.0492413         2806.43         2812.23 
      0.0555754         2528.52         2561.85 
      0.0619321         2394.49         2385.78 
       0.067871          2227.7         2253.73 
      0.0738098         2095.87         2123.44 
      0.0800417         1931.34         1970.07 
      0.0862327         1774.11         1798.29 
      0.0921407         1614.52         1626.43 
      0.0982031         1441.73         1457.83 
       0.104506         1314.19         1306.08 
       0.110769         1196.24         1187.67 
       0.116806         1104.84         1104.38 
       0.122832         1052.76         1045.57 
       0.129052         995.056         1000.57 
       0.135211         955.049         961.123 
       0.141259          920.06         919.085 
       0.147318         874.931         869.512 
       0.153489         811.574          811.64 
       0.159709         757.292         749.807 
       0.165845         710.935         690.868 
       0.171974         655.099         638.893 
       0.178125          616.31         596.455 
       0.184229         587.472          564.33 
        0.19034         552.246         540.428 
       0.196428         542.025         521.844 
       0.202534         529.158         505.095 
       0.208729         506.731         487.149 
       0.214876         481.789         466.753 
       0.220989         466.847         443.767 
       0.227147         437.467         418.992 
        0.23329         416.023         394.414 
       0.239377         400.233         371.926 
       0.245482         373.945         352.419 
       0.251667         366.111         336.195 
       0.257832         353.442         323.241 
       0.263955         341.822         312.668 
       0.270079         331.476         303.245 
        0.27624         326.404         293.889 
       0.282372         314.354         283.968 
        0.28843         303.065         273.336 
       0.294538         290.718         261.974 
       0.300721          285.16         250.314 
        0.30691         271.422         239.098 
       0.313033         263.527         228.943 
       0.319153         251.911         220.022 
       0.325316         246.575         212.275 
        0.33145         238.618         205.605 
       0.337538         234.898         199.656 
       0.343633         227.719         194.012 
       0.349808         221.411           188.3 
       0.355968         216.816          182.43 
       0.362074         210.596         176.435 
       0.368217         204.971         170.318 
       0.374374         198.846         164.298 
       0.380519         194.192         158.573 
       0.386598         189.133         153.328 
       0.392688         186.002         148.553 
        0.39888         181.182          144.15 
       0.405048         177.451         140.143 
       0.411186         173.692         136.398 
       0.417313         169.345          132.78 
       0.423458         165.921         129.196 
       0.429607         161.821         125.599 
       0.435692         156.799         122.041 
       0.441815         155.551         118.508 
       0.447964         153.023         115.057 
       0.454126         146.539         111.752 
       0.460267         144.707         108.654 
       0.466387         142.091         105.766 
        0.47254         139.797         103.041 
       0.478662         137.915         100.483 
       0.484765         134.362         98.0433 
       0.490885         131.986         95.6646 
       0.497035         130.351         93.3169 
       0.503198         126.958         91.0045 
       0.509342         124.367         88.7369 
       0.515458         122.603         86.5273 
       0.521598         121.079         84.3759 
       0.527764         119.118         82.3019 
       0.533884         117.073         80.3358 
           0.54         115.121         78.4587 
       0.546137         113.974         76.6573 
       0.552299         112.351         74.9232 
       0.558452         109.539          73.253 
       0.564573         107.638         71.6369 
       0.570708         106.567         70.0529 
       0.576825         104.695         68.5074 
       0.582926         102.884         67.0035 
       0.589034         100.754         65.5377 
       0.595184         99.7461         64.1049 
       0.601379         98.6658         62.7074 
       0.607522         96.2673         61.3681 
       0.613639         96.1446         60.0823 
       0.619772          93.821         58.8388 
       0.625918         93.2505         57.6337 
       0.632068         91.9987         56.4632 
       0.638161          90.755         55.3331 
         0.6443         89.4659         54.2217 
       0.650464         88.2351         53.1332 
       0.656582         87.4132         52.0802 
       0.662703         85.6905          51.055 
       0.668861         84.8498          50.052 
       0.675024         83.7644         49.0764 
       0.681124         82.5582         48.1379 
       0.687237         81.2346         47.2234 
       0.693381         80.5676           46.33 
       0.699536         79.2509         45.4596 
       0.705665          79.643         44.6165 
       0.711789         77.5538         43.7963 
       0.717957         77.0119         42.9912 
        0.72409         75.9423         42.2105 
       0.730186         74.7629         41.4531 
       0.736317         74.5565         40.7095 
       0.742472          73.391         39.9809 
       0.748622         72.8839         39.2707 
        0.75476         71.9994         38.5796 
       0.760888         71.0143         37.9067 
       0.767043         70.3276          37.248 
       0.773185         69.4406         36.6072 
       0.779291         69.1056         35.9858 
       0.785407         68.4571         35.3783 
       0.791564         67.3905         34.7813 
       0.797719          66.444         34.1986 
       0.803834         66.2905         33.6328 
       0.809972         65.2596         33.0777 
       0.816124         64.3935         32.5338 
       0.822261         64.1019         32.0036 
       0.828378         63.5378         31.4868 
       0.834502         62.8102         30.9811 
       0.840667         62.3412         30.4834 
       0.846816         61.5351         29.9982 
       0.852925         60.9923         29.5268 
       0.859047         60.2146         29.0648 
       0.865192         59.9754         28.6114 
       0.871341         59.6334         28.1675 
       0.877463         58.4698         27.7352 
       0.883569         58.1347         27.3131 
       0.889708         57.8178         26.8979 
       0.895864         57.2713         26.4902 
       0.902008         56.8098          26.092 
       0.908149         56.3578         25.7023 
       0.914301         56.0182         25.3199 
       0.920448         55.1854         24.9458 
       0.926574          54.927         24.5806 
       0.932687         54.4109         24.2236 
       0.938823         53.6695         23.8725 
       0.944975         53.5363         23.5276 
       0.951105         53.0403         23.1908 
       0.957225          52.416         22.8613 
       0.963368         52.2324         22.5371 
       0.969511         51.8664         22.2193 
       0.975621         51.4545         21.9094 
       0.981748         50.8277         21.6047 
       0.987916         50.6234         21.3039 
        0.99406         50.2665           21.01 
        1.00019         49.6052         20.7224 
        1.00632         49.4416         20.4404 
        1.01246         49.0169         20.1633 
        1.01859          48.484         19.8919 
        1.02471         48.5197         19.6259 
        1.03085         48.0039         19.3638 
        1.03698         47.4237         19.1071 
        1.04314         47.0282         18.8541 
        1.04929         46.8432         18.6063 
        1.05541         46.3324         18.3639 
        1.06154         46.2173         18.1254 
        1.06769         45.8345         17.8907 
        1.07382         45.5034         17.6611 
        1.07993         45.3622          17.436 
        1.08607         44.8146         17.2139 
        1.09222         44.6659         16.9956 
        1.09836         44.2038         16.7813 
        1.10449         44.0149          16.571 
        1.11063         43.4344         16.3641 
        1.11677         43.3018         16.1608 
         1.1229         43.1766         15.9614 
        1.12903         42.6013         15.7652 
        1.13518          42.411         15.5721 
        1.14131         42.3466         15.3825 
        1.14745          41.919         15.1961 
        1.15359         41.7527         15.0128 
        1.15973         41.2824         14.8325 
        1.16584         40.9601          14.656 
        1.17197         41.0034         14.4821 
        1.17811         40.5001         14.3105 
        1.18424         40.1693         14.1423 
        1.19038         40.1451         13.9763 
        1.19652         39.8671          13.813 
        1.20267         39.5925         13.6524 
        1.20881         39.3341         13.4944 
        1.21495         39.0488         13.3392 
        1.22108         38.8044         13.1864 
         1.2272         38.4052         13.0364 
        1.23334         38.2915         12.8885 
        1.23949         38.0529         12.7425 
        1.24562         37.9315         12.5992 
        1.25174         37.7101         12.4583 
        1.25789         37.4834         12.3192 
        1.26402         37.2816         12.1824 
        1.27014         36.9301         12.0481 
        1.27628         36.7179         11.9155 
        1.28244         36.5656         11.7846 
        1.28858         36.4128         11.6558 
        1.29471         36.1493         11.5293 
        1.30084         35.9419         11.4048 
        1.30697         35.6899         11.2819 
        1.31312         35.3987         11.1608 
        1.31925         35.2893         11.0417 
        1.32537         35.1595         10.9246 
        1.33151         34.8796         10.8087 
        1.33765         34.8083         10.6946 
        1.34378         34.6551         10.5824 
        1.34992         34.1472         10.4718 
        1.35606         34.0992         10.3624 
         1.3622         33.9097         10.2549 
        1.36833         33.7261         10.1491 
        1.37445         33.6833         10.0449 
        1.38059         33.4921          9.9419 
        1.38675         33.1632         9.84007 
        1.39288          33.088         9.74008 
        1.39901         32.8059         9.64154 
        1.40515          32.683         9.54415 
         1.4113         32.5411         9.44815 
        1.41742         32.2174         9.35385 
        1.42355         32.1997         9.26068 
         1.4297         31.9728          9.1685 
        1.43585         31.9216         9.07762 
        1.44198         31.5936         8.98833 
        1.44809         31.5164         8.90042 
        1.45423         31.3828         8.81337 
        1.46036          31.271         8.72765 
        1.46649         31.0548         8.64305 
        1.47263         30.8677         8.55951 
        1.47877         30.7372         8.47712 
        1.48491         30.5627          8.3957 
        1.49104         30.5162         8.31553 
        1.49718         30.2274         8.23635 
        1.50333         30.1456         8.15808 
        1.50947         30.0227           8.081 
         1.5156         29.8004         8.00503 
        1.52172         29.5772         7.93005 
        1.52787         29.5886         7.85589 
          1.534         29.3768         7.78277 
        1.54013         29.1598         7.71067 
        1.54627         29.1108         7.63935 
        1.55241         28.9074         7.56893 
        1.55855         28.7931          7.4995 
        1.56467         28.6956         7.43113 
         1.5708         28.5561         7.36344 
        1.57695          28.281         7.29648 
        1.58308         28.3349         7.23053 
        1.58922          28.141         7.16534 
        1.59535         27.9578         7.10099 
         1.6015         27.8426         7.03735 
        1.60764         27.7875         6.97452 
        1.61376         27.6294         6.91264 
        1.61989          27.374         6.85146 
        1.62604         27.3688         6.79089 
        1.63218         27.1699          6.7311 
        1.63831         27.1116         6.67217 
        1.64444         26.9269         6.61392 
        1.65059         26.8031         6.55624 
        1.65673         26.7185         6.49932 
        1.66285         26.5738         6.44323 
        1.66898         26.4714         6.38779 
        1.67512          26.366         6.33291 
        1.68127         26.1674         6.27862 
         1.6874         26.0807         6.22509 
        1.69353         26.0546         6.17222 
        1.69967         25.8191         6.11984 
        1.70581         25.7039          6.0681 
        1.71193          25.567         6.01716 
        1.71806         25.5182          5.9667 
        1.72421         25.3923         5.91672 
        1.73035         25.3184         5.86737 
        1.73649         25.1301          5.8186 
        1.74262         25.0921         5.77043 
        1.74876         24.9465         5.72278 
        1.75489         24.8322         5.67576 
        1.76101         24.7405         5.62929 
        1.76715         24.6808         5.58328 
        1.77329         24.5639         5.53773 
        1.77943         24.4214         5.49267 
        1.78557         24.3072         5.44819 
        1.79171         24.2396         5.40418 
        1.79785         24.0997         5.36066 
        1.80399         24.0099         5.31764 
        1.81012         23.9194         5.27514 
        1.81625         23.8016         5.23313 
        1.82239         23.7436         5.19151 
        1.82853         23.5514         5.15038 
        1.83466         23.4803         5.10973 
        1.84078         23.3131         5.06956 
        1.84692         23.3057         5.02976 
        1.85306         23.1588         4.99035 
         1.8592         23.1017         4.95142 
        1.86533         22.9924         4.91293 
        1.87147         22.8885         4.87481 
        1.87761          22.848         4.83708 
        1.88375         22.6726         4.79979 
        1.88988         22.6485         4.76295 
        1.89601         22.5243         4.72646 
        1.90215         22.4105         4.69034 
        1.90829         22.3615         4.65461 
        1.91442         22.2358         4.61926 
        1.92056         22.1646          4.5843 
         1.9267          22.086         4.54967 
        1.93284          21.964         4.51538 
        1.93897         21.8762         4.48152 
        1.94509         21.7954         4.44807 
        1.95123         21.6949         4.41488 
        1.95737         21.5911         4.38201 
        1.96349         21.5218         4.34956 
        1.96964         21.4175         4.31735 
        1.97578          21.362         4.28545 
        1.98192         21.2248         4.25394 
        1.98805         21.1807         4.22275 
        1.99419         21.0751         4.19187 
        2.00033         20.9857         4.16128 
        2.00647         20.9445         4.13101 
         2.0126         20.7602         4.10109 
        2.01874         20.7245         4.07143 
        2.02488         20.6365         4.04203 
        2.03101         20.6305         4.01298 
        2.03714         20.4969         3.98425 
        2.04328         20.3914         3.95576 
        2.04941          20.313         3.92758 
        2.05554         20.2994          3.8997 
        2.06167         20.1987         3.87205 
        2.06781          20.109         3.84466 
        2.07396         20.0141          3.8175 
        2.08009         19.9466         3.79065 
        2.08622         19.8672          3.7641 
        2.09237         19.7871         3.73774 
        2.09851         19.6943         3.71164 
        2.10464         19.6291         3.68583 
        2.11077         19.5414         3.66029 
        2.11691         19.4787         3.63494 
        2.12305         19.3733         3.60984 
        2.12918         19.3163         3.58503 
        2.13531         19.2491         3.56045 
        2.14145         19.1567         3.53605 
         2.1476         19.0907         3.51185 
        2.15372         19.0371           3.488 
        2.15985         18.9183         3.46435 
        2.16599         18.8855         3.44085 
        2.17213         18.8326          3.4176 
        2.17827         18.7526         3.39457 
         2.1844         18.6744         3.37177 
        2.19054         18.5846         3.34917 
        2.19666         18.5259         3.32682 
         2.2028         18.4576         3.30465 
        2.20893         18.3676         3.28267 
        2.21508         18.3285         3.26087 
        2.22122         18.2081         3.23926 
        2.22736         18.1562         3.21789 
        2.23349           18.08         3.19672 
        2.23962         18.0379         3.17573 
        2.24577          17.941         3.15491 
         2.2519         17.9023         3.13431 
        2.25802         17.8368         3.11392 
        2.26417         17.7664         3.09367 
        2.27031         17.7092         3.07357 
        2.27644         17.6401         3.05371 
        2.28257         17.5704         3.03403 
        2.28872         17.4888         3.01449 
        2.29486         17.4637         2.99512 
        2.30099         17.3827         2.97596 
        2.30712         17.3268         2.95697 
        2.31326         17.2605         2.93811 
         2.3194         17.1449         2.91942 
        2.32553         17.1299         2.90093 
        2.33166         17.0185         2.88261 
         2.3378         16.9813         2.86442 
        2.34394         16.9021         2.84639 
        2.35007         16.8231         2.82853 
        2.35619          16.788         2.81086 
        2.36233         16.7166         2.79329 
        2.36848         16.6987         2.77583 
        2.37462         16.6398         2.75857 
        2.38075         16.5483         2.74146 
        2.38689         16.5003         2.72449 
        2.39303         16.4445         2.70767 
        2.39916         16.3689           2.691 
        2.40529         16.3285         2.67448 
        2.41143         16.2532         2.65809 
        2.41757         16.2165         2.64182 
         2.4237         16.1156         2.62572 
        2.42983         16.0859         2.60976 
        2.43598         16.0203         2.59389 
        2.44211         15.9365         2.57818 
        2.44823         15.8929         2.56264 
        2.45437          15.861         2.54718 
        2.46052         15.8174         2.53183 
        2.46665          15.727         2.51664 
        2.47279         15.6856         2.50159 
        2.47892         15.6194         2.48664 
        2.48507         15.5735          2.4718 
         2.4912         15.5273         2.45712 
