# k  (h/Mpc)    P(k)  (Mpc/h)^3    P_linear(k)  (Mpc/h)^3
     0.00783031         4647.18         4714.89 
       0.013688         5375.38         5366.05 
       0.019231         5099.75         5092.88 
      0.0249154         4399.21         4440.15 
      0.0312784         3635.53         3640.72 
      0.0375637         3001.32         2987.02 
      0.0433917         2546.93         2554.86 
      0.0492413         2269.08         2266.14 
      0.0555754         2037.69         2057.48 
      0.0619321         1904.91         1890.64 
       0.067871         1719.45         1730.79 
      0.0738098         1543.18         1552.69 
      0.0800417         1343.02         1355.62 
      0.0862327         1170.91         1171.54 
      0.0921407         1033.44         1025.04 
      0.0982031         915.517         912.566 
       0.104506         849.997         833.338 
       0.110769         793.864         781.273 
       0.116806         748.521         742.474 
       0.122832         712.771         703.262 
       0.129052         657.735         655.527 
       0.135211          605.44         600.842 
       0.141259         556.852         544.704 
       0.147318         508.418         492.285 
       0.153489         461.152         447.713 
       0.159709         429.624         413.701 
       0.165845         409.243         389.679 
       0.171974         386.601         371.936 
       0.178125         371.297          356.57 
       0.184229         355.648         340.622 
        0.19034         331.137         322.412 
       0.196428         316.856         302.229 
       0.202534         300.396         281.367 
       0.208729         279.281         261.422 
       0.214876         260.849         244.271 
       0.220989         249.693         230.387 
       0.227147         236.066         219.299 
        0.23329         226.534         210.237 
       0.239377         219.922          202.16 
       0.245482         206.793         194.071 
       0.251667         201.853         185.396 
       0.257832         193.241         176.282 
       0.263955         184.247         167.141 
       0.270079         175.557         158.395 
        0.27624         170.325         150.425 
       0.282372         163.352         143.501 
        0.28843         156.455         137.605 
       0.294538         149.894         132.384 
       0.300721         146.999          127.53 
        0.30691         140.236         122.832 
       0.313033         135.895         118.173 
       0.319153         129.438         113.484 
       0.325316         126.552         108.799 
        0.33145         121.281         104.307 
       0.337538         118.353         100.132 
       0.343633         113.835         96.2977 
       0.349808         110.186         92.7708 
       0.355968           107.5         89.5478 
       0.362074         104.102         86.5681 
       0.368217         100.876          83.698 
       0.374374         97.7144          80.896 
       0.380519         95.3526         78.1522 
       0.386598         92.5686          75.496 
       0.392688         90.5839         72.9265 
        0.39888         87.8793         70.4351 
       0.405048         85.5222         68.0949 
       0.411186         83.4249         65.9149 
       0.417313         81.0123         63.8688 
       0.423458          78.957         61.9263 
       0.429607         76.9018         60.0694 
       0.435692         74.2594         58.2962 
       0.441815         73.3269         56.5636 
       0.447964         71.9425         54.8776 
       0.454126         68.6804         53.2448 
       0.460267         67.7405         51.6795 
       0.466387         66.1538         50.1872 
        0.47254         64.8434         48.7576 
       0.478662         63.8942         47.4005 
       0.484765         61.8845         46.1061 
       0.490885          60.607         44.8602 
       0.497035         59.7885         43.6543 
       0.503198         58.0294         42.4866 
       0.509342         56.6155         41.3591 
       0.515458         55.5716         40.2738 
       0.521598         54.6614         39.2223 
       0.527764         53.6236         38.2051 
       0.533884         52.7306         37.2329 
           0.54         51.4885         36.2976 
       0.546137         50.8363         35.3939 
       0.552299         50.0092         34.5193 
       0.558452         48.5814         33.6764 
       0.564573         47.6983         32.8652 
       0.570708         46.9904         32.0774 
       0.576825         46.0926         31.3166 
       0.582926         45.0651          30.582 
       0.589034         44.0575         29.8703 
       0.595184         43.4813         29.1772 
       0.601379         42.7384          28.502 
       0.607522         41.7356         27.8541 
       0.613639         41.4942         27.2293 
       0.619772         40.4783         26.6224 
       0.625918          40.106          26.033 
       0.632068          39.529         25.4612 
       0.638161         38.8297         24.9116 
         0.6443         38.1441         24.3743 
       0.650464         37.5281         23.8508 
       0.656582         37.1577         23.3463 
       0.662703         36.3805         22.8563 
       0.668861          35.825         22.3777 
       0.675024         35.2785         21.9126 
       0.681124         34.6672         21.4655 
       0.687237         34.0321         21.0302 
       0.693381         33.7589          20.605 
       0.699536         33.0088          20.191 
       0.705665         33.0663         19.7901 
       0.711789         32.1771         19.4005 
       0.717957         31.7855         19.0187 
        0.72409         31.3585         18.6494 
       0.730186          30.852          18.292 
       0.736317         30.6177         17.9422 
       0.742472         30.0793         17.6002 
       0.748622         29.7896         17.2675 
        0.75476         29.3501         16.9441 
       0.760888         28.8596         16.6296 
       0.767043         28.5128         16.3218 
       0.773185         28.0893         16.0225 
       0.779291         27.9408         15.7324 
       0.785407         27.6552         15.4492 
       0.791564         27.1721         15.1711 
       0.797719         26.5763            14.9 
       0.803834         26.5268         14.6373 
       0.809972         26.1712           14.38 
       0.816124          25.702         14.1283 
       0.822261         25.4597         13.8834 
       0.828378         25.2898          13.645 
       0.834502         24.9778          13.412 
       0.840667         24.6688          13.183 
       0.846816         24.2464           12.96 
       0.852925         24.0356         12.7435 
       0.859047         23.7394         12.5316 
       0.865192         23.4902         12.3237 
       0.871341         23.3696         12.1205 
       0.877463           22.91         11.9228 
       0.883569         22.6764           11.73 
       0.889708         22.4303         11.5405 
       0.895864         22.1991         11.3547 
       0.902008         22.0117         11.1734 
       0.908149         21.7747         10.9961 
       0.914301         21.6986         10.8225 
       0.920448         21.3178         10.6527 
       0.926574         21.1101         10.4872 
       0.932687         20.8827         10.3256 
       0.938823         20.5937         10.1668 
       0.944975         20.4568          10.011 
       0.951105         20.2425         9.85901 
       0.957225         19.9996         9.71045 
       0.963368         19.9459         9.56446 
       0.969511          19.713         9.42146 
       0.975621         19.5535         9.28216 
       0.981748          19.251         9.14533 
       0.987916         19.1392          9.0104 
        0.99406         18.9415          8.8787 
        1.00019         18.7109         8.74989 
        1.00632         18.5896         8.62377 
        1.01246         18.4903         8.49994 
        1.01859         18.1693         8.37874 
        1.02471         18.1281         8.26006 
        1.03085         17.9591         8.14326 
        1.03698         17.6588         8.02897 
        1.04314         17.5553         7.91639 
        1.04929         17.3745         7.80623 
        1.05541         17.1897         7.69861 
        1.06154         17.1119         7.59276 
        1.06769         16.9942         7.48874 
        1.07382         16.8054         7.38701 
        1.07993         16.6989          7.2874 
        1.08607         16.4857         7.18921 
        1.09222         16.4108         7.09274 
        1.09836         16.2133         6.99815 
        1.10449         16.1017         6.90539 
        1.11063         15.8963         6.81421 
        1.11677         15.8486         6.72472 
         1.1229         15.7523         6.63698 
        1.12903         15.5495         6.55073 
        1.13518         15.4062         6.46595 
        1.14131         15.3596         6.38271 
        1.14745         15.2023         6.30099 
        1.15359         15.1364         6.22068 
        1.15973         14.9548         6.14174 
        1.16584         14.7776         6.06453 
        1.17197         14.7781         5.98853 
        1.17811         14.5836         5.91361 
        1.18424         14.4735         5.84018 
        1.19038         14.4178         5.76779 
        1.19652         14.3074         5.69665 
        1.20267         14.1873         5.62671 
        1.20881         14.0769         5.55797 
        1.21495         13.9922         5.49047 
        1.22108         13.8622         5.42411 
         1.2272          13.733         5.35901 
        1.23334         13.6742         5.29482 
        1.23949         13.5368         5.23153 
        1.24562         13.4729         5.16945 
        1.25174         13.3896         5.10847 
        1.25789         13.2634         5.04828 
        1.26402         13.2191         4.98917 
        1.27014         13.0627         4.93115 
        1.27628         12.9569         4.87388 
        1.28244         12.9011          4.8174 
        1.28858         12.8523         4.76189 
        1.29471         12.7332         4.70738 
        1.30084         12.6288         4.65377 
        1.30697         12.5486         4.60092 
        1.31312         12.4185         4.54881 
        1.31925         12.3408         4.49766 
        1.32537         12.3026         4.44736 
        1.33151         12.1994         4.39764 
        1.33765         12.1369         4.34872 
        1.34378         12.0558         4.30063 
        1.34992         11.9173         4.25323 
        1.35606         11.9015         4.20645 
         1.3622         11.8237         4.16045 
        1.36833          11.707         4.11525 
        1.37445          11.685         4.07075 
        1.38059         11.5793         4.02676 
        1.38675         11.4449         3.98332 
        1.39288         11.4352         3.94069 
        1.39901         11.3423         3.89871 
        1.40515         11.2939         3.85724 
         1.4113         11.2027         3.81639 
        1.41742         11.1128         3.77629 
        1.42355          11.066         3.73668 
         1.4297         11.0281         3.69753 
        1.43585          10.964         3.65895 
        1.44198         10.8755         3.62107 
        1.44809         10.8037         3.58379 
        1.45423         10.7438         3.54691 
        1.46036         10.6813          3.5106 
        1.46649         10.6313         3.47479 
        1.47263         10.5347         3.43945 
        1.47877         10.4819         3.40461 
        1.48491         10.4512         3.37021 
        1.49104         10.3946         3.33635 
        1.49718          10.306         3.30292 
        1.50333         10.2619         3.26991 
        1.50947         10.1958         3.23741 
         1.5156         10.1205          3.2054 
        1.52172         10.0781         3.17382 
        1.52787         10.0303          3.1426 
          1.534         9.94893         3.11184 
        1.54013         9.87543         3.08152 
        1.54627         9.82345         3.05155 
        1.55241         9.77972         3.02198 
        1.55855         9.71743         2.99283 
        1.56467         9.66604         2.96415 
         1.5708         9.65867         2.93576 
        1.57695         9.56604         2.90771 
        1.58308         9.52929         2.88008 
        1.58922         9.47954         2.85279 
        1.59535         9.41906         2.82586 
         1.6015         9.35421         2.79924 
        1.60764         9.31561         2.77298 
        1.61376         9.26807         2.74713 
        1.61989         9.20003         2.72158 
        1.62604         9.18938          2.6963 
        1.63218         9.12689         2.67136 
        1.63831         9.08815         2.64679 
        1.64444         9.00536         2.62251 
        1.65059         8.96277         2.59849 
        1.65673         8.94862         2.57479 
        1.66285         8.86197         2.55145 
        1.66898         8.85215          2.5284 
        1.67512         8.80334         2.50558 
        1.68127         8.75923         2.48302 
         1.6874          8.7005         2.46079 
        1.69353           8.639         2.43884 
        1.69967         8.61648         2.41711 
        1.70581         8.58197         2.39566 
        1.71193          8.5205         2.37454 
        1.71806         8.48454         2.35363 
        1.72421         8.43954         2.33294 
        1.73035         8.39251         2.31251 
        1.73649         8.36433         2.29233 
        1.74262         8.33858         2.27241 
        1.74876         8.29523         2.25271 
        1.75489          8.2476         2.23329 
        1.76101          8.1858          2.2141 
        1.76715         8.17958         2.19511 
        1.77329          8.1058         2.17631 
        1.77943         8.07322         2.15773 
        1.78557         8.05647         2.13939 
        1.79171         8.02318         2.12127 
        1.79785          7.9514         2.10334 
        1.80399         7.93045         2.08563 
        1.81012         7.91087         2.06815 
        1.81625         7.85697         2.05087 
        1.82239         7.81951         2.03376 
        1.82853         7.76954         2.01686 
        1.83466         7.73069         2.00016 
        1.84078         7.69537         1.98367 
        1.84692         7.67749         1.96734 
        1.85306         7.62979         1.95117 
         1.8592         7.59808         1.93521 
        1.86533         7.57806         1.91943 
        1.87147         7.53506         1.90381 
        1.87761         7.51141         1.88836 
        1.88375         7.44094          1.8731 
        1.88988         7.44153         1.85802 
        1.89601         7.40568          1.8431 
        1.90215         7.36239         1.82833 
        1.90829         7.32945         1.81373 
        1.91442         7.29931         1.79929 
        1.92056         7.26886         1.78502 
         1.9267         7.23749         1.77088 
        1.93284         7.19304         1.75689 
        1.93897         7.16325         1.74308 
        1.94509         7.13046         1.72945 
        1.95123         7.11468         1.71592 
        1.95737         7.08396         1.70253 
        1.96349         7.05195         1.68932 
        1.96964         7.00584         1.67621 
        1.97578         6.97906         1.66323 
        1.98192         6.95023         1.65042 
        1.98805         6.93361         1.63773 
        1.99419          6.8896         1.62519 
        2.00033         6.86748         1.61276 
        2.00647         6.83876         1.60047 
         2.0126         6.80756         1.58833 
        2.01874         6.77473         1.57629 
        2.02488         6.73457         1.56437 
        2.03101         6.72891         1.55259 
        2.03714         6.69254         1.54094 
        2.04328          6.6697          1.5294 
        2.04941          6.6198         1.51799 
        2.05554         6.61766          1.5067 
        2.06167         6.57409         1.49552 
        2.06781         6.56359         1.48444 
        2.07396         6.54325         1.47346 
        2.08009         6.51638         1.46261 
        2.08622         6.45458         1.45188 
        2.09237         6.46138         1.44123 
        2.09851         6.43012         1.43069 
        2.10464         6.39425         1.42027 
        2.11077         6.35939         1.40997 
        2.11691         6.33981         1.39975 
        2.12305         6.32327         1.38963 
        2.12918         6.29311         1.37963 
        2.13531         6.27274         1.36973 
        2.14145         6.24366          1.3599 
         2.1476         6.23247         1.35016 
        2.15372          6.2008         1.34056 
        2.15985         6.17084         1.33105 
        2.16599         6.15668          1.3216 
        2.17213         6.12509         1.31225 
        2.17827         6.10867           1.303 
         2.1844         6.08136         1.29384 
        2.19054         6.04688         1.28476 
        2.19666         6.03743         1.27579 
         2.2028         6.01025         1.26689 
        2.20893         5.99407         1.25808 
        2.21508         5.95888         1.24933 
        2.22122         5.93369         1.24067 
        2.22736         5.91889         1.23211 
        2.23349         5.88481         1.22363 
        2.23962         5.87756         1.21522 
        2.24577           5.848         1.20688 
         2.2519         5.83255         1.19864 
        2.25802         5.80325         1.19048 
        2.26417         5.78747         1.18238 
        2.27031         5.75084         1.17435 
        2.27644         5.73837         1.16641 
        2.28257          5.7151         1.15855 
        2.28872         5.69868         1.15074 
        2.29486         5.67752         1.14301 
        2.30099         5.67133         1.13536 
        2.30712         5.63547         1.12778 
        2.31326         5.61263         1.12026 
         2.3194         5.59254         1.11281 
        2.32553         5.57342         1.10544 
        2.33166         5.54881         1.09813 
         2.3378         5.53218         1.09089 
        2.34394          5.5155         1.08371 
        2.35007         5.48869          1.0766 
        2.35619         5.46394         1.06956 
        2.36233         5.44729         1.06257 
        2.36848         5.43867         1.05563 
        2.37462         5.41677         1.04876 
        2.38075          5.3891         1.04197 
        2.38689         5.37122         1.03522 
        2.39303         5.35122         1.02854 
        2.39916         5.34101         1.02192 
        2.40529         5.31915         1.01536 
        2.41143         5.29755         1.00886 
        2.41757           5.288          1.0024 
         2.4237         5.26752        0.996018 
        2.42983         5.24059        0.989689 
        2.43598         5.23872        0.983398 
        2.44211         5.20933        0.977173 
        2.44823         5.18995        0.971014 
        2.45437         5.18111        0.964892 
        2.46052         5.15277        0.958817 
        2.46665          5.1358        0.952805 
        2.47279         5.11343        0.946847 
        2.47892         5.09992        0.940935 
        2.48507         5.07821        0.935068 
         2.4912         5.06389        0.929262 
