# k  (h/Mpc)    Pcb(k)  (Mpc/h)^3    Pcb_linear(k)  (Mpc/h)^3
     0.00783031         22007.4         22351.6 
       0.013688         25759.9         25452.6 
       0.019231           24258         24162.8 
      0.0249154         20610.3         21068.9 
      0.0312784         17110.5         17277.1 
      0.0375637         14241.1         14175.7 
      0.0433917         11957.4         12125.2 
      0.0492413         10724.7         10755.3 
      0.0555754         9484.33         9765.16 
      0.0619321         9037.67         8973.44 
       0.067871         8023.61         8214.84 
      0.0738098         7227.78         7369.58 
      0.0800417         6276.69         6434.28 
      0.0862327         5539.78         5560.59 
      0.0921407         4987.57         4865.25 
      0.0982031         4422.92         4331.43 
       0.104506         4176.99          3955.4 
       0.110769         3887.67         3708.28 
       0.116806         3682.45         3524.14 
       0.122832         3487.15         3338.02 
       0.129052         3190.35         3111.45 
       0.135211         2966.91          2851.9 
       0.141259         2794.23         2585.44 
       0.147318         2595.68         2336.64 
       0.153489         2361.92         2125.08 
       0.159709         2232.11         1963.64 
       0.165845         2151.39         1849.62 
       0.171974         2048.23         1765.41 
       0.178125         1950.23         1692.47 
       0.184229         1855.43         1616.78 
        0.19034         1749.32         1530.34 
       0.196428         1695.63         1434.54 
       0.202534         1617.49         1335.52 
       0.208729         1532.37         1240.85 
       0.214876         1468.31         1159.45 
       0.220989         1412.41         1093.55 
       0.227147         1358.12         1040.92 
        0.23329         1303.11         997.903 
       0.239377         1279.51         959.566 
       0.245482          1197.9         921.166 
       0.251667         1188.61         879.994 
       0.257832          1136.4         836.736 
       0.263955          1095.5         793.347 
       0.270079         1054.17         751.834 
        0.27624         1039.35         714.003 
       0.282372          996.83         681.139 
        0.28843         987.361         653.151 
       0.294538         935.956         628.368 
       0.300721         929.059         605.331 
        0.30691         892.908          583.03 
       0.313033         873.457         560.918 
       0.319153         855.559         538.658 
       0.325316         828.324         516.422 
        0.33145         807.938         495.103 
       0.337538         790.753         475.283 
       0.343633         773.061         457.083 
       0.349808          744.61         440.344 
       0.355968         738.845         425.045 
       0.362074         731.131         410.902 
       0.368217         707.028         397.279 
       0.374374         679.487         383.978 
       0.380519         679.611         370.955 
       0.386598         658.413         358.347 
       0.392688         655.269         346.151 
        0.39888         635.556         334.325 
       0.405048         626.874         323.218 
       0.411186         617.649          312.87 
       0.417313         604.695         303.158 
       0.423458         591.425         293.938 
       0.429607         585.521         285.124 
       0.435692         570.939         276.707 
       0.441815         564.549         268.484 
       0.447964         553.604         260.481 
       0.454126         547.654         252.731 
       0.460267         533.664         245.301 
       0.466387         526.766         238.218 
        0.47254         523.186         231.432 
       0.478662          517.07          224.99 
       0.484765         499.866         218.846 
       0.490885         496.074         212.933 
       0.497035           486.1         207.209 
       0.503198         482.112         201.666 
       0.509342         478.436         196.315 
       0.515458          474.11         191.163 
       0.521598         460.645         186.172 
       0.527764         454.755         181.343 
       0.533884         450.943         176.729 
           0.54         445.635          172.29 
       0.546137         442.003             168 
       0.552299         435.466         163.849 
       0.558452         431.807         159.848 
       0.564573          427.01         155.997 
       0.570708         420.368         152.258 
       0.576825         410.803         148.647 
       0.582926         410.376          145.16 
       0.589034         405.919         141.782 
       0.595184         402.961         138.492 
       0.601379         395.364         135.287 
       0.607522         390.703         132.212 
       0.613639         388.542         129.246 
       0.619772         382.427         126.365 
       0.625918         379.819         123.568 
       0.632068         373.671         120.854 
       0.638161         371.682         118.245 
         0.6443         366.475         115.695 
       0.650464         363.815          113.21 
       0.656582         359.188         110.815 
       0.662703         358.912         108.489 
       0.668861         353.535         106.218 
       0.675024         350.151          104.01 
       0.681124         346.748         101.888 
       0.687237         343.916         99.8215 
       0.693381         338.648         97.8035 
       0.699536         334.359         95.8381 
       0.705665         332.658         93.9354 
       0.711789         331.424         92.0861 
       0.717957         328.347          90.274 
        0.72409         326.376         88.5207 
       0.730186         321.809         86.8247 
       0.736317         319.144          85.164 
       0.742472         316.568         83.5408 
       0.748622          313.95         81.9615 
        0.75476         309.707         80.4267 
       0.760888         306.713         78.9337 
       0.767043         306.403         77.4729 
       0.773185         303.653         76.0522 
       0.779291         299.443         74.6753 
       0.785407         298.415         73.3307 
       0.791564         295.061         72.0108 
       0.797719         292.934         70.7242 
       0.803834         289.131         69.4772 
       0.809972          288.75         68.2559 
       0.816124          287.49         67.0613 
       0.822261         284.717         65.8987 
       0.828378         282.114         64.7672 
       0.834502         278.988         63.6613 
       0.840667         277.392         62.5742 
       0.846816         276.095         61.5156 
       0.852925         274.271         60.4882 
       0.859047         271.839         59.4821 
       0.865192         268.581         58.4957 
       0.871341         266.347          57.531 
       0.877463         266.542         56.5925 
       0.883569         263.992         55.6774 
       0.889708         261.333         54.7779 
       0.895864         260.935          53.896 
       0.902008         258.156         53.0354 
       0.908149         255.528         52.1941 
       0.914301         253.527         51.3698 
       0.920448         252.012         50.5641 
       0.926574         249.165         49.7785 
       0.932687         248.882         49.0113 
       0.938823          246.13         48.2576 
       0.944975         245.912          47.518 
       0.951105         243.677         46.7966 
       0.957225         242.283         46.0915 
       0.963368         238.822         45.3985 
       0.969511         238.205         44.7197 
       0.975621         236.631         44.0585 
       0.981748          235.18         43.4091 
       0.987916         233.968         42.7686 
        0.99406         231.575         42.1435 
        1.00019         229.928         41.5321 
        1.00632         229.157         40.9334 
        1.01246          227.14         40.3456 
        1.01859         227.103         39.7704 
        1.02471          223.63          39.207 
        1.03085         222.776         38.6527 
        1.03698         221.249         38.1102 
        1.04314         219.694         37.5758 
        1.04929         218.337         37.0529 
        1.05541         217.959         36.5421 
        1.06154         215.021         36.0397 
        1.06769         214.634         35.5459 
        1.07382          212.84          35.063 
        1.07993         211.622         34.5902 
        1.08607         211.237         34.1242 
        1.09222         208.933         33.6663 
        1.09836         207.384         33.2173 
        1.10449         205.845          32.777 
        1.11063         204.265         32.3442 
        1.11677          203.74         31.9194 
         1.1229         201.635          31.503 
        1.12903         201.036         31.0936 
        1.13518         199.697         30.6911 
        1.14131         198.227         30.2961 
        1.14745         198.231         29.9082 
        1.15359         196.129          29.527 
        1.15973         194.453         29.1523 
        1.16584         193.651         28.7858 
        1.17197         193.575          28.425 
        1.17811         190.895         28.0694 
        1.18424          190.16         27.7209 
        1.19038         189.419         27.3773 
        1.19652         187.508         27.0396 
        1.20267         187.596         26.7076 
        1.20881          185.71         26.3813 
        1.21495         184.716          26.061 
        1.22108         183.448          25.746 
         1.2272           182.3          25.437 
        1.23334         182.202         25.1323 
        1.23949         179.848         24.8319 
        1.24562         179.253         24.5372 
        1.25174          178.48         24.2478 
        1.25789         177.435         23.9621 
        1.26402         175.473         23.6815 
        1.27014          174.74         23.4061 
        1.27628         173.547         23.1342 
        1.28244         173.524         22.8662 
        1.28858         171.751         22.6027 
        1.29471         171.084          22.344 
        1.30084         169.675         22.0895 
        1.30697         168.502         21.8386 
        1.31312         167.401         21.5913 
        1.31925         166.251         21.3485 
        1.32537         166.267         21.1097 
        1.33151         164.639         20.8738 
        1.33765         163.581         20.6415 
        1.34378         162.891         20.4133 
        1.34992         162.192         20.1883 
        1.35606         161.733         19.9663 
         1.3622         159.876         19.7479 
        1.36833         159.138         19.5334 
        1.37445         158.376         19.3221 
        1.38059          157.23         19.1133 
        1.38675         156.776         18.9072 
        1.39288         155.673         18.7048 
        1.39901         154.844         18.5055 
        1.40515         153.825         18.3087 
         1.4113         153.089         18.1148 
        1.41742         151.793         17.9244 
        1.42355         151.351         17.7365 
         1.4297         150.109         17.5506 
        1.43585         149.417         17.3675 
        1.44198         149.092         17.1877 
        1.44809         148.018         17.0108 
        1.45423         147.463         16.8357 
        1.46036         146.223         16.6633 
        1.46649         145.372         16.4934 
        1.47263         144.584         16.3256 
        1.47877         143.448         16.1603 
        1.48491         142.427         15.9969 
        1.49104         142.297         15.8362 
        1.49718         140.873         15.6776 
        1.50333         140.164         15.5209 
        1.50947         139.358         15.3666 
         1.5156         138.795         15.2147 
        1.52172         138.124         15.0648 
        1.52787         136.874         14.9166 
          1.534         136.547         14.7706 
        1.54013         135.716         14.6267 
        1.54627         134.965         14.4844 
        1.55241         133.951          14.344 
        1.55855         133.272         14.2057 
        1.56467         132.187         14.0696 
         1.5708         131.483         13.9348 
        1.57695         131.414         13.8016 
        1.58308         130.543         13.6705 
        1.58922         129.826          13.541 
        1.59535         129.032         13.4132 
         1.6015         128.407         13.2868 
        1.60764         127.897         13.1622 
        1.61376         126.963         13.0394 
        1.61989         126.105         12.9182 
        1.62604         125.255         12.7982 
        1.63218         125.065         12.6798 
        1.63831          124.18         12.5632 
        1.64444         123.407          12.448 
        1.65059         122.679         12.3339 
        1.65673         122.179         12.2214 
        1.66285         121.493         12.1107 
        1.66898         120.831         12.0012 
        1.67512         119.956         11.8929 
        1.68127         119.476         11.7858 
         1.6874         118.892         11.6803 
        1.69353         118.273         11.5762 
        1.69967         117.388          11.473 
        1.70581         116.644         11.3712 
        1.71193         116.052         11.2709 
        1.71806          115.74         11.1717 
        1.72421         115.161         11.0735 
        1.73035         114.658         10.9765 
        1.73649         113.854         10.8807 
        1.74262         113.346         10.7862 
        1.74876         112.661         10.6927 
        1.75489         111.963         10.6005 
        1.76101         111.197         10.5094 
        1.76715         110.919         10.4192 
        1.77329         110.153           10.33 
        1.77943         109.882         10.2418 
        1.78557         109.405         10.1548 
        1.79171         108.378         10.0687 
        1.79785         107.922         9.98367 
        1.80399         107.357          9.8996 
        1.81012         106.916         9.81661 
        1.81625         106.439         9.73459 
        1.82239         105.789         9.65339 
        1.82853         105.016         9.57315 
        1.83466         104.633          9.4939 
        1.84078         104.101         9.41563 
        1.84692         103.229         9.33811 
        1.85306         103.105         9.26136 
         1.8592         102.319          9.1856 
        1.86533         101.915         9.11072 
        1.87147         101.168         9.03659 
        1.87761         100.432         8.96325 
        1.88375         100.215          8.8908 
        1.88988         99.3898         8.81923 
        1.89601         98.9905         8.74841 
        1.90215         98.5291         8.67831 
        1.90829         97.9533         8.60901 
        1.91442         97.5845         8.54046 
        1.92056         96.8661         8.47271 
         1.9267         96.5108         8.40562 
        1.93284         95.8831         8.33922 
        1.93897          95.353         8.27366 
        1.94509          95.109         8.20894 
        1.95123         94.5545         8.14475 
        1.95737         93.8712          8.0812 
        1.96349         93.4435         8.01848 
        1.96964         92.8038         7.95625 
        1.97578         92.2598         7.89465 
        1.98192         91.9717         7.83382 
        1.98805         91.5547         7.77363 
        1.99419         90.9691         7.71406 
        2.00033         90.5352         7.65508 
        2.00647         90.1449         7.59674 
         2.0126         89.5383          7.5391 
        2.01874         89.0658         7.48197 
        2.02488          88.697         7.42538 
        2.03101         88.0655         7.36948 
        2.03714         87.6511          7.3142 
        2.04328         87.1468         7.25943 
        2.04941          86.764         7.20526 
        2.05554          86.263         7.15168 
        2.06167         85.9312         7.09857 
        2.06781         85.2407         7.04599 
        2.07396         85.1327         6.99387 
        2.08009         84.6337         6.94236 
        2.08622         83.9882         6.89143 
        2.09237         83.8417          6.8409 
        2.09851         83.2548         6.79088 
        2.10464         82.8741         6.74143 
        2.11077         82.2132         6.69253 
        2.11691         82.0228         6.64401 
        2.12305         81.6726         6.59597 
        2.12918         81.1892         6.54851 
        2.13531          80.667         6.50152 
        2.14145         80.2773         6.45488 
         2.1476         79.8702         6.40864 
        2.15372         79.4859         6.36308 
        2.15985         79.0547         6.31792 
        2.16599         78.6159         6.27306 
        2.17213         78.2189         6.22869 
        2.17827         77.6223         6.18476 
         2.1844         77.4396         6.14129 
        2.19054         77.0044         6.09822 
        2.19666         76.5858         6.05562 
         2.2028         76.2816         6.01339 
        2.20893         75.8628         5.97154 
        2.21508         75.5021         5.93004 
        2.22122          75.112         5.88892 
        2.22736         74.5808         5.84827 
        2.23349         74.3528         5.80802 
        2.23962         74.0273         5.76812 
        2.24577          73.605         5.72856 
         2.2519         73.3194         5.68942 
        2.25802         72.9049         5.65072 
        2.26417         72.5169         5.61226 
        2.27031         72.1004         5.57412 
        2.27644         71.6013         5.53645 
        2.28257         71.3927         5.49912 
        2.28872         71.1433         5.46207 
        2.29486          70.645         5.42536 
        2.30099         70.0938         5.38907 
        2.30712         69.9546         5.35309 
        2.31326         69.5596         5.31738 
         2.3194         69.2087         5.28201 
        2.32553         68.9955         5.24702 
        2.33166         68.5553         5.21237 
         2.3378         68.1512         5.17798 
        2.34394         67.9126         5.14388 
        2.35007          67.555         5.11014 
        2.35619         67.1688         5.07675 
        2.36233         66.8219         5.04357 
        2.36848         66.4429         5.01062 
        2.37462         66.2269         4.97803 
        2.38075         65.8139         4.94576 
        2.38689         65.4813         4.91375 
        2.39303         65.1677         4.88202 
        2.39916          64.811         4.85061 
        2.40529         64.6719         4.81948 
        2.41143         64.0853          4.7886 
        2.41757         63.8645         4.75797 
         2.4237         63.5695         4.72766 
        2.42983         63.2698         4.69762 
        2.43598         62.9326         4.66776 
        2.44211         62.5901         4.63821 
        2.44823         62.3647         4.60898 
        2.45437         62.0033         4.57992 
        2.46052         61.7283         4.55109 
        2.46665         61.4268         4.52255 
        2.47279         61.0399         4.49427 
        2.47892         60.7046         4.46621 
        2.48507         60.4557         4.43836 
         2.4912         60.1965          4.4108 
