# k  (h/Mpc)    Pcb(k)  (Mpc/h)^3    Pcb_linear(k)  (Mpc/h)^3
     0.00783031         12705.5         12758.5 
       0.013688         16302.9         16728.5 
       0.019231         17493.1         17776.4 
      0.0249154         17167.5         17203.5 
      0.0312784         15375.1         15614.7 
      0.0375637         13505.8         13842.3 
      0.0433917         12234.6         12407.5 
      0.0492413         11020.1         11293.1 
      0.0555754         10217.6         10416.2 
      0.0619321         9252.51         9746.67 
       0.067871         8827.86         9176.76 
      0.0738098         8302.88         8569.45 
      0.0800417         7623.96         7860.33 
      0.0862327         6876.37         7113.64 
      0.0921407         6245.18         6422.71 
      0.0982031         5724.47         5796.47 
       0.104506         5149.61         5273.55 
       0.110769         4797.56         4887.65 
       0.116806         4612.59         4617.15 
       0.122832         4349.49         4406.55 
       0.129052         4137.95         4207.66 
       0.135211         4013.23         3995.96 
       0.141259         3728.81          3760.3 
       0.147318         3453.82         3502.43 
       0.153489         3259.46         3236.44 
       0.159709         3125.58         2987.95 
       0.165845         2858.92          2779.1 
       0.171974          2788.1         2613.06 
       0.178125         2705.54         2485.26 
       0.184229         2504.68         2385.57 
        0.19034         2473.84          2298.5 
       0.196428         2407.83         2211.59 
       0.202534         2269.72         2116.31 
       0.208729         2222.41         2009.73 
       0.214876         2128.91         1898.31 
       0.220989         2023.04         1789.11 
       0.227147         1970.69         1687.96 
        0.23329         1896.03         1600.66 
       0.239377         1885.07         1528.84 
       0.245482         1801.16         1469.51 
       0.251667         1736.96         1418.15 
       0.257832         1713.36         1370.77 
       0.263955         1639.69         1323.51 
       0.270079         1601.43         1273.73 
        0.27624         1535.22         1221.09 
       0.282372          1518.9          1167.7 
        0.28843         1493.58         1116.31 
       0.294538          1427.8         1068.14 
       0.300721         1401.88         1024.51 
        0.30691         1369.95         986.355 
       0.313033         1320.67         953.208 
       0.319153          1307.9         923.298 
       0.325316         1291.98         894.761 
        0.33145         1266.62         866.708 
       0.337538         1227.21         838.453 
       0.343633          1199.6          809.81 
       0.349808         1178.83         780.878 
       0.355968          1155.9         752.891 
       0.362074         1123.84         726.728 
       0.368217          1120.7         702.409 
       0.374374         1104.02         680.178 
       0.380519         1067.36         659.817 
       0.386598         1062.98         641.053 
       0.392688         1037.65         623.104 
        0.39888         1016.36         605.262 
       0.405048          998.89         587.707 
       0.411186         994.749         570.381 
       0.417313         992.734         553.371 
       0.423458         961.649         536.854 
       0.429607         936.441         521.052 
       0.435692         929.916         506.278 
       0.441815          912.73         492.323 
       0.447964         903.205         479.126 
       0.454126         891.051         466.567 
       0.460267         880.658         454.567 
       0.466387         867.611         442.962 
        0.47254         851.909         431.539 
       0.478662         842.127         420.412 
       0.484765         834.547         409.596 
       0.490885         824.791         399.065 
       0.497035         811.096         388.856 
       0.503198         809.964         379.061 
       0.509342         795.267         369.745 
       0.515458         779.734         360.872 
       0.521598         777.755         352.315 
       0.527764         760.314         344.028 
       0.533884         754.005         336.063 
           0.54         747.918         328.322 
       0.546137         738.127         320.742 
       0.552299         733.734         313.327 
       0.558452         726.041         306.141 
       0.564573         719.785         299.223 
       0.570708         713.485         292.526 
       0.576825         699.003         286.077 
       0.582926         697.263         279.863 
       0.589034         688.696         273.851 
       0.595184         681.479         267.993 
       0.601379         671.095         262.272 
       0.607522         662.093         256.757 
       0.613639         661.109         251.407 
       0.619772         656.334         246.182 
       0.625918         646.395         241.088 
       0.632068         642.504         236.137 
       0.638161         634.494         231.377 
         0.6443         628.683         226.725 
       0.650464         623.794         222.193 
       0.656582         619.082         217.823 
       0.662703         611.452         213.573 
       0.668861         605.406         209.412 
       0.675024         601.405         205.359 
       0.681124         591.973         201.454 
       0.687237         591.608         197.643 
       0.693381          581.93         193.913 
       0.699536         581.519         190.273 
       0.705665         574.637         186.743 
       0.711789         573.115         183.307 
       0.717957         565.162         179.936 
        0.72409         560.421         176.669 
       0.730186         559.744         173.505 
       0.736317         551.985         170.402 
       0.742472         545.495         167.366 
       0.748622         543.259         164.408 
        0.75476         537.727         161.529 
       0.760888         534.827         158.724 
       0.767043           532.2         155.975 
       0.773185         528.471         153.298 
       0.779291         521.963           150.7 
       0.785407         518.407         148.158 
       0.791564         514.978          145.66 
       0.797719         507.665         143.221 
       0.803834         509.188         140.854 
       0.809972         501.842         138.533 
       0.816124         497.894          136.26 
       0.822261         494.917         134.044 
       0.828378         492.465         131.885 
       0.834502         484.991         129.773 
       0.840667         484.608         127.693 
       0.846816         478.807         125.666 
       0.852925         478.309         123.696 
       0.859047         473.842         121.765 
       0.865192         471.129         119.869 
       0.871341         465.119         118.013 
       0.877463         463.574         116.205 
       0.883569         458.902          114.44 
       0.889708         454.536         112.703 
       0.895864         450.659         110.998 
       0.902008         449.698         109.332 
       0.908149         445.779         107.702 
       0.914301         444.081         106.103 
       0.920448         439.016         104.539 
       0.926574         436.893         103.011 
       0.932687         435.299         101.518 
       0.938823         429.805         100.049 
       0.944975         428.111         98.6065 
       0.951105         425.013         97.1978 
       0.957225         418.885         95.8193 
       0.963368         420.129         94.4631 
       0.969511         413.049         93.1334 
       0.975621         412.752         91.8367 
       0.981748         410.014         90.5616 
       0.987916         407.568         89.3029 
        0.99406         403.847         88.0731 
        1.00019         399.691         86.8692 
        1.00632         399.235          85.689 
        1.01246         395.925         84.5293 
        1.01859         391.846         83.3932 
        1.02471         389.952         82.2795 
        1.03085         388.178         81.1825 
        1.03698          385.82         80.1081 
        1.04314         383.611         79.0487 
        1.04929         381.263         78.0111 
        1.05541         376.109         76.9965 
        1.06154         375.388         75.9977 
        1.06769          371.56         75.0152 
        1.07382         369.736         74.0535 
        1.07993         367.916          73.111 
        1.08607         365.383         72.1812 
        1.09222         362.439         71.2667 
        1.09836         360.708         70.3694 
        1.10449         358.004         69.4887 
        1.11063         355.614         68.6223 
        1.11677         351.742         67.7711 
         1.1229         351.233          66.936 
        1.12903         348.259         66.1143 
        1.13518         345.999         65.3059 
        1.14131          344.83         64.5116 
        1.14745         340.466         63.7311 
        1.15359          338.15         62.9635 
        1.15973         336.928         62.2083 
        1.16584         335.191          61.469 
        1.17197         332.573         60.7408 
        1.17811         329.303         60.0223 
        1.18424         328.016         59.3175 
        1.19038         326.076         58.6222 
        1.19652         322.651         57.9383 
        1.20267         322.065         57.2655 
        1.20881         320.093         56.6036 
        1.21495         317.385         55.9532 
        1.22108         315.882         55.3132 
         1.2272         311.552         54.6849 
        1.23334         310.877         54.0649 
        1.23949          308.99         53.4532 
        1.24562          307.94         52.8527 
        1.25174          305.07         52.2624 
        1.25789         302.759         51.6794 
        1.26402         301.906         51.1064 
        1.27014         300.377         50.5436 
        1.27628         297.326         49.9876 
        1.28244         295.692          49.439 
        1.28858         294.138         48.8995 
        1.29471         292.573         48.3692 
        1.30084         291.194         47.8474 
        1.30697         288.041         47.3325 
        1.31312         286.159         46.8245 
        1.31925         284.999         46.3256 
        1.32537         283.575         45.8346 
        1.33151         280.986          45.349 
        1.33765         279.022         44.8707 
        1.34378         277.292         44.4004 
        1.34992         274.958         43.9365 
        1.35606         273.871         43.4783 
         1.3622         272.249         43.0275 
        1.36833         270.857         42.5843 
        1.37445         269.557         42.1475 
        1.38059         266.677         41.7156 
        1.38675         265.361         41.2888 
        1.39288         264.361         40.8696 
        1.39901         261.804         40.4566 
        1.40515         260.679         40.0483 
         1.4113          258.63         39.6459 
        1.41742         256.335         39.2506 
        1.42355          256.53           38.86 
         1.4297         254.116         38.4736 
        1.43585         251.854         38.0926 
        1.44198         250.681         37.7182 
        1.44809         249.577         37.3497 
        1.45423         247.864         36.9847 
        1.46036         246.468         36.6253 
        1.46649         245.158         36.2706 
        1.47263         243.011         35.9204 
        1.47877         241.651         35.5749 
        1.48491         239.812         35.2335 
        1.49104         238.129         34.8973 
        1.49718         237.114         34.5652 
        1.50333         235.021          34.237 
        1.50947         234.285         33.9138 
         1.5156         232.574         33.5952 
        1.52172         231.074         33.2807 
        1.52787         229.446         32.9697 
          1.534         229.107          32.663 
        1.54013         227.013         32.3606 
        1.54627         225.853         32.0615 
        1.55241         224.413         31.7661 
        1.55855          223.31         31.4749 
        1.56467         221.758         31.1882 
         1.5708         220.332         30.9043 
        1.57695         219.138         30.6235 
        1.58308         217.845         30.3469 
        1.58922         216.207         30.0735 
        1.59535         214.543         29.8036 
         1.6015         213.768         29.5367 
        1.60764         212.269         29.2732 
        1.61376         210.487         29.0136 
        1.61989          209.18          28.757 
        1.62604         207.999          28.503 
        1.63218         206.816         28.2522 
        1.63831         206.308          28.005 
        1.64444         204.301         27.7607 
        1.65059         203.504         27.5188 
        1.65673          201.85           27.28 
        1.66285         200.934         27.0448 
        1.66898         199.771         26.8122 
        1.67512         198.336          26.582 
        1.68127         197.389         26.3543 
         1.6874         195.994         26.1297 
        1.69353         195.065          25.908 
        1.69967          193.55         25.6883 
        1.70581         192.799         25.4712 
        1.71193         191.358         25.2575 
        1.71806         190.011         25.0458 
        1.72421         189.123         24.8361 
        1.73035         187.674         24.6291 
        1.73649         186.378         24.4245 
        1.74262         185.706         24.2224 
        1.74876          184.64         24.0225 
        1.75489         183.709         23.8252 
        1.76101         182.457         23.6302 
        1.76715         181.225         23.4372 
        1.77329         179.778         23.2461 
        1.77943         178.815          23.057 
        1.78557         178.076         22.8703 
        1.79171          177.24         22.6857 
        1.79785         175.979         22.5031 
        1.80399         174.828         22.3226 
        1.81012         173.892         22.1443 
        1.81625         172.582          21.968 
        1.82239         171.652         21.7934 
        1.82853         170.968         21.6208 
        1.83466         169.389         21.4502 
        1.84078         168.836         21.2817 
        1.84692         167.821         21.1147 
        1.85306         166.517         20.9493 
         1.8592         165.967          20.786 
        1.86533         164.272         20.6245 
        1.87147         163.608         20.4645 
        1.87761         162.816         20.3062 
        1.88375         161.343         20.1498 
        1.88988         160.819         19.9951 
        1.89601         160.426         19.8421 
        1.90215         159.224         19.6905 
        1.90829         157.839         19.5405 
        1.91442         157.208         19.3922 
        1.92056         156.028         19.2455 
         1.9267         155.423         19.1002 
        1.93284         154.248         18.9563 
        1.93897         153.381         18.8142 
        1.94509         152.503         18.6738 
        1.95123         151.712         18.5346 
        1.95737         151.053         18.3966 
        1.96349         149.862         18.2605 
        1.96964         149.068         18.1253 
        1.97578         148.126         17.9914 
        1.98192         147.339         17.8592 
        1.98805         146.514         17.7283 
        1.99419         145.265         17.5986 
        2.00033         144.822         17.4703 
        2.00647         143.906         17.3432 
         2.0126         143.031         17.2177 
        2.01874         142.197         17.0932 
        2.02488         141.484         16.9698 
        2.03101         141.053         16.8479 
        2.03714         139.858         16.7273 
        2.04328         138.947         16.6077 
        2.04941         138.659         16.4894 
        2.05554         137.749         16.3724 
        2.06167         136.723         16.2563 
        2.06781         135.946         16.1414 
        2.07396         135.171         16.0274 
        2.08009         134.589         15.9147 
        2.08622         133.541         15.8033 
        2.09237         132.643         15.6927 
        2.09851         132.219         15.5831 
        2.10464         131.428         15.4748 
        2.11077         130.662         15.3676 
        2.11691         130.082         15.2612 
        2.12305          129.27         15.1558 
        2.12918         128.409         15.0517 
        2.13531         127.539         14.9486 
        2.14145         127.071         14.8461 
         2.1476         126.223         14.7446 
        2.15372         125.515         14.6444 
        2.15985         124.696         14.5452 
        2.16599         124.116         14.4465 
        2.17213         123.412         14.3489 
        2.17827         122.714         14.2522 
         2.1844         122.116         14.1565 
        2.19054         121.205         14.0617 
        2.19666         120.524         13.9679 
         2.2028         120.003         13.8748 
        2.20893         119.486         13.7825 
        2.21508         118.326          13.691 
        2.22122         117.862         13.6003 
        2.22736         117.429         13.5106 
        2.23349         116.816         13.4217 
        2.23962         116.053         13.3336 
        2.24577         115.434         13.2462 
         2.2519         114.569         13.1598 
        2.25802         114.183         13.0742 
        2.26417         113.378         12.9892 
        2.27031         112.761         12.9048 
        2.27644         112.309         12.8214 
        2.28257          111.77         12.7388 
        2.28872         111.011         12.6568 
        2.29486         110.462         12.5755 
        2.30099         109.655         12.4951 
        2.30712         109.297         12.4153 
        2.31326         108.563         12.3361 
         2.3194         108.066         12.2577 
        2.32553          107.29         12.1801 
        2.33166         107.129         12.1032 
         2.3378          106.31         12.0268 
        2.34394         105.453         11.9511 
        2.35007         104.968         11.8761 
        2.35619         104.403         11.8019 
        2.36233         103.998         11.7282 
        2.36848          103.19         11.6549 
        2.37462         102.939         11.5824 
        2.38075         102.321         11.5106 
        2.38689         101.739         11.4393 
        2.39303         101.168         11.3687 
        2.39916          100.72         11.2988 
        2.40529         100.219         11.2294 
        2.41143         99.4376         11.1606 
        2.41757         98.7723         11.0923 
         2.4237         98.4377         11.0247 
        2.42983         97.7664         10.9577 
        2.43598         97.4339         10.8911 
        2.44211         96.9195         10.8251 
        2.44823         96.2847         10.7599 
        2.45437         95.9135          10.695 
        2.46052         95.1644         10.6305 
        2.46665          94.773         10.5668 
        2.47279         94.3096         10.5035 
        2.47892         93.8289         10.4408 
        2.48507         93.4493         10.3785 
         2.4912         92.7222         10.3168 
