# k  (h/Mpc)    Pcb(k)  (Mpc/h)^3    Pcb_linear(k)  (Mpc/h)^3
     0.00783031         1007.24         1013.66 
       0.013688         1314.14         1327.89 
       0.019231         1404.48         1410.93 
      0.0249154         1365.03         1365.46 
      0.0312784         1237.08         1239.39 
      0.0375637         1095.08         1098.72 
      0.0433917         985.931         984.848 
      0.0492413         894.541          896.41 
      0.0555754         828.231          826.81 
      0.0619321         766.844         773.672 
       0.067871         726.264         728.438 
      0.0738098         678.855         680.235 
      0.0800417         624.113         623.948 
      0.0862327         563.525         564.679 
      0.0921407         508.795         509.834 
      0.0982031         461.106         460.125 
       0.104506         416.957         418.616 
       0.110769         386.851         387.985 
       0.116806         368.011         366.513 
       0.122832         348.948         349.795 
       0.129052         334.308         334.008 
       0.135211         318.698         317.203 
       0.141259          298.64         298.497 
       0.147318         276.724         278.027 
       0.153489         257.158         256.912 
       0.159709         238.832         237.188 
       0.165845         219.963         220.609 
       0.171974         209.866         207.429 
       0.178125         199.701         197.284 
       0.184229         190.298         189.371 
        0.19034         184.774         182.459 
       0.196428         177.678          175.56 
       0.202534         168.261         167.996 
       0.208729         161.527         159.536 
       0.214876         153.799         150.691 
       0.220989         143.255         142.023 
       0.227147         137.555         133.994 
        0.23329         131.036         127.064 
       0.239377         125.781         121.362 
       0.245482         120.462         116.653 
       0.251667         115.678         112.575 
       0.257832         113.168         108.815 
       0.263955         108.263         105.063 
       0.270079          104.36         101.111 
        0.27624          99.622         96.9321 
       0.282372         95.7571         92.6943 
        0.28843         93.1394         88.6149 
       0.294538         88.9906         84.7913 
       0.300721         84.9523         81.3277 
        0.30691         82.8659         78.2988 
       0.313033         79.8314         75.6676 
       0.319153         78.3426         73.2932 
       0.325316           74.94         71.0279 
        0.33145         72.6242          68.801 
       0.337538         70.5593         66.5581 
       0.343633         68.5117         64.2844 
       0.349808         66.1037         61.9877 
       0.355968         63.8728          59.766 
       0.362074         62.3724         57.6892 
       0.368217         60.4031         55.7587 
       0.374374         59.1222         53.9939 
       0.380519          56.747         52.3777 
       0.386598         55.1355         50.8881 
       0.392688         53.6069         49.4633 
        0.39888         52.5215          48.047 
       0.405048         51.2289         46.6534 
       0.411186         49.8189          45.278 
       0.417313         48.4314         43.9278 
       0.423458         46.9521         42.6166 
       0.429607         46.1072         41.3622 
       0.435692         45.1985         40.1894 
       0.441815         43.5543         39.0817 
       0.447964         42.3004          38.034 
       0.454126         41.5769         37.0371 
       0.460267         41.0934         36.0845 
       0.466387         39.9092         35.1632 
        0.47254         39.2511         34.2565 
       0.478662         38.1007         33.3732 
       0.484765         37.2792         32.5146 
       0.490885         36.2267         31.6786 
       0.497035         35.5157         30.8682 
       0.503198         34.7528         30.0907 
       0.509342         33.8469         29.3512 
       0.515458         33.3925         28.6468 
       0.521598         32.6389         27.9675 
       0.527764         32.1855         27.3097 
       0.533884         31.3244         26.6774 
           0.54          30.752         26.0629 
       0.546137         29.8598         25.4612 
       0.552299         29.3615         24.8726 
       0.558452          28.771         24.3021 
       0.564573         28.4151          23.753 
       0.570708          27.732         23.2213 
       0.576825         27.2881         22.7094 
       0.582926         26.7782         22.2162 
       0.589034          26.284         21.7389 
       0.595184         25.9445         21.2739 
       0.601379          25.261         20.8198 
       0.607522         24.8679          20.382 
       0.613639         24.3792         19.9573 
       0.619772         24.0217         19.5425 
       0.625918         23.5284         19.1381 
       0.632068         23.2968          18.745 
       0.638161         22.8342         18.3672 
         0.6443         22.4426         17.9979 
       0.650464            21.9         17.6382 
       0.656582         21.7654         17.2913 
       0.662703         21.4897         16.9539 
       0.668861         20.9162         16.6236 
       0.675024         20.6345         16.3018 
       0.681124          20.548         15.9918 
       0.687237         20.1195         15.6893 
       0.693381         19.6422         15.3932 
       0.699536         19.5632         15.1043 
       0.705665         19.2045         14.8241 
       0.711789         18.8364         14.5514 
       0.717957         18.4667         14.2837 
        0.72409         18.3106         14.0244 
       0.730186         18.1867         13.7732 
       0.736317         17.8084         13.5269 
       0.742472         17.5867         13.2859 
       0.748622         17.3227         13.0511 
        0.75476         16.8972         12.8225 
       0.760888          16.805         12.5999 
       0.767043          16.497         12.3817 
       0.773185         16.3116         12.1692 
       0.779291         16.2111         11.9629 
       0.785407         15.9026         11.7611 
       0.791564         15.7477         11.5628 
       0.797719          15.438         11.3692 
       0.803834         15.3345         11.1813 
       0.809972         15.0567         10.9971 
       0.816124         14.8892         10.8166 
       0.822261         14.7156         10.6407 
       0.828378         14.5188         10.4694 
       0.834502         14.3732         10.3017 
       0.840667           14.23         10.1366 
       0.846816         13.9406         9.97567 
       0.852925         13.8378         9.81929 
       0.859047         13.6709         9.66599 
       0.865192         13.4869         9.51549 
       0.871341         13.2989         9.36814 
       0.877463         13.1599         9.22462 
       0.883569         13.0541         9.08451 
       0.889708         12.8532         8.94662 
       0.895864         12.6979         8.81128 
       0.902008         12.5386         8.67906 
       0.908149         12.3785         8.54966 
       0.914301         12.2969         8.42272 
       0.920448          12.124         8.29851 
       0.926574         12.0618         8.17726 
       0.932687          11.869         8.05872 
       0.938823         11.7101         7.94214 
       0.944975         11.6178         7.82761 
       0.951105         11.4571         7.71578 
       0.957225         11.3915         7.60635 
       0.963368         11.2531         7.49869 
       0.969511         11.1281         7.39314 
       0.975621         11.0057          7.2902 
       0.981748         10.8388         7.18899 
       0.987916         10.7571         7.08907 
        0.99406         10.6883         6.99145 
        1.00019         10.5822         6.89587 
        1.00632         10.4801         6.80219 
        1.01246         10.3495         6.71013 
        1.01859         10.2392         6.61994 
        1.02471         10.1017         6.53153 
        1.03085         10.0695         6.44445 
        1.03698         9.96385         6.35916 
        1.04314         9.86369         6.27507 
        1.04929         9.72301          6.1927 
        1.05541         9.66164         6.11216 
        1.06154         9.57699         6.03287 
        1.06769         9.53678         5.95488 
        1.07382         9.36898         5.87853 
        1.07993          9.2747         5.80372 
        1.08607         9.23334         5.72991 
        1.09222         9.11272         5.65732 
        1.09836         9.09796         5.58609 
        1.10449         8.91865         5.51618 
        1.11063         8.89397          5.4474 
        1.11677          8.8233         5.37983 
         1.1229         8.73933         5.31353 
        1.12903          8.6801         5.24831 
        1.13518         8.54749         5.18414 
        1.14131         8.48456         5.12108 
        1.14745         8.38429         5.05912 
        1.15359         8.32672         4.99819 
        1.15973         8.24909         4.93824 
        1.16584         8.18744         4.87955 
        1.17197         8.11219         4.82175 
        1.17811         8.03868         4.76471 
        1.18424         7.97472         4.70876 
        1.19038         7.91798         4.65357 
        1.19652          7.8636         4.59928 
        1.20267          7.7959         4.54587 
        1.20881         7.72033         4.49332 
        1.21495         7.65573          4.4417 
        1.22108         7.60547         4.39089 
         1.2272         7.52158         4.34101 
        1.23334          7.5121          4.2918 
        1.23949         7.42004         4.24324 
        1.24562         7.36448         4.19557 
        1.25174         7.31841         4.14871 
        1.25789         7.21807         4.10243 
        1.26402         7.18367         4.05695 
        1.27014         7.13789         4.01227 
        1.27628         7.05875         3.96814 
        1.28244         7.03534         3.92459 
        1.28858         6.99048         3.88175 
        1.29471         6.89579         3.83966 
        1.30084          6.8429         3.79824 
        1.30697         6.81834         3.75736 
        1.31312         6.75739         3.71704 
        1.31925         6.70603         3.67744 
        1.32537         6.66731         3.63846 
        1.33151         6.60705         3.59991 
        1.33765         6.55876         3.56194 
        1.34378         6.53604         3.52461 
        1.34992         6.47483         3.48778 
        1.35606         6.43081         3.45141 
         1.3622         6.38402         3.41563 
        1.36833         6.32747         3.38044 
        1.37445         6.27507         3.34577 
        1.38059         6.24028         3.31148 
        1.38675         6.19142          3.2776 
        1.39288         6.16009         3.24433 
        1.39901         6.09785         3.21154 
        1.40515         6.06701         3.17913 
         1.4113         6.02252         3.14719 
        1.41742         5.98098         3.11581 
        1.42355         5.93469          3.0848 
         1.4297         5.90709         3.05412 
        1.43585         5.86709         3.02388 
        1.44198         5.82201         2.99416 
        1.44809          5.7966         2.96491 
        1.45423         5.75171         2.93594 
        1.46036         5.71587         2.90741 
        1.46649          5.6655         2.87925 
        1.47263         5.64655         2.85144 
        1.47877         5.60702         2.82402 
        1.48491         5.57077         2.79692 
        1.49104         5.52984         2.77023 
        1.49718         5.50371         2.74387 
        1.50333          5.4625         2.71782 
        1.50947         5.41364         2.69216 
         1.5156         5.39885         2.66687 
        1.52172         5.36599          2.6419 
        1.52787         5.33195         2.61721 
          1.534         5.29964         2.59287 
        1.54013         5.26343         2.56886 
        1.54627         5.23014         2.54512 
        1.55241         5.18924         2.52167 
        1.55855         5.17252         2.49856 
        1.56467         5.13654          2.4758 
         1.5708         5.10559         2.45326 
        1.57695         5.05893         2.43097 
        1.58308          5.0304         2.40901 
        1.58922         5.01746         2.38731 
        1.59535         4.98222         2.36588 
         1.6015         4.94293         2.34469 
        1.60764         4.92386         2.32377 
        1.61376         4.89142         2.30317 
        1.61989          4.8533          2.2828 
        1.62604         4.82818         2.26264 
        1.63218         4.80916         2.24273 
        1.63831         4.79176         2.22311 
        1.64444         4.75312         2.20371 
        1.65059          4.7333         2.18451 
        1.65673         4.69767         2.16555 
        1.66285         4.67342         2.14688 
        1.66898         4.64664         2.12842 
        1.67512         4.61307         2.11014 
        1.68127         4.58567         2.09207 
         1.6874         4.57893         2.07424 
        1.69353         4.52954         2.05664 
        1.69967         4.51598          2.0392 
        1.70581         4.49299         2.02197 
        1.71193         4.45912           2.005 
        1.71806         4.44028          1.9882 
        1.72421         4.41772         1.97155 
        1.73035         4.39011         1.95512 
        1.73649         4.37166         1.93888 
        1.74262         4.34738         1.92283 
        1.74876         4.32396         1.90696 
        1.75489         4.30311          1.8913 
        1.76101          4.2735         1.87582 
        1.76715         4.26278          1.8605 
        1.77329         4.23327         1.84533 
        1.77943         4.20877         1.83032 
        1.78557          4.1884          1.8155 
        1.79171          4.1751         1.80085 
        1.79785         4.14821         1.78635 
        1.80399         4.12183         1.77202 
        1.81012         4.10125         1.75787 
        1.81625         4.07983         1.74388 
        1.82239         4.06282         1.73002 
        1.82853         4.03954         1.71631 
        1.83466         4.00886         1.70277 
        1.84078          3.9932          1.6894 
        1.84692         3.97561         1.67614 
        1.85306         3.95728         1.66301 
         1.8592         3.94102         1.65004 
        1.86533         3.91692         1.63722 
        1.87147         3.90117         1.62453 
        1.87761         3.88707         1.61196 
        1.88375         3.86321         1.59954 
        1.88988         3.84607         1.58726 
        1.89601         3.81729         1.57511 
        1.90215         3.79669         1.56308 
        1.90829         3.79382         1.55118 
        1.91442         3.76438          1.5394 
        1.92056          3.7549         1.52776 
         1.9267         3.73559         1.51622 
        1.93284         3.72115          1.5048 
        1.93897         3.68899         1.49352 
        1.94509         3.68292         1.48238 
        1.95123         3.66134         1.47132 
        1.95737         3.64803         1.46037 
        1.96349         3.62518         1.44956 
        1.96964         3.60951         1.43883 
        1.97578         3.59497          1.4282 
        1.98192         3.57142         1.41771 
        1.98805         3.56531         1.40731 
        1.99419         3.54408         1.39703 
        2.00033         3.51961         1.38684 
        2.00647         3.51685         1.37675 
         2.0126          3.4977         1.36678 
        2.01874         3.48416          1.3569 
        2.02488         3.46248         1.34711 
        2.03101         3.44687         1.33743 
        2.03714         3.43937         1.32785 
        2.04328         3.41903         1.31836 
        2.04941         3.40598         1.30897 
        2.05554         3.39299         1.29968 
        2.06167         3.37088         1.29047 
        2.06781         3.36055         1.28135 
        2.07396          3.3425          1.2723 
        2.08009         3.33442         1.26335 
        2.08622         3.31692          1.2545 
        2.09237         3.31002         1.24572 
        2.09851         3.28249         1.23703 
        2.10464         3.27893         1.22843 
        2.11077         3.26785         1.21992 
        2.11691         3.24534         1.21147 
        2.12305         3.23128         1.20311 
        2.12918         3.21745         1.19484 
        2.13531         3.20321         1.18665 
        2.14145          3.1941         1.17852 
         2.1476         3.17142         1.17046 
        2.15372         3.16195         1.16251 
        2.15985         3.14884         1.15463 
        2.16599         3.14109          1.1468 
        2.17213         3.12699         1.13905 
        2.17827         3.10964         1.13138 
         2.1844           3.096         1.12378 
        2.19054         3.08568         1.11625 
        2.19666         3.07263          1.1088 
         2.2028         3.05509         1.10142 
        2.20893         3.04713         1.09409 
        2.21508          3.0396         1.08683 
        2.22122         3.02241         1.07963 
        2.22736         3.00706         1.07251 
        2.23349         2.99449         1.06545 
        2.23962         2.98862         1.05846 
        2.24577         2.97268         1.05152 
         2.2519         2.95892         1.04466 
        2.25802         2.95207         1.03786 
        2.26417         2.93852         1.03111 
        2.27031         2.92466         1.02442 
        2.27644         2.91769          1.0178 
        2.28257         2.89933         1.01124 
        2.28872         2.89255         1.00473 
        2.29486         2.87844        0.998275 
        2.30099         2.86485        0.991891 
        2.30712         2.86042        0.985561 
        2.31326          2.8468        0.979275 
         2.3194         2.83436        0.973049 
        2.32553         2.82893        0.966887 
        2.33166         2.82018        0.960781 
         2.3378         2.80557         0.95472 
        2.34394         2.79216        0.948709 
        2.35007         2.77709        0.942759 
        2.35619         2.77315        0.936867 
        2.36233          2.7622        0.931012 
        2.36848          2.7524        0.925196 
        2.37462         2.74234        0.919441 
        2.38075         2.73223        0.913741 
        2.38689         2.72377        0.908085 
        2.39303         2.71458        0.902479 
        2.39916         2.69733        0.896925 
        2.40529         2.69206        0.891419 
        2.41143         2.68515        0.885955 
        2.41757         2.67579        0.880535 
         2.4237         2.66325        0.875171 
        2.42983         2.65429        0.869851 
        2.43598         2.64649        0.864562 
        2.44211         2.63446        0.859327 
        2.44823         2.62574        0.854146 
        2.45437          2.6149        0.848994 
        2.46052         2.60616         0.84388 
        2.46665         2.59868        0.838818 
        2.47279          2.5837        0.833799 
        2.47892         2.57896        0.828818 
        2.48507         2.56539        0.823873 
         2.4912         2.56232        0.818978 
