# k  (h/Mpc)    P(k)  (Mpc/h)^3    P_linear(k)  (Mpc/h)^3
     0.00783031         7360.46         7414.11 
       0.013688         9492.61         9702.25 
       0.019231         10173.6         10303.1 
      0.0249154          9955.6         9967.53 
      0.0312784         8954.75         9044.99 
      0.0375637         7886.64         8017.13 
      0.0433917         7134.02         7185.49 
      0.0492413         6440.24         6539.75 
      0.0555754         5975.76         6031.61 
      0.0619321          5447.7          5643.7 
       0.067871         5191.45         5313.54 
      0.0738098         4870.16         4961.79 
      0.0800417          4478.3         4551.11 
      0.0862327         4037.07         4118.72 
      0.0921407         3656.09         3718.63 
      0.0982031         3337.94         3356.01 
       0.104506         3003.62         3053.22 
       0.110769         2794.18         2829.78 
       0.116806         2682.63         2673.15 
       0.122832         2527.11         2551.21 
       0.129052         2415.62         2436.04 
       0.135211         2329.46         2313.47 
       0.141259         2169.31         2177.03 
       0.147318         2002.36         2027.73 
       0.153489         1880.45         1873.72 
       0.159709         1783.71         1729.86 
       0.165845         1629.14         1608.94 
       0.171974         1585.95         1512.81 
       0.178125         1526.67         1438.82 
       0.184229         1424.17          1381.1 
        0.19034         1398.86         1330.69 
       0.196428         1356.26         1280.38 
       0.202534         1272.56         1225.21 
       0.208729          1244.5         1163.51 
       0.214876         1191.97            1099 
       0.220989         1116.31         1035.78 
       0.227147         1088.85         977.221 
        0.23329         1046.87         926.679 
       0.239377         1029.36         885.094 
       0.245482         979.786         850.749 
       0.251667         944.021         821.011 
       0.257832         934.646         793.585 
       0.263955         887.499         766.222 
       0.270079         860.529         737.404 
        0.27624         824.271         706.923 
       0.282372         808.017         676.017 
        0.28843         800.588         646.266 
       0.294538         760.471          618.38 
       0.300721         738.445         593.116 
        0.30691         726.529         571.029 
       0.313033         696.915          551.84 
       0.319153         686.549         534.524 
       0.325316         674.424         518.002 
        0.33145         660.555         501.763 
       0.337538         637.762         485.404 
       0.343633         619.651         468.823 
       0.349808         604.872         452.072 
       0.355968         593.668         435.869 
       0.362074         576.347         420.723 
       0.368217         572.161         406.642 
       0.374374         561.634         393.774 
       0.380519         540.297         381.985 
       0.386598         534.268         371.123 
       0.392688          523.56         360.732 
        0.39888         509.768         350.402 
       0.405048         501.848         340.241 
       0.411186         499.093         330.208 
       0.417313         492.616         320.361 
       0.423458          478.22         310.799 
       0.429607         466.839         301.651 
       0.435692         459.301         293.096 
       0.441815         452.254         285.019 
       0.447964         442.608         277.378 
       0.454126         437.078         270.108 
       0.460267         430.611          263.16 
       0.466387         423.918         256.443 
        0.47254          418.02         249.829 
       0.478662          408.15         243.387 
       0.484765         404.165         237.125 
       0.490885         399.938         231.029 
       0.497035         393.191         225.118 
       0.503198         391.584         219.448 
       0.509342         381.575         214.055 
       0.515458         376.664         208.918 
       0.521598          369.97         203.964 
       0.527764         365.027         199.166 
       0.533884         364.232         194.555 
           0.54         358.055         190.074 
       0.546137         350.459         185.686 
       0.552299         349.718         181.393 
       0.558452         344.182         177.233 
       0.564573         340.859         173.228 
       0.570708         336.016          169.35 
       0.576825         330.397         165.617 
       0.582926         327.435          162.02 
       0.589034         323.343         158.539 
       0.595184         321.397         155.148 
       0.601379         315.585         151.836 
       0.607522         310.432         148.643 
       0.613639         308.569         145.546 
       0.619772         306.821         142.521 
       0.625918         302.971         139.572 
       0.632068         297.906         136.705 
       0.638161           295.3          133.95 
         0.6443         293.562         131.257 
       0.650464         288.854         128.633 
       0.656582         286.508         126.103 
       0.662703         284.558         123.642 
       0.668861         279.807         121.234 
       0.675024         278.812         118.887 
       0.681124         275.495         116.626 
       0.687237         272.734          114.42 
       0.693381         270.321         112.261 
       0.699536         267.235         110.154 
       0.705665         264.549          108.11 
       0.711789         262.486         106.121 
       0.717957         259.464         104.169 
        0.72409         257.297         102.278 
       0.730186         257.951         100.446 
       0.736317         253.446           98.65 
       0.742472         250.288         96.8922 
       0.748622         247.112         95.1797 
        0.75476         247.797         93.5129 
       0.760888          244.81         91.8891 
       0.767043         241.839         90.2979 
       0.773185          240.22          88.748 
       0.779291         236.824         87.2436 
       0.785407          235.89         85.7723 
       0.791564         233.614         84.3259 
       0.797719         230.418          82.914 
       0.803834         231.435         81.5438 
       0.809972         229.364            80.2 
       0.816124         226.291         78.8839 
       0.822261         224.025         77.6014 
       0.828378         224.221         76.3515 
       0.834502          220.44         75.1285 
       0.840667         220.131         73.9248 
       0.846816         217.408         72.7511 
       0.852925         215.999         71.6107 
       0.859047         213.838         70.4927 
       0.865192         213.458         69.3951 
       0.871341         210.604         68.3205 
       0.877463         208.967         67.2738 
       0.883569         208.764          66.252 
       0.889708         207.047         65.2464 
       0.895864         205.156         64.2594 
       0.902008         203.324         63.2951 
       0.908149         201.307         62.3515 
       0.914301         201.024         61.4257 
       0.920448           199.8         60.5198 
       0.926574         197.449         59.6356 
       0.932687         196.719         58.7711 
       0.938823         195.259         57.9208 
       0.944975         193.503         57.0856 
       0.951105         192.041         56.2701 
       0.957225         191.388          55.472 
       0.963368          189.73         54.6869 
       0.969511         187.592         53.9171 
       0.975621         186.533         53.1664 
       0.981748         185.142         52.4282 
       0.987916         184.358         51.6995 
        0.99406         183.089         50.9876 
        1.00019         181.853         50.2906 
        1.00632         181.093         49.6074 
        1.01246         179.658          48.936 
        1.01859         178.177         48.2782 
        1.02471         176.876         47.6335 
        1.03085         175.839         46.9984 
        1.03698         174.517         46.3764 
        1.04314         173.983         45.7631 
        1.04929         173.132         45.1624 
        1.05541         171.844         44.5751 
        1.06154         170.764         43.9968 
        1.06769         169.175          43.428 
        1.07382         168.482         42.8713 
        1.07993         167.383         42.3256 
        1.08607         165.979         41.7873 
        1.09222         165.352          41.258 
        1.09836         164.016         40.7385 
        1.10449         162.734         40.2286 
        1.11063         161.879         39.7271 
        1.11677         161.147         39.2343 
         1.1229         159.817         38.7508 
        1.12903           159.3         38.2751 
        1.13518         158.212         37.8071 
        1.14131         157.262         37.3473 
        1.14745          156.07         36.8954 
        1.15359          154.56          36.451 
        1.15973         154.179         36.0138 
        1.16584         153.356         35.5858 
        1.17197          152.52         35.1643 
        1.17811         151.178         34.7483 
        1.18424         150.419         34.3403 
        1.19038         149.779         33.9377 
        1.19652         148.547         33.5418 
        1.20267         147.735         33.1523 
        1.20881         146.794         32.7691 
        1.21495         146.437         32.3926 
        1.22108         145.207         32.0221 
         1.2272         144.184         31.6584 
        1.23334         143.792         31.2994 
        1.23949         143.187         30.9453 
        1.24562         141.921         30.5977 
        1.25174         140.766         30.2559 
        1.25789         140.469         29.9184 
        1.26402          139.74         29.5867 
        1.27014         138.891         29.2609 
        1.27628         137.316          28.939 
        1.28244         137.188         28.6214 
        1.28858         136.102          28.309 
        1.29471         135.297         28.0021 
        1.30084         134.583         27.6999 
        1.30697         134.189         27.4019 
        1.31312         133.196         27.1078 
        1.31925         132.162          26.819 
        1.32537         131.727         26.5347 
        1.33151         131.217         26.2536 
        1.33765         129.846         25.9767 
        1.34378         129.897         25.7044 
        1.34992         129.243         25.4359 
        1.35606         128.193         25.1706 
         1.3622         127.899         24.9096 
        1.36833         126.455          24.653 
        1.37445         126.111         24.4002 
        1.38059         125.516         24.1501 
        1.38675         124.594          23.903 
        1.39288         124.012         23.6604 
        1.39901         122.931         23.4212 
        1.40515         122.748         23.1849 
         1.4113         122.066         22.9519 
        1.41742         121.145         22.7231 
        1.42355         120.716         22.4969 
         1.4297         119.891         22.2732 
        1.43585         119.071         22.0527 
        1.44198         118.408          21.836 
        1.44809         117.631         21.6226 
        1.45423         117.246         21.4113 
        1.46036          116.36         21.2033 
        1.46649         115.723         20.9979 
        1.47263          115.43         20.7951 
        1.47877         114.571         20.5951 
        1.48491         113.876         20.3975 
        1.49104         112.833         20.2028 
        1.49718         112.868         20.0106 
        1.50333         112.153         19.8206 
        1.50947         111.706         19.6335 
         1.5156         111.055          19.449 
        1.52172         110.302          19.267 
        1.52787          109.64         19.0869 
          1.534         109.305         18.9094 
        1.54013         108.735         18.7343 
        1.54627         107.823         18.5611 
        1.55241          107.33         18.3901 
        1.55855         106.832         18.2216 
        1.56467          105.88         18.0556 
         1.5708         105.631         17.8912 
        1.57695          105.18         17.7287 
        1.58308         104.576         17.5685 
        1.58922         104.262         17.4102 
        1.59535         103.719          17.254 
         1.6015         103.082         17.0995 
        1.60764         102.415         16.9469 
        1.61376         101.782         16.7967 
        1.61989         101.193         16.6481 
        1.62604         100.747          16.501 
        1.63218         100.422         16.3558 
        1.63831         99.6486         16.2128 
        1.64444          99.216         16.0713 
        1.65059         98.6229         15.9313 
        1.65673         98.0056          15.793 
        1.66285         97.4588         15.6568 
        1.66898         96.8847         15.5222 
        1.67512         96.6158         15.3889 
        1.68127         96.0734         15.2571 
         1.6874         95.5027         15.1271 
        1.69353          94.922         14.9987 
        1.69967          94.696         14.8715 
        1.70581         94.1607         14.7459 
        1.71193         93.6125         14.6222 
        1.71806         92.8774         14.4996 
        1.72421         92.5682         14.3782 
        1.73035         92.3547         14.2584 
        1.73649           91.65         14.1399 
        1.74262         90.9575         14.0229 
        1.74876         90.6361         13.9072 
        1.75489         89.9984          13.793 
        1.76101          89.537         13.6801 
        1.76715         89.2424         13.5683 
        1.77329         88.6514         13.4577 
        1.77943         88.3143         13.3482 
        1.78557         87.9678         13.2402 
        1.79171         87.4002         13.1333 
        1.79785           86.86         13.0276 
        1.80399         86.4799         12.9231 
        1.81012         85.9356         12.8198 
        1.81625         85.7193         12.7178 
        1.82239         85.3799         12.6167 
        1.82853         84.6449         12.5168 
        1.83466         84.2409          12.418 
        1.84078         83.8729         12.3205 
        1.84692         83.5908         12.2238 
        1.85306         83.0981         12.1281 
         1.8592         82.6987         12.0335 
        1.86533         82.2041           11.94 
        1.87147         81.7099         11.8474 
        1.87761         81.2356         11.7557 
        1.88375         80.7474         11.6652 
        1.88988          80.389         11.5756 
        1.89601         79.9747          11.487 
        1.90215         79.5251         11.3993 
        1.90829           79.23         11.3125 
        1.91442         78.8578         11.2266 
        1.92056         78.4097         11.1417 
         1.9267         78.0405         11.0575 
        1.93284         77.7675         10.9742 
        1.93897         77.3754          10.892 
        1.94509         76.8607         10.8107 
        1.95123         76.5583         10.7301 
        1.95737         75.9565         10.6502 
        1.96349         75.6955         10.5714 
        1.96964          75.314         10.4931 
        1.97578         74.8245         10.4156 
        1.98192         74.5095         10.3391 
        1.98805           74.05         10.2633 
        1.99419         73.6539         10.1883 
        2.00033         73.2458         10.1139 
        2.00647         73.0412         10.0404 
         2.0126         72.5921         9.96771 
        2.01874         72.3304         9.89563 
        2.02488         71.9833         9.82421 
        2.03101           71.58         9.75363 
        2.03714         71.3778         9.68381 
        2.04328         70.8818         9.61459 
        2.04941         70.3323         9.54612 
        2.05554         70.2414         9.47836 
        2.06167         69.9801         9.41117 
        2.06781         69.3274         9.34463 
        2.07396         69.0597         9.27864 
        2.08009         68.8194         9.21341 
        2.08622         68.3768         9.14888 
        2.09237         67.9928         9.08484 
        2.09851          67.618         9.02141 
        2.10464         67.3758          8.9587 
        2.11077         67.0569         8.89665 
        2.11691         66.7031         8.83507 
        2.12305         66.2822         8.77406 
        2.12918          65.958         8.71378 
        2.13531         65.7179         8.65406 
        2.14145         65.2335         8.59477 
         2.1476         65.0224         8.53597 
        2.15372         64.7509         8.47801 
        2.15985         64.3283         8.42054 
        2.16599         63.9845         8.36343 
        2.17213         63.7389         8.30693 
        2.17827         63.3729         8.25095 
         2.1844         63.1047         8.19555 
        2.19054         62.7636         8.14064 
        2.19666         62.3544         8.08632 
         2.2028         62.1931         8.03244 
        2.20893         61.7618         7.97903 
        2.21508          61.433         7.92605 
        2.22122         61.1242         7.87353 
        2.22736         60.8101          7.8216 
        2.23349         60.6539         7.77016 
        2.23962         60.3031         7.71915 
        2.24577         60.0049         7.66856 
         2.2519         59.6886         7.61849 
        2.25802         59.4129         7.56896 
        2.26417         59.0874         7.51973 
        2.27031         58.7743         7.47089 
        2.27644         58.5425         7.42263 
        2.28257         58.2278          7.3748 
        2.28872         58.0696         7.32731 
        2.29486         57.7631         7.28024 
        2.30099         57.3144         7.23369 
        2.30712         57.1556         7.18752 
        2.31326         56.8391         7.14168 
         2.3194         56.5165         7.09627 
        2.32553         56.3964         7.05133 
        2.33166         55.8894          7.0068 
         2.3378         55.6466          6.9626 
        2.34394         55.3842         6.91876 
        2.35007         55.1034         6.87537 
        2.35619         54.9467          6.8324 
        2.36233          54.521          6.7897 
        2.36848         54.3057         6.74728 
        2.37462         54.0382         6.70532 
        2.38075         53.8411         6.66375 
        2.38689         53.5808          6.6225 
        2.39303         53.3812         6.58161 
        2.39916         53.1282         6.54111 
        2.40529         52.7812         6.50095 
        2.41143         52.5237         6.46111 
        2.41757         52.2552         6.42158 
         2.4237         52.1269         6.38246 
        2.42983         51.7113         6.34367 
        2.43598         51.4405          6.3051 
        2.44211         51.2947         6.26691 
        2.44823         51.0194         6.22913 
        2.45437         50.7645         6.19156 
        2.46052         50.4458         6.15426 
        2.46665         50.2311         6.11734 
        2.47279         50.0252         6.08074 
        2.47892         49.7478         6.04442 
        2.48507         49.5663         6.00835 
         2.4912         49.2582         5.97266 
