# k  (h/Mpc)    Pcb(k)  (Mpc/h)^3    Pcb_linear(k)  (Mpc/h)^3
     0.00783031         13491.6           13554 
       0.013688         16449.9         16869.3 
       0.019231           17096         17357.3 
      0.0249154           16413         16409.4 
      0.0312784         14429.3         14611.2 
      0.0375637         12498.4         12759.6 
      0.0433917           11185         11294.1 
      0.0492413         9967.62         10153.3 
      0.0555754         9135.91         9242.28 
      0.0619321         8185.91         8543.19 
       0.067871         7745.29         7966.43 
      0.0738098         7239.12          7383.8 
      0.0800417         6618.12         6734.83 
      0.0862327         5944.13         6070.53 
      0.0921407          5388.6         5462.12 
      0.0982031         4920.85         4908.88 
       0.104506         4401.49         4439.76 
       0.110769         4081.16         4084.37 
       0.116806         3897.71            3828 
       0.122832         3657.35         3626.38 
       0.129052         3465.22         3441.75 
       0.135211          3351.6         3256.05 
       0.141259         3108.81         3058.58 
       0.147318         2877.64         2847.41 
       0.153489         2708.52          2630.4 
       0.159709         2590.69         2425.37 
       0.165845         2364.44         2248.98 
       0.171974         2299.98         2104.13 
       0.178125         2218.86         1988.64 
       0.184229         2049.44         1896.62 
        0.19034         2017.59          1817.5 
       0.196428         1958.71         1742.54 
       0.202534         1840.49         1664.95 
       0.208729         1803.76          1581.4 
       0.214876         1723.86         1495.24 
       0.220989         1633.48         1410.26 
       0.227147         1589.32         1329.88 
        0.23329         1526.67         1258.28 
       0.239377         1514.23         1197.17 
       0.245482          1441.5         1145.08 
       0.251667         1388.86         1099.51 
       0.257832         1368.25          1058.4 
       0.263955         1305.66         1019.24 
       0.270079         1270.34          979.94 
        0.27624         1218.17         939.671 
       0.282372         1202.01         899.335 
        0.28843         1183.67         860.264 
       0.294538         1128.18         822.901 
       0.300721         1104.97         788.076 
        0.30691         1080.35         756.652 
       0.313033         1038.29         728.744 
       0.319153          1026.3         703.415 
       0.325316         1013.34         679.661 
        0.33145         991.726         657.019 
       0.337538         958.633         634.983 
       0.343633         935.962         613.181 
       0.349808         917.561         591.405 
       0.355968         900.351         570.287 
       0.362074          872.14         550.254 
       0.368217         869.552         531.268 
       0.374374         856.534         513.524 
       0.380519         825.693         497.043 
       0.386598         820.549         481.796 
       0.392688         801.396         467.334 
        0.39888         783.046         453.239 
       0.405048         768.897         439.645 
       0.411186         766.975         426.456 
       0.417313         762.817         413.639 
       0.423458         739.182         401.181 
       0.429607         719.138         389.177 
       0.435692         712.705         377.832 
       0.441815         699.474          366.97 
       0.447964          690.29         356.604 
       0.454126         681.791         346.723 
       0.460267         672.207         337.313 
       0.466387         661.498         328.292 
        0.47254         650.656         319.527 
       0.478662          641.28          311.08 
       0.484765         634.746         302.911 
       0.490885         627.956         294.973 
       0.497035         616.121         287.267 
       0.503198         615.797         279.834 
       0.509342          603.76         272.709 
       0.515458         592.275          265.89 
       0.521598         588.901         259.311 
       0.527764           576.6         252.951 
       0.533884         572.059         246.858 
           0.54         566.787         240.966 
       0.546137         557.939         235.235 
       0.552299         555.662         229.659 
       0.558452         548.355         224.264 
       0.564573         543.594         219.063 
       0.570708         538.339         214.015 
       0.576825         527.704         209.146 
       0.582926         526.137         204.451 
       0.589034          518.39         199.905 
       0.595184         513.954         195.473 
       0.601379         506.232         191.149 
       0.607522         498.093         186.991 
       0.613639         497.311         182.972 
       0.619772         494.835         179.061 
       0.625918         485.853         175.255 
       0.632068         483.181         171.557 
       0.638161         478.266         167.998 
         0.6443         472.878         164.515 
       0.650464         468.625         161.119 
       0.656582         464.965         157.847 
       0.662703          460.56         154.667 
       0.668861         454.568         151.559 
       0.675024         452.118         148.535 
       0.681124         444.926         145.625 
       0.687237         443.977         142.787 
       0.693381         437.532          140.01 
       0.699536         436.449         137.303 
       0.705665         431.255         134.679 
       0.711789          429.97         132.126 
       0.717957         423.938         129.623 
        0.72409         419.872           127.2 
       0.730186         421.179         124.855 
       0.736317         414.156         122.556 
       0.742472         410.251         120.308 
       0.748622         407.775         118.118 
        0.75476          404.56         115.988 
       0.760888         401.614         113.914 
       0.767043         398.762         111.883 
       0.773185         396.176         109.906 
       0.779291         391.286         107.988 
       0.785407          389.13         106.114 
       0.791564         386.437         104.272 
       0.797719         380.706         102.476 
       0.803834         382.916         100.734 
       0.809972         376.867         99.0265 
       0.816124         373.542         97.3553 
       0.822261         370.969         95.7274 
       0.828378         369.433         94.1419 
       0.834502         363.871         92.5912 
       0.840667         364.139         91.0657 
       0.846816         358.425         89.5789 
       0.852925         359.106          88.135 
       0.859047         355.745           86.72 
       0.865192           354.1         85.3316 
       0.871341         349.395         83.9729 
       0.877463          347.68           82.65 
       0.883569         345.145         81.3592 
       0.889708         342.045         80.0895 
       0.895864         338.956         78.8438 
       0.902008         337.658         77.6273 
       0.908149         334.742         76.4374 
       0.914301         333.288         75.2706 
       0.920448         330.718         74.1294 
       0.926574          328.64          73.016 
       0.932687          327.33          71.928 
       0.938823         323.644         70.8583 
       0.944975          322.89         69.8081 
       0.951105         320.001          68.783 
       0.957225         316.296         67.7804 
       0.963368         316.989         66.7945 
       0.969511         311.275         65.8283 
       0.975621         310.584         64.8865 
       0.981748         309.283         63.9608 
       0.987916         307.534         63.0475 
        0.99406         304.736         62.1556 
        1.00019         302.056         61.2828 
        1.00632         301.832         60.4276 
        1.01246         299.312         59.5876 
        1.01859         296.023          58.765 
        1.02471         294.281         57.9591 
        1.03085         293.429         57.1655 
        1.03698         291.888         56.3886 
        1.04314         290.806         55.6229 
        1.04929         288.832         54.8733 
        1.05541         285.814         54.1407 
        1.06154         284.304         53.4196 
        1.06769         281.847         52.7106 
        1.07382         280.808         52.0169 
        1.07993         278.684         51.3373 
        1.08607         277.128         50.6671 
        1.09222         275.091         50.0083 
        1.09836         274.348         49.3619 
        1.10449         272.299         48.7278 
        1.11063         270.286         48.1042 
        1.11677         267.941         47.4917 
         1.1229          267.52          46.891 
        1.12903         265.306         46.3002 
        1.13518         263.504         45.7191 
        1.14131         262.767         45.1484 
        1.14745         259.787         44.5878 
        1.15359          258.04         44.0365 
        1.15973         257.211         43.4945 
        1.16584         255.807          42.964 
        1.17197         254.227         42.4416 
        1.17811         252.042         41.9263 
        1.18424         250.784         41.4211 
        1.19038         249.673         40.9228 
        1.19652         246.932         40.4329 
        1.20267         246.439         39.9511 
        1.20881         244.652         39.4773 
        1.21495         244.108         39.0119 
        1.22108         242.263         38.5541 
         1.2272         239.556         38.1048 
        1.23334         238.946         37.6616 
        1.23949         237.869         37.2245 
        1.24562         236.283         36.7955 
        1.25174         234.922          36.374 
        1.25789          232.88         35.9578 
        1.26402         232.732          35.549 
        1.27014         231.668         35.1474 
        1.27628         229.337          34.751 
        1.28244         228.107         34.3599 
        1.28858         226.895         33.9753 
        1.29471         225.675         33.5975 
        1.30084         224.653         33.2259 
        1.30697         222.448         32.8593 
        1.31312         221.336         32.4977 
        1.31925         220.101         32.1427 
        1.32537         219.445         31.7934 
        1.33151         217.931         31.4481 
        1.33765         216.333          31.108 
        1.34378         215.379         30.7737 
        1.34992         213.728         30.4441 
        1.35606         212.896         30.1186 
         1.3622         211.478         29.7985 
        1.36833         210.112         29.4837 
        1.37445         209.911         29.1737 
        1.38059         207.624         28.8673 
        1.38675         206.329         28.5645 
        1.39288           205.4         28.2672 
        1.39901         203.944         27.9743 
        1.40515         203.343          27.685 
         1.4113         201.779         27.3998 
        1.41742         200.182         27.1198 
        1.42355         200.385         26.8431 
         1.4297         198.656         26.5695 
        1.43585         197.736         26.2998 
        1.44198         195.892         26.0349 
        1.44809         195.345         25.7742 
        1.45423          194.24          25.516 
        1.46036          193.04         25.2619 
        1.46649         191.935         25.0111 
        1.47263         191.333         24.7636 
        1.47877         189.821         24.5196 
        1.48491         188.393         24.2784 
        1.49104         186.858          24.041 
        1.49718         186.517         23.8066 
        1.50333         184.924          23.575 
        1.50947         184.263         23.3469 
         1.5156         183.196         23.1222 
        1.52172         182.309         22.9005 
        1.52787         181.235         22.6812 
          1.534         180.425         22.4651 
        1.54013         179.181          22.252 
        1.54627         178.317         22.0413 
        1.55241         177.511         21.8333 
        1.55855         176.651         21.6283 
        1.56467          175.45         21.4265 
         1.5708         174.016         21.2267 
        1.57695         173.495         21.0291 
        1.58308          172.21         20.8345 
        1.58922         171.461         20.6423 
        1.59535         170.152         20.4525 
         1.6015          169.57         20.2649 
        1.60764         168.416         20.0797 
        1.61376         167.257         19.8974 
        1.61989         166.577         19.7172 
        1.62604         165.411         19.5388 
        1.63218         164.734         19.3627 
        1.63831         163.911         19.1892 
        1.64444         162.632         19.0177 
        1.65059         161.963          18.848 
        1.65673         160.959         18.6805 
        1.66285          160.38         18.5155 
        1.66898         159.237         18.3525 
        1.67512         158.355         18.1911 
        1.68127         157.676         18.0315 
         1.6874         156.608         17.8741 
        1.69353          156.15         17.7188 
        1.69967         154.853         17.5649 
        1.70581         154.469         17.4129 
        1.71193         153.267         17.2633 
        1.71806         152.035         17.1151 
        1.72421         151.618         16.9684 
        1.73035         150.687         16.8236 
        1.73649         149.646         16.6805 
        1.74262         149.206         16.5391 
        1.74876         148.378         16.3994 
        1.75489         147.728         16.2615 
        1.76101         146.437         16.1252 
        1.76715         145.629         15.9904 
        1.77329         144.834         15.8569 
        1.77943         143.889         15.7249 
        1.78557         143.463         15.5945 
        1.79171         142.656         15.4657 
        1.79785         141.566         15.3382 
        1.80399         140.961         15.2123 
        1.81012         140.098         15.0879 
        1.81625         139.445         14.9649 
        1.82239         138.692         14.8432 
        1.82853         137.892         14.7229 
        1.83466         136.837          14.604 
        1.84078         136.529         14.4865 
        1.84692         135.978         14.3702 
        1.85306          134.91          14.255 
         1.8592         134.432         14.1412 
        1.86533         133.277         14.0288 
        1.87147         132.838         13.9174 
        1.87761           131.9         13.8072 
        1.88375         131.005         13.6983 
        1.88988         130.549         13.5908 
        1.89601         130.193         13.4843 
        1.90215         129.609         13.3788 
        1.90829         128.249         13.2746 
        1.91442         127.486         13.1714 
        1.92056         126.934         13.0695 
         1.9267         126.283         12.9685 
        1.93284         125.532         12.8685 
        1.93897         124.932         12.7698 
        1.94509         124.195         12.6723 
        1.95123         123.641         12.5756 
        1.95737         123.054         12.4798 
        1.96349         122.288         12.3852 
        1.96964         121.567         12.2914 
        1.97578         120.936         12.1985 
        1.98192         120.553         12.1068 
        1.98805         119.825          12.016 
        1.99419         118.766         11.9261 
        2.00033         118.469         11.8371 
        2.00647         117.957          11.749 
         2.0126          117.15          11.662 
        2.01874         116.718         11.5757 
        2.02488         115.775         11.4902 
        2.03101         115.417         11.4057 
        2.03714         114.632         11.3222 
        2.04328         114.327         11.2394 
        2.04941         113.729         11.1575 
        2.05554         113.075         11.0765 
        2.06167         112.214         10.9961 
        2.06781         111.649         10.9166 
        2.07396          111.12         10.8377 
        2.08009         110.305         10.7598 
        2.08622          109.95         10.6827 
        2.09237         109.146         10.6062 
        2.09851         108.763         10.5304 
        2.10464         108.305         10.4555 
        2.11077         107.598         10.3815 
        2.11691          107.18         10.3079 
        2.12305         106.584         10.2351 
        2.12918         105.927         10.1632 
        2.13531         105.358          10.092 
        2.14145         104.842         10.0212 
         2.1476         104.293          9.9511 
        2.15372         103.655           9.882 
        2.15985         103.155         9.81348 
        2.16599         102.465         9.74541 
        2.17213         101.991         9.67806 
        2.17827         101.348         9.61137 
         2.1844         101.139         9.54536 
        2.19054         100.411         9.47995 
        2.19666          99.784         9.41525 
         2.2028         99.4772         9.35109 
        2.20893         99.0183         9.28749 
        2.21508         98.3694         9.22442 
        2.22122         97.8836         9.16191 
        2.22736         97.5424         9.10011 
        2.23349         96.8283          9.0389 
        2.23962          96.297         8.97821 
        2.24577         95.9221         8.91803 
         2.2519         95.3095         8.85849 
        2.25802         94.8899         8.79958 
        2.26417         94.2818         8.74105 
        2.27031         93.6805         8.68299 
        2.27644         93.3932         8.62563 
        2.28257         92.8711         8.56879 
        2.28872         92.4527         8.51236 
        2.29486         92.2526         8.45645 
        2.30099         91.3667         8.40115 
        2.30712         91.1122         8.34632 
        2.31326         90.6221         8.29189 
         2.3194          90.053         8.23798 
        2.32553         89.6101         8.18463 
        2.33166         89.0749         8.13179 
         2.3378         88.7952         8.07933 
        2.34394         88.2847         8.02732 
        2.35007         87.6065         7.97584 
        2.35619          87.371         7.92488 
        2.36233         86.9087         7.87424 
        2.36848         86.3829         7.82394 
        2.37462         86.1154         7.77418 
        2.38075         85.5131          7.7249 
        2.38689         85.1761         7.67601 
        2.39303         84.7742         7.62755 
        2.39916         84.3189         7.57956 
        2.40529          83.981         7.53198 
        2.41143         83.5316         7.48478 
        2.41757         82.9809         7.43797 
         2.4237         82.4962         7.39163 
        2.42983         82.0993          7.3457 
        2.43598         81.8458         7.30004 
        2.44211         81.4768         7.25484 
        2.44823         81.0027         7.21012 
        2.45437         80.6095         7.16566 
        2.46052         80.1426         7.12153 
        2.46665         79.5328         7.07786 
        2.47279         79.3631         7.03457 
        2.47892         78.9797          6.9916 
        2.48507         78.5785         6.94896 
         2.4912         78.0248         6.90676 
