# k  (h/Mpc)    Pcb(k)  (Mpc/h)^3    Pcb_linear(k)  (Mpc/h)^3
     0.00783031         9636.95         9766.34 
       0.013688         11946.1         11870.3 
       0.019231         11843.7         11819.4 
      0.0249154         10587.2         10752.8 
      0.0312784         9121.23         9181.23 
      0.0375637         7781.58         7764.21 
      0.0433917         6686.11         6761.71 
      0.0492413         6037.38         6058.45 
      0.0555754         5421.49         5539.67 
      0.0619321         5157.67         5136.58 
       0.067871         4677.81         4764.86 
      0.0738098         4272.56          4350.8 
      0.0800417         3780.93         3877.33 
      0.0862327         3369.25         3411.61 
      0.0921407         3027.79         3018.33 
      0.0982031         2692.87          2696.9 
       0.104506         2516.54         2456.35 
       0.110769         2341.44         2293.79 
       0.116806         2207.92         2179.68 
       0.122832         2111.78         2077.43 
       0.129052         1960.18         1961.18 
       0.135211            1837         1826.61 
       0.141259         1727.07         1681.03 
       0.147318         1601.84         1535.35 
       0.153489         1458.69         1401.67 
       0.159709         1369.67         1291.64 
       0.165845         1309.85         1209.39 
       0.171974         1237.42         1148.71 
       0.178125          1183.9         1100.92 
       0.184229         1138.34         1057.47 
        0.19034         1065.68          1011.2 
       0.196428         1039.22         959.481 
       0.202534         997.185         903.117 
       0.208729         940.106         845.163 
       0.214876         887.589         791.341 
       0.220989         855.155         744.701 
       0.227147         812.015         705.874 
        0.23329         780.004         674.449 
       0.239377         763.398          648.34 
       0.245482         713.866         624.564 
       0.251667         706.715         600.661 
       0.257832         679.942         575.777 
       0.263955          655.42         549.979 
       0.270079          629.77         523.891 
        0.27624         619.963          498.61 
       0.282372         594.086         475.462 
        0.28843         578.674         455.133 
       0.294538         550.565         437.193 
       0.300721         547.009         421.138 
        0.30691         522.083         406.452 
       0.313033         511.233         392.546 
       0.319153         494.965         378.797 
       0.325316         480.706         364.897 
        0.33145         466.031         351.146 
       0.337538         459.122          337.84 
       0.343633         444.154         325.181 
       0.349808           429.2         313.254 
       0.355968         424.696         302.321 
       0.362074         416.098         292.366 
       0.368217         404.599         283.039 
       0.374374         388.407         274.181 
       0.380519         384.903         265.637 
       0.386598         375.133         257.373 
       0.392688         371.825         249.271 
        0.39888         361.439         241.244 
       0.405048         353.333         233.547 
       0.411186         346.509         226.253 
       0.417313         340.035         219.362 
       0.423458         333.376         212.849 
       0.429607         326.675         206.687 
       0.435692          318.14         200.876 
       0.441815          315.57         195.259 
       0.447964         309.267          189.81 
       0.454126         298.907         184.507 
       0.460267         294.947          179.38 
       0.466387         291.572         174.442 
        0.47254         285.082          169.66 
       0.478662         284.111         165.092 
       0.484765         274.958         160.733 
       0.490885          271.65         156.552 
       0.497035         267.346          152.52 
       0.503198          261.65         148.631 
       0.509342          259.24         144.889 
       0.515458         255.887         141.286 
       0.521598         250.945         137.783 
       0.527764         247.104         134.373 
       0.533884         244.305         131.098 
           0.54         240.702         127.937 
       0.546137         239.365         124.877 
       0.552299         234.446         121.914 
       0.558452         232.177         119.057 
       0.564573         228.535         116.311 
       0.570708         224.126         113.648 
       0.576825          221.12         111.078 
       0.582926         218.306         108.594 
       0.589034         215.909          106.18 
       0.595184         213.608         103.822 
       0.601379         211.243         101.519 
       0.607522         207.213         99.3054 
       0.613639          206.06         97.1696 
       0.619772         201.548         95.0943 
       0.625918         200.051         93.0778 
       0.632068         197.418         91.1201 
       0.638161         196.279         89.2369 
         0.6443         193.206         87.3936 
       0.650464         191.298         85.5959 
       0.656582         189.446         83.8621 
       0.662703         187.658         82.1762 
       0.668861         184.528         80.5278 
       0.675024         182.343         78.9239 
       0.681124         181.536         77.3806 
       0.687237         178.681         75.8761 
       0.693381         176.108         74.4052 
       0.699536         174.936         72.9713 
       0.705665         174.238          71.582 
       0.711789         171.133         70.2306 
       0.717957         170.566         68.9054 
        0.72409         168.272         67.6223 
       0.730186         165.941         66.3801 
       0.736317          164.62         65.1627 
       0.742472         163.663         63.9718 
       0.748622         162.177         62.8121 
        0.75476         160.793          61.684 
       0.760888         158.618         60.5857 
       0.767043         158.061         59.5102 
       0.773185         156.366         58.4633 
       0.779291         153.721         57.4478 
       0.785407         153.123         56.4553 
       0.791564         151.775         55.4803 
       0.797719         149.543         54.5291 
       0.803834         148.863         53.6065 
       0.809972         147.404         52.7023 
       0.816124         147.104         51.8171 
       0.822261         145.291          50.955 
       0.828378         143.948         50.1152 
       0.834502          143.68          49.294 
       0.840667         141.463          48.486 
       0.846816         140.157         47.6986 
       0.852925         139.476         46.9339 
       0.859047         137.837         46.1845 
       0.865192         136.893         45.4492 
       0.871341         135.632         44.7296 
       0.877463           134.5          44.029 
       0.883569         133.767         43.3454 
       0.889708          132.67         42.6729 
       0.895864         131.297         42.0131 
       0.902008         130.501         41.3688 
       0.908149          129.88         40.7385 
       0.914301          128.47         40.1205 
       0.920448         127.524         39.5161 
       0.926574         126.775         38.9263 
       0.932687         126.455         38.3499 
       0.938823         124.593         37.7833 
       0.944975         123.422          37.227 
       0.951105          122.92          36.684 
       0.957225         121.548         36.1529 
       0.963368         120.545         35.6306 
       0.969511         120.312         35.1187 
       0.975621          119.68         34.6197 
       0.981748         118.888         34.1293 
       0.987916         117.583         33.6454 
        0.99406         116.832         33.1728 
        1.00019         116.311         32.7103 
        1.00632         115.341         32.2571 
        1.01246         114.625          31.812 
        1.01859         113.405          31.376 
        1.02471         113.013         30.9489 
        1.03085           111.9         30.5283 
        1.03698         111.389         30.1164 
        1.04314          110.34         29.7106 
        1.04929         109.706         29.3132 
        1.05541         108.987         28.9247 
        1.06154         108.406         28.5424 
        1.06769         108.135         28.1665 
        1.07382          107.36         27.7986 
        1.07993          106.49         27.4382 
        1.08607         105.718         27.0828 
        1.09222         105.345         26.7333 
        1.09836         104.435         26.3905 
        1.10449         103.759         26.0541 
        1.11063         103.063         25.7233 
        1.11677         102.679         25.3984 
         1.1229         101.565         25.0798 
        1.12903         100.849         24.7663 
        1.13518         101.008          24.458 
        1.14131         100.079         24.1552 
        1.14745         99.3058         23.8577 
        1.15359         98.7486         23.5653 
        1.15973         98.3915         23.2776 
        1.16584         97.5082         22.9961 
        1.17197         97.0372         22.7188 
        1.17811         96.4283         22.4454 
        1.18424         95.8666         22.1773 
        1.19038          95.359         21.9128 
        1.19652          94.816         21.6527 
        1.20267         94.0675          21.397 
        1.20881         93.5197         21.1454 
        1.21495         92.9455         20.8984 
        1.22108         92.5261         20.6553 
         1.2272         91.6812         20.4168 
        1.23334         91.3823         20.1814 
        1.23949         90.6503         19.9493 
        1.24562         90.3172         19.7215 
        1.25174         89.6851         19.4976 
        1.25789         89.3199         19.2766 
        1.26402         88.8438         19.0594 
        1.27014         88.1522         18.8461 
        1.27628         87.8503         18.6354 
        1.28244         87.1702         18.4276 
        1.28858         86.9577         18.2233 
        1.29471         86.2991         18.0225 
        1.30084         85.8226          17.825 
        1.30697          85.325         17.6302 
        1.31312         84.9195          17.438 
        1.31925         84.3781         17.2493 
        1.32537         84.0775         17.0636 
        1.33151         83.2625           16.88 
        1.33765         82.8836         16.6992 
        1.34378         82.4071         16.5214 
        1.34992          82.201         16.3462 
        1.35606         81.7057         16.1731 
         1.3622         80.9415         16.0028 
        1.36833         80.8348         15.8354 
        1.37445         80.2845         15.6705 
        1.38059          79.764         15.5075 
        1.38675         79.2805         15.3464 
        1.39288         78.8716         15.1883 
        1.39901         78.6962         15.0325 
        1.40515         78.1685         14.8785 
         1.4113         77.6719         14.7268 
        1.41742         77.5875         14.5777 
        1.42355         76.8709         14.4305 
         1.4297         76.5903         14.2849 
        1.43585         75.9731         14.1414 
        1.44198         75.6853         14.0004 
        1.44809         75.3216         13.8616 
        1.45423         74.8949         13.7242 
        1.46036         74.7095         13.5889 
        1.46649         74.2062         13.4554 
        1.47263         73.7272         13.3236 
        1.47877         73.5651         13.1936 
        1.48491         73.0857         13.0652 
        1.49104         72.6953         12.9388 
        1.49718         72.2325         12.8139 
        1.50333         71.8903         12.6906 
        1.50947         71.5343         12.5691 
         1.5156         71.1926         12.4494 
        1.52172         70.8262         12.3312 
        1.52787         70.6728         12.2144 
          1.534         70.1503         12.0992 
        1.54013         69.6858         11.9857 
        1.54627          69.485         11.8734 
        1.55241         69.0009         11.7625 
        1.55855         68.7171         11.6532 
        1.56467         68.2566         11.5456 
         1.5708         68.1088         11.4391 
        1.57695         67.8648         11.3338 
        1.58308         67.2392           11.23 
        1.58922         67.1528         11.1275 
        1.59535         66.9351         11.0263 
         1.6015         66.2876         10.9263 
        1.60764           66.12         10.8275 
        1.61376         65.7369         10.7302 
        1.61989         65.3713         10.6341 
        1.62604         65.2069         10.5389 
        1.63218         64.9245          10.445 
        1.63831         64.4469         10.3524 
        1.64444         64.1669         10.2609 
        1.65059         63.7672         10.1703 
        1.65673         63.5761         10.0809 
        1.66285         63.1842         9.99289 
        1.66898         62.9183         9.90587 
        1.67512         62.5028         9.81972 
        1.68127         62.2169         9.73452 
         1.6874         61.9964         9.65053 
        1.69353         61.7075         9.56759 
        1.69967         61.3267         9.48543 
        1.70581           61.21         9.40428 
        1.71193         60.9979          9.3244 
        1.71806          60.388         9.24527 
        1.72421         60.2708         9.16691 
        1.73035         59.9619         9.08956 
        1.73649          59.559         9.01312 
        1.74262         59.4376         8.93763 
        1.74876         59.1093         8.86295 
        1.75489         58.7753         8.78929 
        1.76101         58.5933         8.71648 
        1.76715         58.1771         8.64441 
        1.77329         57.9882         8.57307 
        1.77943         57.5812         8.50251 
        1.78557         57.4613         8.43285 
        1.79171         57.1346         8.36396 
        1.79785         56.9012         8.29584 
        1.80399         56.6708         8.22849 
        1.81012         56.4423         8.16198 
        1.81625          55.928         8.09625 
        1.82239         55.7869         8.03114 
        1.82853         55.4277         7.96678 
        1.83466         55.2575          7.9032 
        1.84078         54.9171         7.84038 
        1.84692         54.6176         7.77815 
        1.85306         54.4312         7.71652 
         1.8592         54.0568         7.65566 
        1.86533         53.9377         7.59549 
        1.87147         53.6452         7.53591 
        1.87761         53.4461         7.47694 
        1.88375         53.1662         7.41867 
        1.88988         53.0812          7.3611 
        1.89601         52.6755          7.3041 
        1.90215         52.4437         7.24767 
        1.90829         52.3184         7.19186 
        1.91442         51.9824         7.13664 
        1.92056         51.6375         7.08205 
         1.9267         51.4338         7.02798 
        1.93284         51.2241         6.97444 
        1.93897         50.9637         6.92157 
        1.94509         50.6564         6.86936 
        1.95123         50.5448         6.81756 
        1.95737         50.3172         6.76627 
        1.96349         49.9822         6.71563 
        1.96964         49.9519         6.66537 
        1.97578         49.5816          6.6156 
        1.98192         49.3754         6.56645 
        1.98805         49.2397         6.51779 
        1.99419         48.8778         6.46963 
        2.00033         48.6725         6.42193 
        2.00647         48.4686         6.37473 
         2.0126         48.1605         6.32809 
        2.01874          48.046         6.28184 
        2.02488         47.8781         6.23601 
        2.03101         47.5666         6.19073 
        2.03714         47.3478         6.14595 
        2.04328         47.1295         6.10156 
        2.04941         46.8452         6.05764 
        2.05554         46.5842         6.01419 
        2.06167         46.5162         5.97111 
        2.06781         46.2989         5.92845 
        2.07396          46.044         5.88615 
        2.08009         45.8943         5.84433 
        2.08622         45.5799         5.80297 
        2.09237         45.3979         5.76193 
        2.09851         45.2343         5.72129 
        2.10464         45.0038          5.6811 
        2.11077         44.8488         5.64135 
        2.11691         44.5708          5.6019 
        2.12305          44.363         5.56282 
        2.12918          44.123         5.52422 
        2.13531         43.9165         5.48597 
        2.14145          43.741         5.44801 
         2.1476         43.5846         5.41036 
        2.15372         43.3123         5.37326 
        2.15985         43.1384         5.33646 
        2.16599         43.0425         5.29991 
        2.17213         42.8679         5.26375 
        2.17827         42.5923         5.22793 
         2.1844         42.3972         5.19248 
        2.19054         42.1579         5.15734 
        2.19666         42.0017         5.12259 
         2.2028         41.8073         5.08812 
        2.20893         41.6977         5.05396 
        2.21508         41.5265         5.02007 
        2.22122         41.2521         4.98648 
        2.22736         41.1106         4.95327 
        2.23349         40.9715         4.92038 
        2.23962         40.6191         4.88777 
        2.24577         40.4821         4.85542 
         2.2519         40.2763         4.82342 
        2.25802         40.2236         4.79175 
        2.26417         39.9833         4.76029 
        2.27031          39.858         4.72908 
        2.27644         39.5586         4.69824 
        2.28257          39.457         4.66768 
        2.28872         39.1805         4.63733 
        2.29486         39.1161         4.60726 
        2.30099         38.9359         4.57752 
        2.30712         38.7658         4.54804 
        2.31326         38.5804         4.51876 
         2.3194         38.3727         4.48976 
        2.32553          38.244         4.46106 
        2.33166         38.0958         4.43263 
         2.3378         37.8048         4.40441 
        2.34394         37.6271         4.37642 
        2.35007         37.5019         4.34872 
        2.35619          37.403         4.32129 
        2.36233         37.2729         4.29404 
        2.36848         36.9892         4.26697 
        2.37462            36.9         4.24018 
        2.38075         36.7416         4.21366 
        2.38689         36.6617         4.18734 
        2.39303          36.424         4.16125 
        2.39916         36.2045         4.13541 
        2.40529         36.0022         4.10979 
        2.41143         35.9559         4.08438 
        2.41757         35.8275         4.05916 
         2.4237         35.6448         4.03421 
        2.42983         35.4674         4.00947 
        2.43598         35.2598         3.98487 
        2.44211          35.121         3.96053 
        2.44823         34.9972         3.93644 
        2.45437         34.8803         3.91248 
        2.46052         34.6168         3.88871 
        2.46665         34.5517         3.86518 
        2.47279         34.3973         3.84185 
        2.47892          34.198          3.8187 
        2.48507         34.0757         3.79571 
         2.4912         33.9408         3.77297 
