# k  (h/Mpc)    P(k)  (Mpc/h)^3    P_linear(k)  (Mpc/h)^3
     0.00783031           12215         12415.6 
       0.013688         15501.3         15403.7 
       0.019231         15722.9         15715.7 
      0.0249154         14342.4         14634.4 
      0.0312784         12591.1         12729.5 
      0.0375637         10820.9         10829.7 
      0.0433917          9222.1         9376.03 
      0.0492413          8243.7         8297.21 
      0.0555754         7292.94         7498.62 
      0.0619321         6958.93         6945.06 
       0.067871         6352.54         6517.13 
      0.0738098         5918.56         6077.45 
      0.0800417         5351.63            5555 
      0.0862327         4862.33         4983.77 
      0.0921407         4406.75         4435.78 
      0.0982031         3889.95         3925.02 
       0.104506         3579.23         3491.54 
       0.110769          3263.1          3173.8 
       0.116806         3040.34         2962.41 
       0.122832         2897.59         2816.36 
       0.129052         2711.79         2697.67 
       0.135211         2594.42         2579.28 
       0.141259          2494.1         2441.94 
       0.147318         2353.07         2278.91 
       0.153489         2154.65         2096.27 
       0.159709         2019.59         1913.16 
       0.165845         1914.62         1750.93 
       0.171974          1787.6         1618.42 
       0.178125          1691.6         1518.02 
       0.184229         1616.97         1446.19 
        0.19034         1524.31         1392.68 
       0.196428         1501.65         1346.69 
       0.202534         1453.89         1298.33 
       0.208729         1387.91         1241.07 
       0.214876         1323.88         1175.27 
       0.220989         1276.92         1104.35 
       0.227147         1212.77         1033.13 
        0.23329         1159.28          967.99 
       0.239377         1133.43         913.076 
       0.245482         1058.51         868.793 
       0.251667         1050.53         833.678 
       0.257832         1010.54         805.442 
       0.263955         979.011         780.393 
       0.270079         944.945          755.07 
        0.27624         935.132         727.318 
       0.282372         895.631         696.902 
        0.28843         881.402         665.095 
       0.294538          836.37         632.962 
       0.300721         831.437         602.308 
        0.30691         794.697         574.923 
       0.313033          778.92         551.692 
       0.319153         759.981         532.074 
       0.325316         736.279         515.043 
        0.33145         717.644         499.626 
       0.337538         706.807         484.723 
       0.343633         687.041         469.399 
       0.349808         663.521         453.211 
       0.355968         658.799         436.527 
       0.362074             649         420.023 
       0.368217          629.98          404.02 
       0.374374         603.804         389.136 
       0.380519         601.987         375.707 
       0.386598         586.175         363.807 
       0.392688         583.792         353.081 
        0.39888         566.303         342.978 
       0.405048         556.311         333.345 
       0.411186         547.368         323.886 
       0.417313         536.551         314.365 
       0.423458         526.855         304.781 
       0.429607         517.985         295.265 
       0.435692         506.117          286.09 
       0.441815         501.939         277.295 
       0.447964         491.155         269.034 
       0.454126          481.13         261.329 
       0.460267         472.247         254.198 
       0.466387         466.939         247.532 
        0.47254         458.955         241.123 
       0.478662         457.219         234.915 
       0.484765          442.25         228.842 
       0.490885         438.462         222.834 
       0.497035         429.946         216.876 
       0.503198         424.696          211.05 
       0.509342         421.217         205.449 
       0.515458         417.027         200.121 
       0.521598         407.156         195.026 
       0.527764         399.959         190.165 
       0.533884         397.832         185.579 
           0.54         392.405         181.189 
       0.546137         390.623         176.926 
       0.552299         382.864         172.748 
       0.558452          380.66         168.672 
       0.564573         374.922         164.714 
       0.570708         368.979         160.847 
       0.576825         361.115         157.097 
       0.582926         359.662         153.476 
       0.589034         356.372         149.979 
       0.595184             353         146.599 
       0.601379         348.286          143.33 
       0.607522         342.957         140.202 
       0.613639         341.626         137.184 
       0.619772         333.669         134.241 
       0.625918         332.579         131.368 
       0.632068         327.344         128.569 
       0.638161         326.075          125.87 
         0.6443         320.383         123.224 
       0.650464         317.616         120.641 
       0.656582         315.745         118.151 
       0.662703         314.127         115.733 
       0.668861         308.435         113.375 
       0.675024         305.237         111.087 
       0.681124         303.407         108.892 
       0.687237         300.263         106.756 
       0.693381         295.828         104.668 
       0.699536         292.804          102.63 
       0.705665         290.826         100.652 
       0.711789         288.551         98.7224 
       0.717957           286.5         96.8279 
        0.72409         283.624         94.9926 
       0.730186         280.433         93.2163 
       0.736317         277.476         91.4777 
       0.742472         276.052           89.78 
       0.748622         273.513         88.1295 
        0.75476         270.904         86.5258 
       0.760888         267.603         84.9654 
       0.767043         267.842         83.4377 
       0.773185         264.245         81.9503 
       0.779291         259.937         80.5066 
       0.785407         259.348         79.0947 
       0.791564         256.292         77.7071 
       0.797719         253.813         76.3531 
       0.803834         252.002         75.0398 
       0.809972         250.787         73.7529 
       0.816124         250.478         72.4938 
       0.822261         246.835         71.2681 
       0.828378         244.907         70.0749 
       0.834502         243.777         68.9086 
       0.840667         240.636         67.7617 
       0.846816         239.209         66.6444 
       0.852925         237.914         65.5596 
       0.859047         235.928         64.4968 
       0.865192         233.314         63.4541 
       0.871341         231.511         62.4337 
       0.877463         230.041         61.4404 
       0.883569         229.085         60.4712 
       0.889708         226.658         59.5179 
       0.895864         224.029         58.5828 
       0.902008         223.176         57.6698 
       0.908149         222.207         56.7768 
       0.914301         219.287         55.9014 
       0.920448          217.89         55.0453 
       0.926574         216.331         54.2102 
       0.932687         216.262         53.3944 
       0.938823         213.519         52.5924 
       0.944975         212.135         51.8052 
       0.951105         211.011          51.037 
       0.957225         209.164         50.2857 
       0.963368          206.53         49.5471 
       0.969511         205.648         48.8233 
       0.975621         203.891          48.118 
       0.981748         203.843         47.4248 
       0.987916         201.719         46.7409 
        0.99406         199.548         46.0732 
        1.00019         199.583         45.4199 
        1.00632         197.718         44.7798 
        1.01246         196.224         44.1512 
        1.01859         195.964         43.5357 
        1.02471          193.39         42.9328 
        1.03085          191.64         42.3392 
        1.03698         190.849         41.7581 
        1.04314         189.169         41.1855 
        1.04929         187.938          40.625 
        1.05541         187.876         40.0772 
        1.06154         185.689         39.5382 
        1.06769         185.443         39.0083 
        1.07382         183.846         38.4899 
        1.07993         182.257         37.9821 
        1.08607          181.61         37.4814 
        1.09222         180.536         36.9892 
        1.09836         179.004         36.5065 
        1.10449         177.174          36.033 
        1.11063         175.701         35.5674 
        1.11677         175.472         35.1101 
         1.1229         174.019         34.6618 
        1.12903         173.133         34.2209 
        1.13518         172.214         33.7873 
        1.14131         170.524         33.3615 
        1.14745         170.325         32.9432 
        1.15359         168.903         32.5321 
        1.15973         168.039         32.1278 
        1.16584         166.347         31.7323 
        1.17197         165.941         31.3428 
        1.17811         164.652         30.9587 
        1.18424         163.777         30.5822 
        1.19038         163.355         30.2109 
        1.19652         161.971         29.8458 
        1.20267         161.241         29.4869 
        1.20881         159.713         29.1339 
        1.21495         159.102         28.7872 
        1.22108         158.147         28.4463 
         1.2272         156.786         28.1117 
        1.23334         156.223         27.7817 
        1.23949         155.026         27.4562 
        1.24562         154.169         27.1369 
        1.25174         152.747         26.8231 
        1.25789         151.908         26.5133 
        1.26402         150.966          26.209 
        1.27014         149.913         25.9102 
        1.27628         149.364         25.6152 
        1.28244         148.974         25.3242 
        1.28858          147.73         25.0381 
        1.29471         146.243         24.7571 
        1.30084         145.916         24.4807 
        1.30697         144.767          24.208 
        1.31312         144.089         23.9391 
        1.31925         143.149         23.6752 
        1.32537         142.441         23.4155 
        1.33151         141.043         23.1587 
        1.33765         140.601          22.906 
        1.34378         139.804         22.6576 
        1.34992         139.278         22.4126 
        1.35606         138.731         22.1708 
         1.3622         137.358         21.9329 
        1.36833         136.402         21.6991 
        1.37445         135.696         21.4689 
        1.38059         135.009         21.2413 
        1.38675         134.254         21.0164 
        1.39288         133.661         20.7957 
        1.39901          133.32         20.5783 
        1.40515         131.981         20.3635 
         1.4113         131.042         20.1518 
        1.41742          130.47          19.944 
        1.42355         129.612         19.7387 
         1.4297         128.951         19.5356 
        1.43585         127.893         19.3356 
        1.44198         127.534          19.139 
        1.44809           126.8         18.9456 
        1.45423         125.962         18.7542 
        1.46036         125.324         18.5657 
        1.46649         124.394         18.3798 
        1.47263         123.762         18.1962 
        1.47877         123.263         18.0153 
        1.48491         121.975         17.8365 
        1.49104         121.847         17.6605 
        1.49718         120.661         17.4868 
        1.50333         120.243         17.3151 
        1.50947         119.773         17.1461 
         1.5156         118.861         16.9796 
        1.52172         118.166         16.8153 
        1.52787         117.464         16.6528 
          1.534         116.892         16.4927 
        1.54013          116.12         16.3348 
        1.54627         115.651         16.1787 
        1.55241         114.681         16.0247 
        1.55855         114.066         15.8729 
        1.56467         113.786         15.7234 
         1.5708          112.82         15.5755 
        1.57695         112.444         15.4292 
        1.58308         111.696         15.2851 
        1.58922         111.356         15.1428 
        1.59535         110.474         15.0024 
         1.6015         109.984         14.8635 
        1.60764         109.349         14.7265 
        1.61376         108.955         14.5915 
        1.61989         108.096         14.4582 
        1.62604         107.653         14.3262 
        1.63218         107.111         14.1959 
        1.63831         106.235         14.0676 
        1.64444         105.909         13.9408 
        1.65059         105.324         13.8152 
        1.65673         104.297         13.6914 
        1.66285          104.14         13.5694 
        1.66898         103.597         13.4488 
        1.67512         103.038         13.3295 
        1.68127         102.324         13.2115 
         1.6874         101.574         13.0952 
        1.69353         101.176         12.9804 
        1.69967         100.773         12.8667 
        1.70581          100.12         12.7544 
        1.71193         99.7577         12.6438 
        1.71806         99.0895         12.5344 
        1.72421         98.3976          12.426 
        1.73035         98.1221          12.319 
        1.73649         97.4105         12.2133 
        1.74262         96.8178         12.1089 
        1.74876         96.5205         12.0056 
        1.75489         95.6872         11.9038 
        1.76101         95.2518         11.8032 
        1.76715         94.5986         11.7036 
        1.77329         94.3632          11.605 
        1.77943         93.5378         11.5076 
        1.78557         93.2728         11.4114 
        1.79171         92.5351         11.3162 
        1.79785         92.1697         11.2222 
        1.80399         91.6076         11.1292 
        1.81012         91.2268         11.0374 
        1.81625         90.7044         10.9467 
        1.82239         90.3822         10.8568 
        1.82853         89.9008          10.768 
        1.83466         89.1459         10.6803 
        1.84078         89.0204         10.5937 
        1.84692         88.3053         10.5079 
        1.85306         87.7912         10.4229 
         1.8592         87.4332          10.339 
        1.86533         86.8511          10.256 
        1.87147         86.3353         10.1739 
        1.87761         85.9942         10.0926 
        1.88375          85.429         10.0124 
        1.88988         85.0071         9.93305 
        1.89601         84.5412         9.85454 
        1.90215         84.1361         9.77681 
        1.90829         83.6257         9.69997 
        1.91442         83.2761         9.62394 
        1.92056         82.6414         9.54879 
         1.9267         82.3855         9.47437 
        1.93284         81.8958         9.40069 
        1.93897         81.4361         9.32794 
        1.94509         81.1453         9.25611 
        1.95123         80.6591         9.18486 
        1.95737         80.1875          9.1143 
        1.96349         79.6783         9.04466 
        1.96964         79.2224         8.97555 
        1.97578           78.91         8.90713 
        1.98192         78.5858         8.83956 
        1.98805         77.8889         8.77269 
        1.99419         77.6525         8.70649 
        2.00033         77.3461         8.64095 
        2.00647         76.8168          8.5761 
         2.0126         76.3936         8.51202 
        2.01874         75.8758          8.4485 
        2.02488         75.5059         8.38557 
        2.03101         75.1523          8.3234 
        2.03714         74.6233         8.26191 
        2.04328         74.3883         8.20097 
        2.04941          74.016          8.1407 
        2.05554          73.714         8.08108 
        2.06167           73.23         8.02197 
        2.06781         72.7219         7.96344 
        2.07396         72.3965         7.90541 
        2.08009          72.082         7.84806 
        2.08622         71.7286         7.79134 
        2.09237         71.2826         7.73508 
        2.09851         71.0793         7.67935 
        2.10464         70.5712         7.62427 
        2.11077         70.1892         7.56979 
        2.11691         69.9457         7.51573 
        2.12305         69.4146         7.46218 
        2.12918          69.099         7.40929 
        2.13531         68.7945         7.35691 
        2.14145          68.298         7.30491 
         2.1476         67.9694         7.25335 
        2.15372         67.6711         7.20254 
        2.15985         67.2808         7.15217 
        2.16599          66.984         7.10214 
        2.17213         66.6277         7.05264 
        2.17827          66.233         7.00362 
         2.1844          65.868         6.95511 
        2.19054         65.7157         6.90704 
        2.19666         65.2107         6.85949 
         2.2028         65.1154         6.81235 
        2.20893         64.5942         6.76563 
        2.21508         64.2582         6.71929 
        2.22122         63.9713         6.67337 
        2.22736          63.649         6.62798 
        2.23349         63.2777         6.58301 
        2.23962         62.8739         6.53844 
        2.24577          62.583         6.49424 
         2.2519          62.374         6.45051 
        2.25802         62.0306         6.40726 
        2.26417         61.5717         6.36428 
        2.27031         61.3396         6.32165 
        2.27644         61.0622         6.27953 
        2.28257         60.6983         6.23781 
        2.28872         60.3794         6.19638 
        2.29486         59.9746         6.15533 
        2.30099         59.6715         6.11474 
        2.30712         59.5517          6.0745 
        2.31326         59.2054         6.03454 
         2.3194         58.8675         5.99497 
        2.32553         58.5315         5.95583 
        2.33166          58.193         5.91704 
         2.3378          57.869         5.87855 
        2.34394         57.6284         5.84039 
        2.35007         57.2863         5.80262 
        2.35619         57.0367         5.76522 
        2.36233         56.8052         5.72807 
        2.36848         56.4721         5.69117 
        2.37462         56.1394         5.65467 
        2.38075         55.9668         5.61853 
        2.38689         55.6093         5.58267 
        2.39303         55.3342         5.54713 
        2.39916         55.0812         5.51193 
        2.40529         54.8209         5.47705 
        2.41143         54.5703         5.44243 
        2.41757         54.2222         5.40811 
         2.4237         54.0737         5.37414 
        2.42983         53.6139         5.34046 
        2.43598         53.3779         5.30698 
        2.44211          53.166         5.27385 
        2.44823          52.918         5.24107 
        2.45437         52.5639         5.20848 
        2.46052         52.3064         5.17614 
        2.46665         52.1072         5.14413 
        2.47279         51.7574          5.1124 
        2.47892         51.5716         5.08091 
        2.48507         51.2924         5.04966 
         2.4912         51.1107         5.01873 
