#  k  (h/Mpc)          P(k)  (Mpc/h)^3     P_linear(k) (Mpc/h)^3
     0.00783031         15643.4         15728.1 
       0.013688         18396.8         18875.3 
       0.019231         18460.3         18740.5 
      0.0249154         17058.4         17012.7 
      0.0312784         14280.5         14413.2 
      0.0375637           11789         11979.1 
      0.0433917         10148.7         10187.1 
      0.0492413         8803.96         8897.08 
      0.0555754         7962.95         7971.83 
      0.0619321         7114.82         7352.35 
       0.067871         6765.07         6884.53 
      0.0738098         6343.47         6404.34 
      0.0800417         5789.11         5828.27 
      0.0862327         5140.12         5193.66 
      0.0921407         4590.44         4583.63 
      0.0982031         4107.55         4016.57 
       0.104506         3590.63         3538.73 
       0.110769         3283.92         3192.96 
       0.116806         3113.41         2967.85 
       0.122832         2927.98         2817.57 
       0.129052         2786.29         2700.03 
       0.135211         2717.59            2584 
       0.141259         2528.08         2446.93 
       0.147318         2343.56         2280.65 
       0.153489         2187.14         2091.28 
       0.159709         2070.15          1899.4 
       0.165845         1871.22          1728.4 
       0.171974         1803.63         1588.51 
       0.178125         1723.48         1482.94 
       0.184229         1588.83         1408.44 
        0.19034         1565.24         1354.51 
       0.196428         1521.33         1309.84 
       0.202534         1429.18         1263.77 
       0.208729         1405.33         1209.01 
       0.214876         1339.56         1145.13 
       0.220989         1263.75         1075.18 
       0.227147         1224.13         1003.92 
        0.23329         1169.43         937.942 
       0.239377         1155.82         881.757 
       0.245482         1094.09         836.158 
       0.251667         1053.78         800.056 
       0.257832         1036.24         771.444 
       0.263955         987.053         746.725 
       0.270079         957.103         722.408 
        0.27624         918.329         696.115 
       0.282372         903.884         667.322 
        0.28843         890.291         636.987 
       0.294538         845.665          605.97 
       0.300721         825.935         575.986 
        0.30691         806.641         548.822 
       0.313033         771.794         525.528 
       0.319153          761.93         505.719 
       0.325316         751.169         488.603 
        0.33145         733.421         473.328 
       0.337538           707.6         458.875 
       0.343633         690.321         444.283 
       0.349808         674.913         429.036 
       0.355968         662.411         413.343 
       0.362074         638.647         397.734 
       0.368217         636.586         382.457 
       0.374374         626.318         368.066 
       0.380519         601.806         354.938 
       0.386598         596.997         343.205 
       0.392688         581.933         332.603 
        0.39888         568.242          322.68 
       0.405048         556.425         313.329 
       0.411186         555.601         304.277 
       0.417313          550.14         295.285 
       0.423458         534.036         286.278 
       0.429607         518.797         277.347 
       0.435692          512.81         268.698 
       0.441815         502.892         260.342 
       0.447964         494.754         252.421 
       0.454126         489.017         244.985 
       0.460267          481.21         238.068 
       0.466387         472.124         231.605 
        0.47254         465.651         225.426 
       0.478662         457.114         219.494 
       0.484765         451.516         213.735 
       0.490885         447.055         208.077 
       0.497035         437.373         202.489 
       0.503198         437.339         197.021 
       0.509342         428.072         191.746 
       0.515458         419.784         186.704 
       0.521598         416.202          181.86 
       0.527764         408.259         177.221 
       0.533884         404.566         172.836 
           0.54         400.473         168.644 
       0.546137         392.985         164.588 
       0.552299         391.597         160.637 
       0.558452         385.184         156.798 
       0.564573         382.641         153.081 
       0.570708         377.205         149.454 
       0.576825         370.313         145.937 
       0.582926          368.94         142.535 
       0.589034         362.405         139.244 
       0.595184         359.901         136.053 
       0.601379         354.298         132.959 
       0.607522         347.488             130 
       0.613639         346.824         127.149 
       0.619772         345.351         124.376 
       0.625918         338.641         121.676 
       0.632068         336.305         119.052 
       0.638161         333.759         116.523 
         0.6443         328.937         114.045 
       0.650464         325.618         111.625 
       0.656582         322.607         109.292 
       0.662703         320.687         107.025 
       0.668861         314.786         104.813 
       0.675024         313.754         102.667 
       0.681124          308.52         100.607 
       0.687237         307.409         98.6031 
       0.693381         302.911         96.6452 
       0.699536         302.049          94.736 
       0.705665          298.38         92.8844 
       0.711789         296.125         91.0813 
       0.717957           293.1         89.3123 
        0.72409          289.24         87.5996 
       0.730186         290.842         85.9425 
       0.736317         285.665         84.3204 
       0.742472         283.397         82.7358 
       0.748622         281.155         81.1947 
        0.75476         279.623         79.6971 
       0.760888         276.724           78.24 
       0.767043         273.688         76.8137 
       0.773185         271.774         75.4258 
       0.779291         268.871         74.0797 
       0.785407         267.552         72.7641 
       0.791564         265.469         71.4721 
       0.797719          261.18         70.2121 
       0.803834         262.756         68.9905 
       0.809972         258.795         67.7939 
       0.816124         255.811         66.6234 
       0.822261         253.948         65.4841 
       0.828378         253.067         64.3751 
       0.834502         249.518         63.2912 
       0.840667         249.848         62.2255 
       0.846816         245.265         61.1874 
       0.852925         245.647         60.1796 
       0.859047         243.197         59.1925 
       0.865192         242.453         58.2243 
       0.871341         239.463          57.277 
       0.877463         237.817         56.3551 
       0.883569         236.677         55.4559 
       0.889708         234.578         54.5717 
       0.895864         231.917         53.7045 
       0.902008         230.523          52.858 
       0.908149          228.63         52.0303 
       0.914301         227.256          51.219 
       0.920448         226.152         50.4259 
       0.926574         224.317         49.6524 
       0.932687         223.886         48.8968 
       0.938823         221.405         48.1543 
       0.944975         220.911         47.4255 
       0.951105         218.506         46.7145 
       0.957225         216.718         46.0193 
       0.963368         216.819          45.336 
       0.969511         213.223         44.6666 
       0.975621         211.442         44.0143 
       0.981748         211.289         43.3734 
       0.987916         210.031         42.7413 
        0.99406         208.294         42.1242 
        1.00019         206.959         41.5205 
        1.00632         206.073         40.9293 
        1.01246         204.453         40.3487 
        1.01859         202.446         39.7804 
        1.02471         201.087         39.2238 
        1.03085         200.103         38.6759 
        1.03698         199.486         38.1397 
        1.04314         198.506         37.6114 
        1.04929         197.244         37.0943 
        1.05541         196.186         36.5891 
        1.06154         194.361         36.0921 
        1.06769          193.21         35.6036 
        1.07382         191.907         35.1258 
        1.07993         190.584         34.6578 
        1.08607         189.912         34.1964 
        1.09222           188.1          33.743 
        1.09836          187.58         33.2984 
        1.10449         186.237         32.8623 
        1.11063         184.874         32.4335 
        1.11677         183.807         32.0125 
         1.1229         183.105         31.5998 
        1.12903         181.269         31.1939 
        1.13518         180.473         30.7949 
        1.14131         179.819          30.403 
        1.14745         178.139         30.0182 
        1.15359         176.941           29.64 
        1.15973         176.374         29.2682 
        1.16584         175.148         28.9044 
        1.17197         174.452         28.5463 
        1.17811         172.959         28.1931 
        1.18424         172.149          27.847 
        1.19038         171.398         27.5057 
        1.19652         169.687         27.1702 
        1.20267         168.891         26.8403 
        1.20881         167.778          26.516 
        1.21495         167.689         26.1975 
        1.22108         166.225         25.8844 
         1.2272         165.131         25.5771 
        1.23334         164.234         25.2741 
        1.23949         163.528         24.9753 
        1.24562         162.415         24.6821 
        1.25174         161.904         24.3941 
        1.25789         160.412         24.1099 
        1.26402         159.995         23.8306 
        1.27014         159.291         23.5565 
        1.27628         158.205         23.2859 
        1.28244         157.053          23.019 
        1.28858         156.226         22.7567 
        1.29471         155.072          22.499 
        1.30084         154.383         22.2456 
        1.30697         153.304         21.9957 
        1.31312         152.646         21.7493 
        1.31925         151.523         21.5074 
        1.32537         151.132         21.2695 
        1.33151         150.176         21.0343 
        1.33765         149.266         20.8028 
        1.34378         148.904         20.5752 
        1.34992         147.675         20.3509 
        1.35606         147.103         20.1295 
         1.3622         146.126         19.9117 
        1.36833         145.219         19.6977 
        1.37445         144.979         19.4869 
        1.38059          143.61         19.2785 
        1.38675          142.96         19.0727 
        1.39288         142.075         18.8708 
        1.39901         141.086         18.6718 
        1.40515         140.773         18.4752 
         1.4113          139.85         18.2816 
        1.41742         139.142         18.0915 
        1.42355         138.626         17.9037 
         1.4297         137.612          17.718 
        1.43585         137.111          17.535 
        1.44198         135.827         17.3553 
        1.44809         135.492         17.1784 
        1.45423         134.903         17.0034 
        1.46036         133.774         16.8311 
        1.46649         133.022         16.6612 
        1.47263         132.509         16.4934 
        1.47877         131.685         16.3281 
        1.48491         131.042         16.1647 
        1.49104          129.91          16.004 
        1.49718         129.663         15.8453 
        1.50333         128.635         15.6884 
        1.50947         128.334         15.5341 
         1.5156         127.385          15.382 
        1.52172         126.708          15.232 
        1.52787         126.327         15.0837 
          1.534         125.636         14.9375 
        1.54013         124.721         14.7934 
        1.54627         124.085          14.651 
        1.55241         123.701         14.5104 
        1.55855         123.024         14.3719 
        1.56467         122.334         14.2355 
         1.5708          121.27         14.1005 
        1.57695         121.196         13.9671 
        1.58308         120.122         13.8357 
        1.58922         119.627         13.7059 
        1.59535         119.294         13.5778 
         1.6015         118.399         13.4511 
        1.60764         117.664         13.3262 
        1.61376         117.206         13.2031 
        1.61989         116.756         13.0816 
        1.62604         115.835         12.9612 
        1.63218         115.402         12.8425 
        1.63831         114.684         12.7255 
        1.64444          113.87         12.6099 
        1.65059          113.52         12.4955 
        1.65673         113.206         12.3827 
        1.66285         112.637         12.2715 
        1.66898         111.774         12.1617 
        1.67512         110.956          12.053 
        1.68127         110.827         11.9455 
         1.6874          110.06         11.8395 
        1.69353         109.467          11.735 
        1.69967         108.834         11.6314 
        1.70581         108.491         11.5291 
        1.71193         107.849         11.4285 
        1.71806         107.011         11.3288 
        1.72421         106.594         11.2301 
        1.73035         106.092         11.1327 
        1.73649         105.471         11.0365 
        1.74262         105.021         10.9415 
        1.74876         104.312         10.8475 
        1.75489         104.198         10.7548 
        1.76101         103.408         10.6633 
        1.76715         102.724         10.5727 
        1.77329         102.251          10.483 
        1.77943         101.708         10.3943 
        1.78557         101.418         10.3068 
        1.79171         100.703         10.2203 
        1.79785         100.086         10.1347 
        1.80399         99.7412         10.0502 
        1.81012         98.9479         9.96668 
        1.81625         98.5711         9.88418 
        1.82239         98.2597         9.80249 
        1.82853         97.4297         9.72177 
        1.83466         96.8414         9.64202 
        1.84078          96.774         9.56325 
        1.84692         96.4307         9.48524 
        1.85306         95.8261         9.40799 
         1.8592         95.3938         9.33173 
        1.86533         94.6994         9.25635 
        1.87147          94.334         9.18172 
        1.87761         93.5776         9.10787 
        1.88375         93.2245         9.03493 
        1.88988         92.6911         8.96286 
        1.89601         92.4302         8.89153 
        1.90215         92.0559         8.82092 
        1.90829         91.2564         8.75111 
        1.91442         90.7287         8.68205 
        1.92056          90.382          8.6138 
         1.9267         89.9774         8.54621 
        1.93284         89.4788          8.4793 
        1.93897         89.0869         8.41324 
        1.94509         88.6737         8.34802 
        1.95123         88.2229         8.28332 
        1.95737         87.8689         8.21926 
        1.96349         87.4725         8.15604 
        1.96964         86.9464         8.09331 
        1.97578         86.4884          8.0312 
        1.98192         86.1174         7.96987 
        1.98805         85.5985         7.90917 
        1.99419         85.3763          7.8491 
        2.00033          84.714         7.78962 
        2.00647         84.2482         7.73078 
         2.0126         83.9308         7.67264 
        2.01874         83.6261           7.615 
        2.02488         83.0986         7.55791 
        2.03101         82.6813         7.50151 
        2.03714         82.3201         7.44574 
        2.04328         82.1033         7.39047 
        2.04941         81.5871          7.3358 
        2.05554         81.1748         7.28172 
        2.06167         80.6153         7.22812 
        2.06781         80.2982         7.17505 
        2.07396         79.7124         7.12243 
        2.08009         79.4113         7.07043 
        2.08622         79.0916         7.01901 
        2.09237         78.6767         6.96799 
        2.09851         78.1456         6.91748 
        2.10464         78.0254         6.86754 
        2.11077         77.5277         6.81816 
        2.11691         77.2152         6.76915 
        2.12305         76.7669         6.72062 
        2.12918         76.3257         6.67269 
        2.13531         76.0044         6.62521 
        2.14145         75.7015         6.57808 
         2.1476         75.3881         6.53136 
        2.15372         74.8568         6.48533 
        2.15985         74.5162         6.43969 
        2.16599         74.1999         6.39435 
        2.17213         73.6804         6.34951 
        2.17827         73.2136          6.3051 
         2.1844         73.1053         6.26116 
        2.19054         72.6007         6.21761 
        2.19666          72.292         6.17455 
         2.2028         72.1111         6.13185 
        2.20893         71.7453         6.08953 
        2.21508         71.3436         6.04757 
        2.22122         70.8818         6.00598 
        2.22736         70.5599         5.96488 
        2.23349         70.1718         5.92416 
        2.23962         69.8972         5.88381 
        2.24577         69.6442         5.84379 
         2.2519         69.2231          5.8042 
        2.25802         68.8212         5.76504 
        2.26417         68.5081         5.72613 
        2.27031         68.2086         5.68754 
        2.27644         67.8054         5.64942 
        2.28257         67.5654         5.61165 
        2.28872         67.1176         5.57415 
        2.29486          67.055         5.53701 
        2.30099         66.4343         5.50027 
        2.30712         66.3522         5.46386 
        2.31326         65.9647          5.4277 
         2.3194          65.635          5.3919 
        2.32553         65.2509         5.35648 
        2.33166         65.0093         5.32139 
         2.3378         64.6992         5.28657 
        2.34394         64.4494         5.25205 
        2.35007         64.0183         5.21788 
        2.35619         63.7827         5.18406 
        2.36233         63.4278         5.15046 
        2.36848         63.1025         5.11708 
        2.37462         62.8077         5.08407 
        2.38075         62.5212         5.05138 
        2.38689         62.1355         5.01896 
        2.39303         61.9568         4.98682 
        2.39916         61.5788         4.95499 
        2.40529         61.4105         4.92345 
        2.41143         61.0999         4.89216 
        2.41757         60.6701         4.86112 
         2.4237         60.5355         4.83041 
        2.42983         60.1808         4.79997 
        2.43598         59.8936          4.7697 
        2.44211         59.6032         4.73975 
        2.44823         59.3779         4.71012 
        2.45437         58.9685         4.68066 
        2.46052         58.7786         4.65143 
        2.46665         58.3505          4.6225 
        2.47279         58.1692         4.59383 
        2.47892         57.9374         4.56537 
        2.48507         57.6488         4.53713 
         2.4912         57.3939         4.50919 
