#  k  (h/Mpc)          P(k)  (Mpc/h)^3     P_linear(k) (Mpc/h)^3
     0.00783031         1393.92         1403.22 
       0.013688         1752.25         1771.58 
       0.019231         1832.93         1841.92 
      0.0249154         1756.33         1755.81 
      0.0312784         1569.24         1572.17 
      0.0375637         1369.02         1374.03 
      0.0433917         1213.88         1212.35 
      0.0492413            1082          1084.2 
      0.0555754         984.877           982.2 
      0.0619321         898.857         907.241 
       0.067871         847.627         849.642 
      0.0738098         793.104         794.155 
      0.0800417         732.939         732.233 
      0.0862327         664.862         666.257 
      0.0921407         601.315          602.37 
      0.0982031         542.456         540.739 
       0.104506         483.792          485.42 
       0.110769         441.121         441.673 
       0.116806         412.929         409.897 
       0.122832         386.647         386.275 
       0.129052         368.972         367.167 
       0.135211         353.324         350.177 
       0.141259         334.063         332.862 
       0.147318         312.789         313.688 
       0.153489         293.119         292.421 
       0.159709         272.946         270.423 
       0.165845         249.501         249.757 
       0.171974         235.491         231.504 
       0.178125         220.469         216.322 
       0.184229         206.946         204.386 
        0.19034         199.384         195.001 
       0.196428         191.447         187.299 
       0.202534         181.933         180.256 
       0.208729         176.568         173.001 
       0.214876         169.787         165.251 
       0.220989         159.147         156.972 
       0.227147         153.201          148.36 
        0.23329         145.376         139.964 
       0.239377         138.491         132.276 
       0.245482         131.146          125.49 
       0.251667         124.651         119.653 
       0.257832         121.428         114.766 
       0.263955         115.759         110.588 
       0.270079         111.855         106.787 
        0.27624         107.374         103.074 
       0.282372         103.858         99.3136 
        0.28843         101.636         95.4745 
       0.294538         97.1878         91.5232 
       0.300721         92.5803         87.5631 
        0.30691         90.0056         83.7731 
       0.313033          86.143          80.311 
       0.319153         84.1045         77.1896 
       0.325316          80.212         74.3897 
        0.33145         77.5562         71.8875 
       0.337538         75.3772          69.607 
       0.343633         73.3644          67.438 
       0.349808         70.9632         65.2905 
       0.355968         68.7589         63.1565 
       0.362074         67.2755         61.0456 
       0.368217         65.1336         58.9472 
       0.374374          63.588         56.9034 
       0.380519         60.8444         54.9614 
       0.386598         58.9858         53.1584 
       0.392688         57.2062         51.4815 
        0.39888         56.0207         49.9005 
       0.405048         54.6558         48.4287 
       0.411186         53.1945         47.0427 
       0.417313         51.7352         45.7112 
       0.423458         50.2288         44.4096 
       0.429607         49.3568         43.1341 
       0.435692         48.4101         41.8967 
       0.441815         46.5859         40.6826 
       0.447964         45.1794         39.5056 
       0.454126          44.353         38.3759 
       0.460267         43.8196          37.304 
       0.466387         42.5343         36.2917 
        0.47254         41.8497         35.3253 
       0.478662         40.5707         34.4074 
       0.484765          39.707         33.5288 
       0.490885         38.5808         32.6779 
       0.497035         37.8974         31.8469 
       0.503198         37.0653          31.036 
       0.509342         36.0691         30.2499 
       0.515458         35.5857          29.491 
       0.521598         34.7514         28.7539 
       0.527764         34.2433         28.0401 
       0.533884         33.3758         27.3593 
           0.54          32.743         26.7061 
       0.546137         31.7699         26.0754 
       0.552299         31.2299         25.4647 
       0.558452         30.5839         24.8754 
       0.564573         30.2448         24.3074 
       0.570708         29.4836         23.7548 
       0.576825         29.0392         23.2192 
       0.582926         28.5027         22.6998 
       0.589034         27.9524         22.1948 
       0.595184         27.5891         21.7021 
       0.601379         26.8508         21.2217 
       0.607522         26.4244         20.7607 
       0.613639         25.9385         20.3161 
       0.619772         25.5288         19.8843 
       0.625918         25.0046         19.4649 
       0.632068         24.7728         19.0578 
       0.638161         24.2736          18.666 
         0.6443         23.8609         18.2822 
       0.650464         23.2746         17.9072 
       0.656582         23.1265          17.545 
       0.662703         22.8409         17.1926 
       0.668861         22.2256         16.8479 
       0.675024         21.9267         16.5127 
       0.681124         21.8248         16.1904 
       0.687237          21.368         15.8763 
       0.693381         20.8776         15.5692 
       0.699536         20.7905         15.2699 
       0.705665         20.3997         14.9798 
       0.711789         20.0203         14.6975 
       0.717957         19.6143         14.4206 
        0.72409         19.4505         14.1524 
       0.730186         19.3343         13.8927 
       0.736317         18.9241          13.638 
       0.742472         18.6838         13.3889 
       0.748622         18.3971         13.1463 
        0.75476         17.9388         12.9102 
       0.760888         17.8531         12.6804 
       0.767043         17.5382         12.4553 
       0.773185          17.342         12.2362 
       0.779291         17.2067         12.0237 
       0.785407         16.8906          11.816 
       0.791564         16.7408         11.6119 
       0.797719         16.3949         11.4129 
       0.803834         16.3024         11.2198 
       0.809972         15.9947         11.0305 
       0.816124         15.8195         10.8452 
       0.822261         15.6378         10.6647 
       0.828378         15.4426         10.4889 
       0.834502         15.2825         10.3169 
       0.840667         15.1238         10.1477 
       0.846816         14.8001         9.98277 
       0.852925         14.7209         9.82259 
       0.859047         14.5373         9.66561 
       0.865192         14.3391         9.51158 
       0.871341         14.1427         9.36082 
       0.877463         13.9887         9.21404 
       0.883569         13.8899          9.0708 
       0.889708         13.6645         8.92989 
       0.895864         13.4966         8.79164 
       0.902008         13.3351         8.65661 
       0.908149         13.1567         8.52452 
       0.914301         13.0774         8.39499 
       0.920448         12.8887         8.26829 
       0.926574         12.8174         8.14466 
       0.932687         12.6169         8.02384 
       0.938823         12.4499         7.90504 
       0.944975         12.3586          7.7884 
       0.951105         12.1947         7.67454 
       0.957225         12.1239         7.56317 
       0.963368         11.9557         7.45363 
       0.969511         11.8253         7.34628 
       0.975621         11.7037         7.24164 
       0.981748         11.5369         7.13877 
       0.987916          11.452         7.03727 
        0.99406         11.3562         6.93814 
        1.00019         11.2545         6.84112 
        1.00632         11.1482         6.74606 
        1.01246         11.0165         6.65268 
        1.01859         10.8948         6.56123 
        1.02471         10.7534         6.47163 
        1.03085         10.7173          6.3834 
        1.03698         10.6081         6.29701 
        1.04314         10.4905         6.21186 
        1.04929         10.3448          6.1285 
        1.05541         10.2887         6.04702 
        1.06154          10.194         5.96682 
        1.06769         10.1421         5.88797 
        1.07382         9.96732         5.81081 
        1.07993         9.87484         5.73522 
        1.08607          9.8297         5.66067 
        1.09222         9.70143         5.58738 
        1.09836         9.67744         5.51547 
        1.10449         9.50247         5.44492 
        1.11063         9.47475         5.37553 
        1.11677         9.40204         5.30739 
         1.1229         9.31353         5.24054 
        1.12903         9.24416          5.1748 
        1.13518         9.10524         5.11013 
        1.14131         9.04424         5.04661 
        1.14745         8.92974         4.98421 
        1.15359         8.86531         4.92286 
        1.15973         8.78505         4.86252 
        1.16584         8.72011         4.80346 
        1.17197         8.64207          4.7453 
        1.17811         8.56372         4.68794 
        1.18424         8.49958         4.63168 
        1.19038         8.44407          4.5762 
        1.19652         8.38026         4.52164 
        1.20267         8.30853         4.46798 
        1.20881         8.22278          4.4152 
        1.21495         8.15635         4.36337 
        1.22108         8.10415         4.31237 
         1.2272          8.0224         4.26232 
        1.23334         8.00649         4.21295 
        1.23949         7.90622         4.16424 
        1.24562         7.84953         4.11645 
        1.25174         7.80102         4.06948 
        1.25789         7.69115         4.02311 
        1.26402         7.66587         3.97754 
        1.27014         7.61807         3.93279 
        1.27628         7.52568         3.88861 
        1.28244         7.50654         3.84501 
        1.28858         7.45515         3.80215 
        1.29471         7.35332         3.76004 
        1.30084         7.29561         3.71861 
        1.30697         7.28079         3.67775 
        1.31312         7.20614         3.63744 
        1.31925         7.15463         3.59787 
        1.32537         7.11209         3.55893 
        1.33151         7.05015         3.52042 
        1.33765         6.99584         3.48252 
        1.34378         6.98111         3.44524 
        1.34992         6.90857         3.40849 
        1.35606         6.86082          3.3722 
         1.3622         6.80781          3.3365 
        1.36833         6.75667          3.3014 
        1.37445         6.70129         3.26683 
        1.38059         6.65981         3.23265 
        1.38675         6.61056         3.19887 
        1.39288         6.56925         3.16572 
        1.39901         6.50901         3.13305 
        1.40515         6.47735         3.10077 
         1.4113         6.42447         3.06896 
        1.41742         6.38927         3.03772 
        1.42355         6.33645         3.00686 
         1.4297         6.30477         2.97633 
        1.43585         6.26709         2.94624 
        1.44198          6.2166         2.91668 
        1.44809         6.18688         2.88759 
        1.45423         6.13562         2.85878 
        1.46036         6.10252         2.83042 
        1.46649         6.05456         2.80243 
        1.47263          6.0291         2.77481 
        1.47877         5.98612         2.74756 
        1.48491         5.95308         2.72065 
        1.49104         5.90362         2.69414 
        1.49718         5.88024         2.66798 
        1.50333         5.83596         2.64212 
        1.50947         5.78122         2.61666 
         1.5156         5.76877         2.59157 
        1.52172          5.7337         2.56681 
        1.52787         5.69663         2.54233 
          1.534         5.66023         2.51819 
        1.54013         5.62897          2.4944 
        1.54627         5.58935         2.47087 
        1.55241         5.54459         2.44764 
        1.55855         5.53169         2.42475 
        1.56467         5.49196         2.40221 
         1.5708         5.45871         2.37989 
        1.57695         5.40912         2.35783 
        1.58308          5.3774         2.33609 
        1.58922         5.36088         2.31462 
        1.59535         5.32805         2.29342 
         1.6015         5.28509         2.27247 
        1.60764         5.26592         2.25178 
        1.61376         5.23365         2.23141 
        1.61989         5.18799         2.21128 
        1.62604          5.1646         2.19135 
        1.63218         5.14234         2.17167 
        1.63831         5.12336         2.15229 
        1.64444           5.079         2.13313 
        1.65059         5.05926         2.11417 
        1.65673         5.02703         2.09545 
        1.66285         5.00177         2.07702 
        1.66898         4.96976          2.0588 
        1.67512         4.93555         2.04076 
        1.68127         4.90708         2.02292 
         1.6874         4.89304         2.00534 
        1.69353          4.8486         1.98798 
        1.69967         4.83272         1.97078 
        1.70581         4.80155         1.95379 
        1.71193         4.77539         1.93707 
        1.71806         4.75419          1.9205 
        1.72421         4.72593          1.9041 
        1.73035         4.69907         1.88791 
        1.73649         4.67431         1.87191 
        1.74262         4.65031         1.85611 
        1.74876         4.63298         1.84048 
        1.75489         4.60293         1.82506 
        1.76101         4.57151         1.80983 
        1.76715         4.56283         1.79475 
        1.77329         4.53422         1.77982 
        1.77943         4.50197         1.76506 
        1.78557         4.48688         1.75048 
        1.79171         4.46838         1.73607 
        1.79785         4.44313         1.72182 
        1.80399         4.40766         1.70773 
        1.81012         4.39373         1.69382 
        1.81625         4.36893         1.68007 
        1.82239         4.35229         1.66645 
        1.82853         4.32555         1.65299 
        1.83466         4.29228         1.63969 
        1.84078         4.27459         1.62655 
        1.84692         4.25748         1.61354 
        1.85306         4.23591         1.60065 
         1.8592         4.22189         1.58792 
        1.86533         4.19813         1.57534 
        1.87147         4.17878         1.56288 
        1.87761         4.16476         1.55055 
        1.88375         4.13736         1.53837 
        1.88988         4.11779         1.52633 
        1.89601         4.09197         1.51442 
        1.90215         4.06621         1.50262 
        1.90829         4.06458         1.49096 
        1.91442          4.0325         1.47941 
        1.92056         4.02512           1.468 
         1.9267         3.99799          1.4567 
        1.93284         3.99012         1.44551 
        1.93897         3.95583         1.43446 
        1.94509          3.9397         1.42355 
        1.95123         3.92415         1.41273 
        1.95737         3.90869         1.40201 
        1.96349         3.88134         1.39143 
        1.96964         3.86751         1.38092 
        1.97578         3.85256         1.37052 
        1.98192         3.82725         1.36025 
        1.98805         3.81829         1.35009 
        1.99419         3.79963         1.34002 
        2.00033         3.76908         1.33006 
        2.00647         3.76728          1.3202 
         2.0126         3.74767         1.31045 
        2.01874         3.73579         1.30079 
        2.02488         3.71351         1.29122 
        2.03101         3.69062         1.28176 
        2.03714           3.683         1.27241 
        2.04328         3.66476         1.26314 
        2.04941         3.64785         1.25397 
        2.05554         3.63631         1.24489 
        2.06167          3.6127          1.2359 
        2.06781         3.60196         1.22699 
        2.07396         3.58185         1.21816 
        2.08009         3.57402         1.20943 
        2.08622         3.55759         1.20079 
        2.09237         3.55014         1.19222 
        2.09851         3.51955         1.18374 
        2.10464         3.51034         1.17535 
        2.11077         3.50282         1.16705 
        2.11691         3.48067         1.15882 
        2.12305         3.46264         1.15066 
        2.12918         3.45078          1.1426 
        2.13531         3.43435         1.13462 
        2.14145         3.42457          1.1267 
         2.1476         3.40094         1.11884 
        2.15372          3.3918          1.1111 
        2.15985         3.37856         1.10342 
        2.16599         3.36817          1.0958 
        2.17213         3.35504         1.08825 
        2.17827         3.33302         1.08078 
         2.1844         3.31902         1.07338 
        2.19054         3.30912         1.06605 
        2.19666         3.29686          1.0588 
         2.2028         3.27358         1.05161 
        2.20893         3.27052         1.04449 
        2.21508         3.25917         1.03742 
        2.22122         3.23627         1.03042 
        2.22736         3.22746         1.02349 
        2.23349          3.2115         1.01663 
        2.23962          3.2062         1.00983 
        2.24577         3.18506         1.00308 
         2.2519         3.17523        0.996409 
        2.25802          3.1626        0.989807 
        2.26417         3.15021        0.983246 
        2.27031         3.13566        0.976738 
        2.27644         3.12614        0.970309 
        2.28257         3.11177        0.963937 
        2.28872         3.10202        0.957611 
        2.29486         3.08521        0.951343 
        2.30099         3.07311        0.945144 
        2.30712         3.06579        0.938997 
        2.31326         3.05281        0.932894 
         2.3194         3.03977         0.92685 
        2.32553         3.03207        0.920869 
        2.33166         3.02314        0.914944 
         2.3378          3.0091        0.909062 
        2.34394         2.99348        0.903231 
        2.35007         2.97795        0.897459 
        2.35619         2.97354        0.891744 
        2.36233         2.96073        0.886066 
        2.36848         2.95167        0.880425 
        2.37462         2.94067        0.874846 
        2.38075         2.93163         0.86932 
        2.38689         2.91991        0.863837 
        2.39303         2.90898        0.858403 
        2.39916          2.8947        0.853021 
        2.40529         2.88491        0.847685 
        2.41143         2.87895        0.842391 
        2.41757         2.87034         0.83714 
         2.4237         2.85354        0.831944 
        2.42983         2.84984        0.826792 
        2.43598         2.83855         0.82167 
        2.44211         2.82268          0.8166 
        2.44823         2.81479        0.811584 
        2.45437         2.80152        0.806596 
        2.46052         2.79352        0.801647 
        2.46665         2.78681        0.796747 
        2.47279         2.76876        0.791891 
        2.47892         2.76494        0.787071 
        2.48507         2.75288        0.782287 
         2.4912         2.74815        0.777552 
