# k  (h/Mpc)    Pcb(k)  (Mpc/h)^3    Pcb_linear(k)  (Mpc/h)^3
     0.00783031         3230.78         3251.49 
       0.013688         3933.16         3989.55 
       0.019231         4024.43         4051.99 
      0.0249154         3789.57         3783.61 
      0.0312784         3319.95         3328.78 
      0.0375637         2863.69         2880.89 
      0.0433917         2538.07         2536.51 
      0.0492413         2265.16         2273.95 
      0.0555754         2070.31         2066.54 
      0.0619321         1878.52         1906.28 
       0.067871         1762.02          1771.3 
      0.0738098         1629.07         1633.08 
      0.0800417         1481.04          1479.6 
      0.0862327         1322.14         1325.14 
      0.0921407         1186.01         1187.02 
      0.0982031         1071.87         1064.71 
       0.104506         961.299         963.758 
       0.110769         889.192         888.851 
       0.116806         844.709          834.93 
       0.122832         793.379         791.332 
       0.129052         754.698         749.421 
       0.135211         716.697         705.778 
       0.141259         665.398          659.23 
       0.147318         611.843         610.425 
       0.153489         568.178           561.8 
       0.159709         530.309         517.445 
       0.165845         485.357         480.533 
       0.171974         466.771         450.962 
       0.178125         443.564         427.533 
       0.184229          418.25         408.433 
        0.19034         405.654         391.184 
       0.196428         388.988         374.036 
       0.202534         364.237          355.91 
       0.208729         351.555         336.562 
       0.214876         335.035         317.141 
       0.220989         311.014         298.628 
       0.227147         300.828         281.697 
        0.23329         287.426         267.021 
       0.239377         277.588         254.663 
       0.245482         264.137         244.053 
       0.251667         252.761         234.504 
       0.257832         248.343         225.546 
       0.263955          235.04         216.731 
       0.270079         225.978         207.792 
        0.27624         215.672         198.721 
       0.282372         208.218          189.83 
        0.28843         204.667         181.454 
       0.294538         194.931         173.636 
       0.300721         186.368         166.481 
        0.30691         182.667         160.051 
       0.313033         175.079         154.293 
       0.319153          171.79         148.954 
       0.325316         165.096          143.83 
        0.33145         159.846         138.851 
       0.337538         154.706         133.984 
       0.343633         149.973          129.19 
       0.349808         145.042         124.476 
       0.355968         140.839         119.979 
       0.362074         137.849          115.78 
       0.368217         134.245         111.841 
       0.374374         131.042         108.163 
       0.380519         125.448          104.73 
       0.386598         122.422         101.514 
       0.392688         118.875         98.4254 
        0.39888         116.636         95.3883 
       0.405048         113.903          92.446 
       0.411186          111.39         89.6032 
       0.417313         108.374           86.86 
       0.423458         105.478          84.217 
       0.429607          103.47         81.6945 
       0.435692         101.703         79.3219 
       0.441815         98.2446         77.0513 
       0.447964         95.3128         74.8804 
       0.454126         93.5676         72.7994 
       0.460267         92.7405         70.8039 
       0.466387         90.3531          68.883 
        0.47254         89.1808         67.0144 
       0.478662         86.1224         65.2142 
       0.484765         84.6341          63.479 
       0.490885         82.4398         61.8014 
       0.497035         81.6333           60.18 
       0.503198         79.6556         58.6191 
       0.509342         77.6044         57.1238 
       0.515458         76.6434         55.6929 
       0.521598         74.7664         54.3091 
       0.527764          73.846         52.9674 
       0.533884         72.8468         51.6789 
           0.54         71.0656         50.4323 
       0.546137         69.1411         49.2209 
       0.552299         68.0363         48.0435 
       0.558452         66.6964          46.906 
       0.564573         66.3238         45.8113 
       0.570708         64.3651         44.7508 
       0.576825         63.6918         43.7289 
       0.582926          62.813         42.7432 
       0.589034         61.6311         41.7877 
       0.595184         60.8052         40.8554 
       0.601379         59.2278         39.9451 
       0.607522         58.3387         39.0696 
       0.613639         57.6894         38.2239 
       0.619772         56.6208          37.401 
       0.625918         55.7371         36.6007 
       0.632068         55.1534         35.8235 
       0.638161         54.0631          35.076 
         0.6443         53.4819          34.345 
       0.650464         52.2511         33.6326 
       0.656582         51.9819         32.9461 
       0.662703         51.3286         32.2788 
       0.668861         50.0706         31.6263 
       0.675024         49.7403         30.9914 
       0.681124         49.1841         30.3803 
       0.687237          48.186         29.7845 
       0.693381         47.5634         29.2018 
       0.699536          47.198         28.6339 
       0.705665         46.3783         28.0837 
       0.711789         45.6574         27.5487 
       0.717957         44.9136         27.0241 
        0.72409         44.4804         26.5163 
       0.730186         44.2417         26.0247 
       0.736317         43.4057         25.5431 
       0.742472         42.8997         25.0719 
       0.748622         42.2501         24.6131 
        0.75476         41.4413         24.1669 
       0.760888         41.3789         23.7324 
       0.767043         40.6191          23.307 
       0.773185         40.2248          22.893 
       0.779291         39.7211         22.4915 
       0.785407         39.1303         22.0992 
       0.791564          39.075         21.7138 
       0.797719         38.3167         21.3379 
       0.803834         38.0584         20.9733 
       0.809972          37.476         20.6161 
       0.816124         37.0993         20.2664 
       0.822261         36.6702         19.9259 
       0.828378         36.4093         19.5942 
       0.834502         35.9951         19.2699 
       0.840667         35.6597         18.9508 
       0.846816         34.9903           18.64 
       0.852925          34.874          18.338 
       0.859047         34.6056         18.0422 
       0.865192         34.0664          17.752 
       0.871341         33.6714          17.468 
       0.877463         33.3679         17.1916 
       0.883569          33.211         16.9218 
       0.889708         32.7711         16.6565 
       0.895864         32.3835         16.3962 
       0.902008         32.0366         16.1421 
       0.908149         31.7364         15.8935 
       0.914301         31.5343         15.6498 
       0.920448         31.1645         15.4115 
       0.926574         30.7842          15.179 
       0.932687          30.517         14.9518 
       0.938823         30.1457         14.7284 
       0.944975         29.9169         14.5092 
       0.951105         29.6642         14.2952 
       0.957225         29.4773         14.0859 
       0.963368         29.0796         13.8801 
       0.969511         28.8419         13.6785 
       0.975621         28.6081         13.4819 
       0.981748         28.2769         13.2888 
       0.987916          28.112         13.0982 
        0.99406         27.7608         12.9121 
        1.00019         27.5999           12.73 
        1.00632         27.3708         12.5516 
        1.01246         27.1384         12.3764 
        1.01859         26.8478         12.2049 
        1.02471         26.6183         12.0368 
        1.03085         26.5098         11.8713 
        1.03698         26.2893         11.7093 
        1.04314         26.0151         11.5497 
        1.04929         25.7277         11.3934 
        1.05541         25.6373         11.2407 
        1.06154           25.46         11.0903 
        1.06769         25.1216         10.9426 
        1.07382         24.9377          10.798 
        1.07993         24.7216         10.6564 
        1.08607         24.5785         10.5167 
        1.09222         24.3636         10.3794 
        1.09836         24.1471         10.2447 
        1.10449         24.0214         10.1126 
        1.11063         23.8335         9.98269 
        1.11677         23.7578          9.8551 
         1.1229         23.5049         9.72997 
        1.12903         23.3125         9.60691 
        1.13518         23.1669         9.48588 
        1.14131         23.0046         9.36701 
        1.14745         22.7239         9.25025 
        1.15359         22.5358         9.13546 
        1.15973         22.3977         9.02258 
        1.16584         22.2301         8.91212 
        1.17197          22.004         8.80335 
        1.17811         21.9044         8.69608 
        1.18424         21.7092         8.59091 
        1.19038         21.6298         8.48718 
        1.19652         21.4142         8.38521 
        1.20267         21.3171         8.28493 
        1.20881         21.1133         8.18631 
        1.21495         20.9924         8.08945 
        1.22108         20.9351         7.99419 
         1.2272         20.7638         7.90069 
        1.23334         20.6236         7.80848 
        1.23949          20.457         7.71753 
        1.24562         20.2513         7.62828 
        1.25174         20.1937         7.54059 
        1.25789         20.0684         7.45401 
        1.26402         19.9536         7.36895 
        1.27014         19.8381         7.28543 
        1.27628         19.6231         7.20297 
        1.28244         19.6204         7.12162 
        1.28858         19.4022         7.04164 
        1.29471         19.2228         6.96308 
        1.30084         19.1111         6.88579 
        1.30697         19.0514         6.80956 
        1.31312         18.8854         6.73437 
        1.31925         18.7846         6.66056 
        1.32537         18.6399         6.58793 
        1.33151         18.5273         6.51613 
        1.33765          18.471         6.44544 
        1.34378         18.3576         6.37594 
        1.34992         18.2332         6.30743 
        1.35606         18.0651         6.23977 
         1.3622         17.9446         6.17323 
        1.36833         17.9097         6.10782 
        1.37445         17.7987         6.04339 
        1.38059         17.6846          5.9797 
        1.38675         17.5632         5.91678 
        1.39288         17.4323         5.85501 
        1.39901          17.349         5.79415 
        1.40515         17.2557         5.73402 
         1.4113         17.1527         5.67477 
        1.41742         17.0797         5.61659 
        1.42355         16.9309         5.55911 
         1.4297         16.8456         5.50226 
        1.43585          16.762         5.44624 
        1.44198          16.705         5.39121 
        1.44809         16.5847         5.33704 
        1.45423         16.4787         5.28342 
        1.46036         16.3874         5.23064 
        1.46649         16.2888         5.17856 
        1.47263         16.2249         5.12715 
        1.47877         16.1343         5.07646 
        1.48491         16.0409         5.02638 
        1.49104         15.9409         4.97708 
        1.49718         15.8735         4.92841 
        1.50333         15.7999         4.88031 
        1.50947         15.7182         4.83296 
         1.5156         15.6282          4.7863 
        1.52172         15.5234         4.74026 
        1.52787         15.4707         4.69474 
          1.534          15.395         4.64987 
        1.54013         15.3169         4.60564 
        1.54627         15.1965          4.5619 
        1.55241         15.0999         4.51872 
        1.55855         15.0552         4.47617 
        1.56467         15.0077         4.43428 
         1.5708         14.9321         4.39281 
        1.57695         14.8357         4.35181 
        1.58308         14.7299         4.31143 
        1.58922          14.678         4.27153 
        1.59535         14.6013         4.23216 
         1.6015           14.48         4.19322 
        1.60764         14.4408          4.1548 
        1.61376         14.3955         4.11696 
        1.61989         14.2833         4.07956 
        1.62604         14.2512         4.04255 
        1.63218         14.1822         4.00601 
        1.63831          14.074         3.97001 
        1.64444         14.0022         3.93444 
        1.65059         13.9334         3.89922 
        1.65673         13.9016         3.86448 
        1.66285         13.7921         3.83025 
        1.66898         13.7767         3.79642 
        1.67512         13.7185         3.76294 
        1.68127         13.6004         3.72984 
         1.6874         13.5781          3.6972 
        1.69353         13.4537         3.66498 
        1.69967          13.414         3.63306 
        1.70581         13.3698         3.60154 
        1.71193         13.2892         3.57051 
        1.71806         13.2465         3.53978 
        1.72421         13.1702         3.50936 
        1.73035         13.1084         3.47932 
        1.73649         13.0724         3.44965 
        1.74262         12.9514         3.42034 
        1.74876         12.9416         3.39136 
        1.75489         12.8859         3.36277 
        1.76101         12.7915         3.33452 
        1.76715         12.7646         3.30656 
        1.77329         12.6939         3.27888 
        1.77943         12.6141         3.25151 
        1.78557         12.6034          3.2245 
        1.79171         12.5147         3.19778 
        1.79785         12.4855         3.17137 
        1.80399         12.3973         3.14525 
        1.81012         12.3683         3.11947 
        1.81625         12.2841         3.09399 
        1.82239         12.2378         3.06875 
        1.82853         12.1755         3.04381 
        1.83466          12.103         3.01917 
        1.84078         12.0829         2.99483 
        1.84692         12.0596         2.97072 
        1.85306         11.9935         2.94684 
         1.8592         11.9395         2.92327 
        1.86533         11.8596         2.89996 
        1.87147         11.8156         2.87688 
        1.87761         11.7725         2.85405 
        1.88375         11.7322         2.83148 
        1.88988         11.6467         2.80919 
        1.89601           11.63         2.78712 
        1.90215         11.5556         2.76528 
        1.90829         11.5009         2.74367 
        1.91442         11.4498          2.7223 
        1.92056         11.4547         2.70117 
         1.9267         11.3836         2.68025 
        1.93284         11.3625         2.65953 
        1.93897         11.2755         2.63908 
        1.94509         11.2363         2.61888 
        1.95123         11.1983         2.59884 
        1.95737         11.1622           2.579 
        1.96349         11.0753         2.55942 
        1.96964         11.0459         2.53998 
        1.97578         11.0217         2.52074 
        1.98192         10.9672         2.50174 
        1.98805         10.9138         2.48293 
        1.99419         10.8742         2.46431 
        2.00033         10.8387         2.44587 
        2.00647         10.7849         2.42763 
         2.0126         10.7542          2.4096 
        2.01874          10.681         2.39173 
        2.02488         10.6468         2.37403 
        2.03101         10.6258         2.35654 
        2.03714         10.5672         2.33924 
        2.04328         10.5068         2.32209 
        2.04941         10.4658         2.30513 
        2.05554          10.453         2.28835 
        2.06167         10.4126         2.27172 
        2.06781         10.3575         2.25525 
        2.07396         10.3405         2.23892 
        2.08009          10.251         2.22278 
        2.08622         10.2602         2.20682 
        2.09237         10.2195         2.19098 
        2.09851         10.1489          2.1753 
        2.10464         10.1367         2.15979 
        2.11077         10.0626         2.14446 
        2.11691         10.0603         2.12924 
        2.12305         9.99921         2.11416 
        2.12918         9.93842         2.09927 
        2.13531         9.92701         2.08452 
        2.14145          9.8824         2.06988 
         2.1476         9.85168         2.05536 
        2.15372         9.81649         2.04106 
        2.15985         9.77541         2.02688 
        2.16599         9.74368         2.01279 
        2.17213         9.73299         1.99885 
        2.17827         9.66984         1.98504 
         2.1844         9.64314         1.97138 
        2.19054         9.61511         1.95784 
        2.19666         9.57668         1.94445 
         2.2028         9.53996         1.93117 
        2.20893         9.49204           1.918 
        2.21508         9.47114         1.90495 
        2.22122         9.40766         1.89201 
        2.22736         9.38832         1.87922 
        2.23349         9.35491         1.86655 
        2.23962         9.33169           1.854 
        2.24577         9.30431         1.84154 
         2.2519         9.27683         1.82922 
        2.25802         9.18928         1.81703 
        2.26417          9.2025         1.80492 
        2.27031         9.16022          1.7929 
        2.27644         9.13402         1.78104 
        2.28257         9.06574         1.76927 
        2.28872         9.05805          1.7576 
        2.29486         9.02565         1.74603 
        2.30099         9.00712         1.73459 
        2.30712         8.94158         1.72324 
        2.31326          8.9081         1.71198 
         2.3194         8.88898         1.70083 
        2.32553         8.85575         1.68979 
        2.33166         8.81901         1.67886 
         2.3378         8.80048           1.668 
        2.34394         8.76822         1.65724 
        2.35007         8.73528         1.64659 
        2.35619         8.70264         1.63605 
        2.36233         8.65697         1.62557 
        2.36848         8.63838         1.61517 
        2.37462         8.61069         1.60488 
        2.38075         8.58606         1.59468 
        2.38689         8.56473         1.58457 
        2.39303         8.50842         1.57455 
        2.39916         8.49702         1.56462 
        2.40529         8.46945         1.55478 
        2.41143         8.42777         1.54502 
        2.41757         8.39474         1.53533 
         2.4237         8.38308         1.52575 
        2.42983         8.34997         1.51625 
        2.43598         8.32135          1.5068 
        2.44211           8.295         1.49746 
        2.44823         8.25973         1.48821 
        2.45437         8.22834         1.47901 
        2.46052         8.22316         1.46989 
        2.46665         8.18764         1.46086 
        2.47279         8.15866          1.4519 
        2.47892         8.11568         1.44302 
        2.48507         8.09569          1.4342 
         2.4912         8.07228         1.42547 
