# k  (h/Mpc)    P(k)  (Mpc/h)^3    P_linear(k)  (Mpc/h)^3
     0.00783031         6699.38         6758.37 
       0.013688         7982.25         8144.06 
       0.019231         7949.28         8033.34 
      0.0249154         7211.92         7194.47 
      0.0312784         5966.31         5986.55 
      0.0375637          4870.5         4907.74 
      0.0433917         4162.85         4156.82 
      0.0492413         3636.62         3650.02 
      0.0555754         3321.41         3309.58 
      0.0619321          3026.3         3083.55 
       0.067871         2872.18         2892.62 
      0.0738098         2662.82         2670.56 
      0.0800417         2395.74          2391.7 
      0.0862327         2089.85          2091.4 
      0.0921407         1828.06         1819.37 
      0.0982031         1615.79         1586.12 
       0.104506         1420.41         1408.64 
       0.110769          1312.3         1294.92 
       0.116806          1260.7         1228.64 
       0.122832         1199.25         1183.77 
       0.129052         1153.38         1138.27 
       0.135211         1106.68         1079.17 
       0.141259         1020.76         1003.39 
       0.147318          927.43         915.394 
       0.153489         847.865         824.584 
       0.159709         783.645          743.34 
       0.165845         707.884         680.413 
       0.171974         683.371         636.171 
       0.178125         653.793         607.246 
       0.184229         618.178         587.805 
        0.19034         606.991         570.753 
       0.196428         587.083         550.626 
       0.202534         547.226         524.491 
       0.208729         529.712         492.306 
       0.214876         500.666         457.655 
       0.220989         461.145         424.335 
       0.227147         444.087          395.15 
        0.23329         423.294         372.086 
       0.239377         412.348         355.151 
       0.245482         392.448         342.698 
       0.251667         377.655         332.511 
       0.257832         373.803         322.569 
       0.263955         353.438         311.351 
       0.270079         339.245          298.18 
        0.27624         323.656         283.395 
       0.282372         312.819         268.217 
        0.28843         307.782         253.951 
       0.294538         291.289         241.266 
       0.300721         279.693         230.579 
        0.30691         274.779         221.972 
       0.313033         262.569         214.939 
       0.319153         258.257         208.678 
       0.325316         250.962         202.419 
        0.33145         243.736         195.809 
       0.337538         234.954         188.697 
       0.343633         227.284         181.231 
       0.349808         220.092         173.643 
       0.355968         214.524         166.455 
       0.362074         208.633         160.002 
       0.368217         204.778         154.294 
       0.374374          199.48         149.331 
       0.380519         191.193         144.918 
       0.386598         187.777          140.86 
       0.392688         182.318         136.878 
        0.39888         178.624          132.75 
       0.405048         174.512         128.547 
       0.411186         171.981         124.305 
       0.417313         167.849         120.128 
       0.423458         163.361         116.133 
       0.429607         159.393         112.408 
       0.435692         156.696         109.024 
       0.441815         152.636         105.921 
       0.447964         148.113         103.032 
       0.454126         145.515         100.281 
       0.460267         144.005         97.6195 
       0.466387         140.504         94.9984 
        0.47254         138.843          92.363 
       0.478662         134.149         89.7664 
       0.484765         132.233         87.2415 
       0.490885         129.513         84.8046 
       0.497035          128.19         82.4722 
       0.503198         125.803         80.2707 
       0.509342         122.469         78.2121 
       0.515458         120.739         76.2699 
       0.521598          117.72         74.3974 
       0.527764         116.538         72.5712 
       0.533884         115.709         70.8025 
           0.54         112.555         69.0719 
       0.546137         109.945         67.3669 
       0.552299         108.319         65.6954 
       0.558452         106.367         64.0803 
       0.564573         105.833         62.5382 
       0.570708         102.839         61.0618 
       0.576825         101.692         59.6514 
       0.582926          100.52         58.2979 
       0.589034         98.7432         56.9884 
       0.595184         97.5799         55.7104 
       0.601379           95.38         54.4604 
       0.607522          93.584         53.2536 
       0.613639         92.8193         52.0813 
       0.619772         91.2076         50.9348 
       0.625918         90.4795         49.8176 
       0.632068          88.594         48.7339 
       0.638161         87.3516         47.6963 
         0.6443          86.801          46.688 
       0.650464         84.8963         45.7102 
       0.656582         84.5378           44.77 
       0.662703          83.372         43.8563 
       0.668861         81.5565          42.961 
       0.675024          81.473         42.0869 
       0.681124         80.0966         41.2437 
       0.687237         78.7023         40.4208 
       0.693381         77.9896         39.6163 
       0.699536           77.06         38.8331 
       0.705665         76.0276         38.0761 
       0.711789         74.9606         37.3413 
       0.717957         73.9738         36.6218 
        0.72409         73.2915         35.9258 
       0.730186         72.8583         35.2523 
       0.736317         71.5978         34.5921 
       0.742472         70.5839         33.9458 
       0.748622         69.5546         33.3162 
        0.75476         69.2217         32.7037 
       0.760888         68.7847         32.1075 
       0.767043         67.3425         31.5238 
       0.773185         66.4955          30.956 
       0.779291         65.7797         30.4059 
       0.785407         65.0631         29.8686 
       0.791564         64.8819         29.3413 
       0.797719         63.8417         28.8272 
       0.803834         63.3966         28.3288 
       0.809972         62.7965         27.8406 
       0.816124         61.9864         27.3628 
       0.822261         61.1615         26.8976 
       0.828378         60.9985         26.4445 
       0.834502         60.1655         26.0014 
       0.840667         59.7036         25.5656 
       0.846816         59.0894          25.141 
       0.852925         58.3677         24.7287 
       0.859047         58.2287         24.3249 
       0.865192         57.3109         23.9288 
       0.871341         56.6712         23.5413 
       0.877463         56.2097         23.1642 
       0.883569         56.0913         22.7965 
       0.889708         55.4609         22.4349 
       0.895864         55.0031         22.0802 
       0.902008          54.409         21.7341 
       0.908149         53.7541         21.3956 
       0.914301         53.4514         21.0638 
       0.920448         53.2855         20.7395 
       0.926574         52.2452         20.4231 
       0.932687         51.9728          20.114 
       0.938823         51.5141         19.8103 
       0.944975         50.9022         19.5121 
       0.951105         50.5332         19.2212 
       0.957225          50.274         18.9367 
       0.963368          49.813         18.6571 
       0.969511         49.3904         18.3831 
       0.975621         48.9815         18.1162 
       0.981748         48.5242         17.8538 
       0.987916         48.1253         17.5951 
        0.99406         47.8325         17.3424 
        1.00019         47.2828         17.0952 
        1.00632         46.9533         16.8531 
        1.01246          46.608         16.6154 
        1.01859         46.3616         16.3826 
        1.02471         45.8628         16.1546 
        1.03085         45.5523         15.9301 
        1.03698         45.2978         15.7105 
        1.04314         44.9015          15.494 
        1.04929         44.4447         15.2822 
        1.05541         44.2946         15.0751 
        1.06154         43.9531         14.8714 
        1.06769         43.4368         14.6712 
        1.07382         43.1302         14.4754 
        1.07993         42.9478         14.2835 
        1.08607         42.5766         14.0944 
        1.09222         42.3753         13.9085 
        1.09836         42.0227         13.7262 
        1.10449         41.7978         13.5474 
        1.11063         41.4004         13.3716 
        1.11677         41.2925          13.199 
         1.1229         40.8511         13.0297 
        1.12903           40.64         12.8633 
        1.13518         40.5182         12.6997 
        1.14131         40.0829          12.539 
        1.14745         39.7716         12.3812 
        1.15359         39.3506          12.226 
        1.15973         39.3355         12.0735 
        1.16584         39.0096         11.9243 
        1.17197         38.5614         11.7774 
        1.17811         38.4284         11.6325 
        1.18424         37.8923         11.4905 
        1.19038          37.816         11.3505 
        1.19652          37.641         11.2129 
        1.20267         37.3913         11.0775 
        1.20881         37.1221         10.9444 
        1.21495         36.9997         10.8137 
        1.22108         36.8752         10.6852 
         1.2272         36.4596         10.5591 
        1.23334         36.2816         10.4347 
        1.23949         36.0398          10.312 
        1.24562         35.7879         10.1917 
        1.25174         35.5667         10.0734 
        1.25789         35.4528         9.95672 
        1.26402         35.1914         9.84205 
        1.27014         35.0629         9.72948 
        1.27628         34.6791         9.61833 
        1.28244         34.6871         9.50872 
        1.28858           34.34         9.40096 
        1.29471          34.091         9.29511 
        1.30084         33.8627           9.191 
        1.30697          33.838         9.08832 
        1.31312         33.5234         8.98707 
        1.31925         33.2489         8.88769 
        1.32537         33.0758          8.7899 
        1.33151         32.8575         8.69325 
        1.33765         32.7873          8.5981 
        1.34378         32.6284         8.50457 
        1.34992          32.346         8.41237 
        1.35606         32.1038         8.32134 
         1.3622         31.9981         8.23182 
        1.36833          31.885         8.14384 
        1.37445         31.5607         8.05719 
        1.38059         31.4594         7.97154 
        1.38675         31.2117         7.88693 
        1.39288         31.1153         7.80389 
        1.39901         30.8824         7.72209 
        1.40515         30.7702         7.64127 
         1.4113          30.711         7.56165 
        1.41742         30.4825         7.48347 
        1.42355         30.2198         7.40624 
         1.4297         30.1314         7.32988 
        1.43585         29.9441         7.25462 
        1.44198         29.7548         7.18071 
        1.44809         29.5729         7.10797 
        1.45423         29.4872         7.03597 
        1.46036         29.3759          6.9651 
        1.46649          29.159         6.89518 
        1.47263         28.9776         6.82617 
        1.47877         28.8444         6.75814 
        1.48491         28.7173         6.69092 
        1.49104         28.5017         6.62477 
        1.49718         28.4716         6.55945 
        1.50333         28.3193         6.49492 
        1.50947         28.0999         6.43139 
         1.5156         28.0051          6.3688 
        1.52172         27.8014         6.30704 
        1.52787         27.7373         6.24598 
          1.534         27.5121          6.1858 
        1.54013          27.532         6.12647 
        1.54627         27.2686         6.06782 
        1.55241         27.1379         6.00993 
        1.55855         27.0331         5.95287 
        1.56467         26.8723         5.89671 
         1.5708         26.7759         5.84112 
        1.57695         26.6722         5.78617 
        1.58308          26.419         5.73204 
        1.58922           26.32         5.67858 
        1.59535         26.2284         5.62581 
         1.6015         26.1762         5.57365 
        1.60764         25.9593         5.52217 
        1.61376         25.8416         5.47148 
        1.61989         25.6437         5.42139 
        1.62604         25.5549         5.37182 
        1.63218         25.4328         5.32289 
        1.63831         25.3456         5.27469 
        1.64444         25.2232         5.22707 
        1.65059         25.0932         5.17992 
        1.65673         24.9929         5.13341 
        1.66285         24.9119          5.0876 
        1.66898         24.7423         5.04233 
        1.67512         24.6919         4.99753 
        1.68127           24.53         4.95323 
         1.6874         24.4145         4.90956 
        1.69353         24.3193         4.86646 
        1.69967         24.2074         4.82376 
        1.70581          24.068          4.7816 
        1.71193         23.9525          4.7401 
        1.71806         23.8777           4.699 
        1.72421          23.778         4.65831 
        1.73035         23.6358         4.61815 
        1.73649         23.4875         4.57848 
        1.74262         23.3778         4.53929 
        1.74876         23.3626         4.50055 
        1.75489         23.1953         4.46233 
        1.76101         23.1032         4.42457 
        1.76715         23.0073         4.38719 
        1.77329         22.8368          4.3502 
        1.77943          22.795         4.31362 
        1.78557         22.7217         4.27751 
        1.79171         22.6121         4.24181 
        1.79785         22.4962         4.20651 
        1.80399         22.3679         4.17162 
        1.81012         22.3376         4.13717 
        1.81625         22.1481         4.10313 
        1.82239         22.0707         4.06942 
        1.82853         21.9817          4.0361 
        1.83466         21.8797         4.00319 
        1.84078         21.7623         3.97068 
        1.84692         21.7038         3.93848 
        1.85306         21.5755          3.9066 
         1.8592         21.5569         3.87512 
        1.86533         21.4162         3.84401 
        1.87147          21.296          3.8132 
        1.87761         21.2015         3.78271 
        1.88375         21.1462          3.7526 
        1.88988         21.0543         3.72284 
        1.89601         20.9367         3.69339 
        1.90215         20.8391         3.66424 
        1.90829         20.8045         3.63541 
        1.91442         20.6482          3.6069 
        1.92056         20.5982         3.57871 
         1.9267         20.5129          3.5508 
        1.93284         20.4676         3.52316 
        1.93897         20.3631         3.49588 
        1.94509         20.2693         3.46894 
        1.95123         20.1677         3.44221 
        1.95737         20.0734         3.41575 
        1.96349         20.0194         3.38964 
        1.96964         19.9766         3.36372 
        1.97578         19.8188         3.33807 
        1.98192         19.7529         3.31273 
        1.98805         19.6215         3.28765 
        1.99419         19.5953         3.26283 
        2.00033         19.4837         3.23826 
        2.00647         19.4368         3.21394 
         2.0126          19.313         3.18992 
        2.01874         19.2573          3.1661 
        2.02488         19.1425         3.14251 
        2.03101         19.0601          3.1192 
        2.03714         19.0121         3.09614 
        2.04328         18.9294          3.0733 
        2.04941          18.838          3.0507 
        2.05554         18.7904         3.02835 
        2.06167          18.715         3.00619 
        2.06781         18.6515         2.98425 
        2.07396         18.5731         2.96249 
        2.08009         18.4515           2.941 
        2.08622         18.4214         2.91973 
        2.09237           18.37         2.89864 
        2.09851         18.2623         2.87775 
        2.10464         18.1413          2.8571 
        2.11077         18.1194         2.83668 
        2.11691         18.0294         2.81642 
        2.12305         17.9785         2.79635 
        2.12918         17.9027         2.77652 
        2.13531         17.8453         2.75689 
        2.14145         17.7385          2.7374 
         2.1476         17.6363         2.71807 
        2.15372         17.6318         2.69903 
        2.15985         17.5388         2.68015 
        2.16599         17.4504          2.6614 
        2.17213         17.4007         2.64285 
        2.17827         17.3095         2.62448 
         2.1844         17.2516          2.6063 
        2.19054         17.2414         2.58828 
        2.19666         17.1182         2.57046 
         2.2028         17.1033          2.5528 
        2.20893         16.9781         2.53529 
        2.21508         16.9191         2.51792 
        2.22122         16.8341         2.50071 
        2.22736         16.8329          2.4837 
        2.23349         16.7084         2.46685 
        2.23962         16.6703         2.45015 
        2.24577         16.6007         2.43358 
         2.2519         16.5379          2.4172 
        2.25802         16.4343         2.40099 
        2.26417         16.4179         2.38488 
        2.27031         16.3376         2.36891 
        2.27644         16.2952         2.35312 
        2.28257         16.2126         2.33749 
        2.28872         16.2077         2.32197 
        2.29486         16.1228         2.30659 
        2.30099         16.0199         2.29138 
        2.30712         15.9977          2.2763 
        2.31326         15.8992         2.26133 
         2.3194         15.8437          2.2465 
        2.32553         15.8042         2.23184 
        2.33166         15.7039          2.2173 
         2.3378         15.6769         2.20288 
        2.34394         15.5923         2.18859 
        2.35007         15.5623         2.17443 
        2.35619         15.5249         2.16043 
        2.36233         15.4013         2.14651 
        2.36848         15.3622         2.13268 
        2.37462         15.3116         2.11901 
        2.38075          15.275         2.10547 
        2.38689         15.1894         2.09203 
        2.39303         15.1327         2.07872 
        2.39916         15.0616         2.06553 
        2.40529          15.038         2.05246 
        2.41143         14.9479          2.0395 
        2.41757         14.8835         2.02664 
         2.4237         14.8463         2.01391 
        2.42983         14.8046          2.0013 
        2.43598         14.7334         1.98875 
        2.44211         14.6942         1.97634 
        2.44823         14.6189         1.96406 
        2.45437          14.605         1.95186 
        2.46052         14.5157         1.93974 
        2.46665         14.5069         1.92775 
        2.47279         14.4098         1.91586 
        2.47892          14.351         1.90407 
        2.48507         14.3085         1.89237 
         2.4912         14.2403         1.88078 
