# k  (h/Mpc)    P(k)  (Mpc/h)^3    P_linear(k)  (Mpc/h)^3
     0.00783031         13402.1         13440.5 
       0.013688         17103.6         17545.6 
       0.019231         18364.5         18660.5 
      0.0249154         18085.7         18120.2 
      0.0312784         16250.3         16512.7 
      0.0375637         14290.4         14659.4 
      0.0433917         12917.9         13110.6 
      0.0492413         11575.4         11871.2 
      0.0555754           10666         10878.3 
      0.0619321         9612.64         10137.2 
       0.067871         9177.61         9548.24 
      0.0738098         8672.59         8958.42 
      0.0800417         8017.61         8282.94 
      0.0862327         7281.18         7557.18 
      0.0921407         6642.43         6856.89 
      0.0982031         6090.45         6187.93 
       0.104506         5452.59         5595.53 
       0.110769          5042.6         5133.72 
       0.116806          4815.1         4801.35 
       0.122832         4524.05         4552.67 
       0.129052         4300.02         4344.33 
       0.135211         4188.45         4148.67 
       0.141259         3913.08         3941.38 
       0.147318         3648.95         3709.68 
       0.153489          3458.5         3455.65 
       0.159709         3323.74         3198.71 
       0.165845         3035.38         2963.71 
       0.171974         2948.88         2761.68 
       0.178125         2851.45         2597.59 
       0.184229         2630.11         2470.22 
        0.19034         2596.95         2368.99 
       0.196428         2530.04         2282.25 
       0.202534         2392.33         2197.99 
       0.208729         2347.64         2107.17 
       0.214876         2254.39         2008.87 
       0.220989         2148.94          1905.1 
       0.227147         2092.86         1799.87 
        0.23329         2012.59          1700.4 
       0.239377         2000.25         1612.19 
       0.245482         1910.17          1536.4 
       0.251667         1841.19         1472.17 
       0.257832          1814.3         1418.12 
       0.263955            1739         1370.49 
       0.270079         1701.08         1325.04 
        0.27624         1631.61         1278.74 
       0.282372         1616.73         1230.71 
        0.28843         1588.66         1181.68 
       0.294538         1520.66         1132.01 
       0.300721         1494.78         1083.42 
        0.30691         1459.09         1038.22 
       0.313033         1407.75         997.905 
       0.319153         1394.56         962.167 
       0.325316         1378.16          930.12 
        0.33145         1351.15         901.089 
       0.337538          1310.2         873.854 
       0.343633         1281.96         847.153 
       0.349808          1261.1         820.092 
       0.355968         1235.95         792.922 
       0.362074         1203.32         766.158 
       0.368217         1200.08         739.877 
       0.374374         1181.88         714.772 
       0.380519         1143.85         691.325 
       0.386598         1140.34         669.863 
       0.392688         1112.19         650.025 
        0.39888         1091.22         631.219 
       0.405048         1072.18         613.508 
       0.411186         1067.16          596.52 
       0.417313          1066.1         579.905 
       0.423458         1033.32          563.51 
       0.429607         1006.64         547.362 
       0.435692         1000.12         531.752 
       0.441815         981.367         516.584 
       0.447964         972.663         502.025 
       0.454126         959.338         488.171 
       0.460267         948.929         475.131 
       0.466387         934.835         462.817 
        0.47254         917.953         450.998 
       0.478662          908.39         439.689 
       0.484765         900.329          428.77 
       0.490885         889.627         418.094 
       0.497035         875.185         407.608 
       0.503198         874.302         397.378 
       0.509342         858.579         387.483 
       0.515458         841.858         377.962 
       0.521598         841.481         368.758 
       0.527764         821.955         359.892 
       0.533884         814.548         351.456 
           0.54         808.683         343.348 
       0.546137         799.125         335.494 
       0.552299         793.573         327.858 
       0.558452         785.908         320.461 
       0.564573         780.004         313.305 
       0.570708         772.665         306.319 
       0.576825         757.178         299.542 
       0.582926         755.723          292.98 
       0.589034         747.124         286.615 
       0.595184         738.639         280.418 
       0.601379          727.52         274.379 
       0.607522         718.506         268.583 
       0.613639         717.824          262.99 
       0.619772         711.761         257.551 
       0.625918          702.37          252.26 
       0.632068         697.816         247.112 
       0.638161         688.736         242.148 
         0.6443         682.827         237.275 
       0.650464         678.089         232.514 
       0.656582         673.136         227.916 
       0.662703         664.293         223.444 
       0.668861         658.067         219.074 
       0.675024         654.231         214.826 
       0.681124         643.471         210.738 
       0.687237         643.744         206.752 
       0.693381         632.925         202.852 
       0.699536         633.363         199.045 
       0.705665         625.619         195.352 
       0.711789         623.718         191.756 
       0.717957         615.734         188.226 
        0.72409         610.681         184.805 
       0.730186         609.181         181.492 
       0.736317         601.487         178.243 
       0.742472         594.188         175.063 
       0.748622         592.455         171.964 
        0.75476         585.736         168.949 
       0.760888         582.951         166.012 
       0.767043         580.551         163.134 
       0.773185          576.37         160.331 
       0.779291          569.55          157.61 
       0.785407          565.64          154.95 
       0.791564         562.102         152.336 
       0.797719         554.154         149.783 
       0.803834         555.289         147.307 
       0.809972         547.713         144.878 
       0.816124         543.823         142.499 
       0.822261         540.624         140.181 
       0.828378         538.262         137.922 
       0.834502          529.88         135.711 
       0.840667         529.202         133.535 
       0.846816         524.186         131.414 
       0.852925         522.874         129.352 
       0.859047         517.999         127.331 
       0.865192         514.977         125.347 
       0.871341         508.916         123.404 
       0.877463         507.978         121.512 
       0.883569          502.56         119.665 
       0.889708         497.595         117.847 
       0.895864         493.207         116.062 
       0.902008         492.504         114.319 
       0.908149         488.096         112.613 
       0.914301           486.4         110.939 
       0.920448         480.582         109.301 
       0.926574          478.52         107.703 
       0.932687         477.126          106.14 
       0.938823         471.097         104.603 
       0.944975         468.832         103.093 
       0.951105         465.819         101.619 
       0.957225         459.312         100.177 
       0.963368         460.525         98.7575 
       0.969511         453.437         97.3661 
       0.975621         452.602         96.0093 
       0.981748         449.766         94.6752 
       0.987916         447.117         93.3583 
        0.99406         442.993         92.0717 
        1.00019         438.698         90.8122 
        1.00632         437.673         89.5776 
        1.01246         434.328         88.3644 
        1.01859         430.409         87.1758 
        1.02471         428.615         86.0108 
        1.03085         426.018         84.8633 
        1.03698         423.893         83.7394 
        1.04314         420.594         82.6313 
        1.04929         418.911          81.546 
        1.05541         413.054         80.4848 
        1.06154         412.409         79.4401 
        1.06769         408.469         78.4125 
        1.07382         405.762         77.4067 
        1.07993          404.73         76.4209 
        1.08607         401.934         75.4484 
        1.09222          398.45          74.492 
        1.09836          396.29         73.5534 
        1.10449         393.081         72.6322 
        1.11063         391.269          71.726 
        1.11677         387.022         70.8356 
         1.1229         386.175          69.962 
        1.12903         382.756         69.1026 
        1.13518         380.892          68.257 
        1.14131         379.248         67.4261 
        1.14745         374.794         66.6097 
        1.15359         372.314         65.8067 
        1.15973         370.822         65.0168 
        1.16584         369.059         64.2435 
        1.17197         366.257         63.4818 
        1.17811         362.322         62.7302 
        1.18424         361.373          61.993 
        1.19038         359.194         61.2657 
        1.19652          355.62         60.5504 
        1.20267         354.694         59.8467 
        1.20881         352.914         59.1544 
        1.21495         349.139         58.4742 
        1.22108          348.33          57.805 
         1.2272         343.266         57.1478 
        1.23334         342.654         56.4995 
        1.23949         340.304         55.8598 
        1.24562         339.876         55.2319 
        1.25174         336.387         54.6146 
        1.25789          333.88          54.005 
        1.26402         332.501         53.4058 
        1.27014         330.989         52.8173 
        1.27628         327.925          52.236 
        1.28244          325.74         51.6623 
        1.28858         324.322         51.0982 
        1.29471         322.671         50.5438 
        1.30084         321.132         49.9982 
        1.30697         317.703         49.4598 
        1.31312         315.794         48.9287 
        1.31925         314.418         48.4072 
        1.32537         312.837         47.8938 
        1.33151         309.919         47.3861 
        1.33765         307.784         46.8861 
        1.34378         305.915         46.3943 
        1.34992         303.421         45.9093 
        1.35606          302.01         45.4302 
         1.3622          300.47         44.9589 
        1.36833         299.387         44.4954 
        1.37445         297.771         44.0387 
        1.38059         294.314         43.5871 
        1.38675         293.082         43.1408 
        1.39288         292.092         42.7026 
        1.39901         289.259         42.2707 
        1.40515         288.019         41.8438 
         1.4113         285.844         41.4231 
        1.41742         283.322         41.0097 
        1.42355         283.232         40.6013 
         1.4297         280.895         40.1973 
        1.43585         278.086         39.7989 
        1.44198         277.224         39.4076 
        1.44809         275.864         39.0222 
        1.45423         273.898         38.6406 
        1.46036         272.593         38.2649 
        1.46649         270.935         37.8941 
        1.47263         268.281         37.5279 
        1.47877         267.233         37.1667 
        1.48491         265.116         36.8098 
        1.49104         263.222         36.4584 
        1.49718         262.217         36.1113 
        1.50333          260.04         35.7682 
        1.50947         259.171         35.4303 
         1.5156         257.042         35.0973 
        1.52172         255.483         34.7686 
        1.52787         253.752         34.4435 
          1.534          253.43          34.123 
        1.54013         251.038         33.8069 
        1.54627         249.679         33.4942 
        1.55241         248.211         33.1855 
        1.55855         246.786         32.8812 
        1.56467         245.171         32.5815 
         1.5708         243.852         32.2847 
        1.57695         242.507         31.9912 
        1.58308         241.336          31.702 
        1.58922         239.359         31.4163 
        1.59535         237.498         31.1342 
         1.6015         236.574         30.8551 
        1.60764         235.007         30.5797 
        1.61376         233.113         30.3084 
        1.61989         231.733         30.0402 
        1.62604         230.323         29.7747 
        1.63218         228.971         29.5125 
        1.63831         228.368         29.2542 
        1.64444         226.247         28.9988 
        1.65059          225.46         28.7459 
        1.65673         223.677         28.4963 
        1.66285          222.51         28.2504 
        1.66898         221.184         28.0074 
        1.67512         219.701         27.7667 
        1.68127         218.631         27.5287 
         1.6874             217          27.294 
        1.69353         216.164         27.0622 
        1.69967         214.627         26.8326 
        1.70581         213.429         26.6057 
        1.71193         212.084         26.3824 
        1.71806         210.416         26.1611 
        1.72421         209.604          25.942 
        1.73035         207.879         25.7256 
        1.73649         206.416         25.5118 
        1.74262         205.729         25.3006 
        1.74876         204.495         25.0916 
        1.75489         203.552         24.8855 
        1.76101         202.436         24.6817 
        1.76715         200.902           24.48 
        1.77329         199.075         24.2803 
        1.77943         198.186         24.0827 
        1.78557         197.335         23.8877 
        1.79171         196.703         23.6947 
        1.79785         195.106         23.5039 
        1.80399         193.838         23.3152 
        1.81012         192.896         23.1289 
        1.81625         191.278         22.9447 
        1.82239         190.451         22.7622 
        1.82853         189.635         22.5819 
        1.83466         187.986         22.4036 
        1.84078          187.15         22.2275 
        1.84692         186.257          22.053 
        1.85306         184.746         21.8802 
         1.8592         184.086         21.7095 
        1.86533         182.266         21.5407 
        1.87147         181.546         21.3735 
        1.87761         180.615         21.2081 
        1.88375         179.145         21.0446 
        1.88988         178.489          20.883 
        1.89601         178.029         20.7231 
        1.90215         176.608         20.5646 
        1.90829         175.206          20.408 
        1.91442         174.555         20.2529 
        1.92056         173.149         20.0997 
         1.9267         172.571         19.9478 
        1.93284         171.304         19.7975 
        1.93897         170.226          19.649 
        1.94509         169.527         19.5023 
        1.95123         168.383         19.3568 
        1.95737          167.85         19.2126 
        1.96349         166.519         19.0703 
        1.96964         165.504         18.9291 
        1.97578         164.651         18.7892 
        1.98192         163.857          18.651 
        1.98805         162.755         18.5142 
        1.99419         161.638         18.3788 
        2.00033         161.009         18.2447 
        2.00647         159.764          18.112 
         2.0126         158.942         17.9808 
        2.01874         158.069         17.8507 
        2.02488         157.187         17.7218 
        2.03101         156.765         17.5944 
        2.03714         155.659         17.4684 
        2.04328         154.442         17.3435 
        2.04941         154.028         17.2199 
        2.05554         153.063         17.0976 
        2.06167         152.053         16.9764 
        2.06781         151.297         16.8563 
        2.07396         150.224         16.7372 
        2.08009         149.659         16.6194 
        2.08622          148.56          16.503 
        2.09237         147.601         16.3874 
        2.09851         147.067         16.2729 
        2.10464         146.307         16.1597 
        2.11077         145.386         16.0478 
        2.11691         144.755         15.9366 
        2.12305         143.745         15.8265 
        2.12918         142.834         15.7177 
        2.13531         141.864           15.61 
        2.14145         141.349          15.503 
         2.1476         140.431         15.3968 
        2.15372          139.69         15.2922 
        2.15985         138.806         15.1885 
        2.16599          138.23         15.0855 
        2.17213         137.315         14.9835 
        2.17827         136.695         14.8825 
         2.1844         135.783         14.7825 
        2.19054         135.046         14.6834 
        2.19666         134.211         14.5854 
         2.2028         133.685         14.4882 
        2.20893         133.009         14.3918 
        2.21508         131.858         14.2962 
        2.22122         131.134         14.2014 
        2.22736         130.674         14.1077 
        2.23349         130.092         14.0149 
        2.23962         129.344         13.9228 
        2.24577         128.534         13.8315 
         2.2519         127.617         13.7412 
        2.25802          127.32         13.6518 
        2.26417         126.413         13.5629 
        2.27031         125.664         13.4748 
        2.27644         125.043         13.3877 
        2.28257         124.548         13.3014 
        2.28872         123.658         13.2157 
        2.29486         123.031         13.1308 
        2.30099         122.138         13.0468 
        2.30712         121.712         12.9635 
        2.31326         120.966         12.8807 
         2.3194         120.437         12.7988 
        2.32553         119.669         12.7177 
        2.33166         119.421         12.6374 
         2.3378         118.445         12.5576 
        2.34394         117.504         12.4785 
        2.35007         117.113         12.4002 
        2.35619          116.39         12.3227 
        2.36233          116.03         12.2456 
        2.36848         115.219         12.1691 
        2.37462         114.866         12.0934 
        2.38075         114.176         12.0184 
        2.38689         113.434          11.944 
        2.39303         112.823         11.8702 
        2.39916         112.362         11.7971 
        2.40529         111.752         11.7246 
        2.41143         110.862         11.6527 
        2.41757           110.2         11.5814 
         2.4237         109.892         11.5108 
        2.42983         109.255         11.4408 
        2.43598         108.599         11.3712 
        2.44211         108.135         11.3023 
        2.44823         107.524         11.2342 
        2.45437         107.062         11.1664 
        2.46052         106.297         11.0991 
        2.46665         105.884         11.0325 
        2.47279         105.263         10.9664 
        2.47892         104.781         10.9009 
        2.48507         104.276         10.8358 
         2.4912         103.673         10.7714 
