#  k  (h/Mpc)          P(k)  (Mpc/h)^3     P_linear(k) (Mpc/h)^3
     0.00783031          9481.9         9604.95 
       0.013688         11501.2         11430.8 
       0.019231           11248         11222.7 
      0.0249154          9935.5         10081.9 
      0.0312784          8441.7         8489.08 
      0.0375637          7101.6          7079.1 
      0.0433917         6033.38         6090.37 
      0.0492413         5395.56         5403.52 
      0.0555754         4815.22          4908.7 
      0.0619321         4571.17          4541.6 
       0.067871         4148.72         4215.49 
      0.0738098         3795.06         3853.86 
      0.0800417         3359.05         3433.79 
      0.0862327          2983.8         3011.26 
      0.0921407         2662.92         2646.59 
      0.0982031         2347.89         2342.93 
       0.104506         2174.71         2113.11 
       0.110769         2011.77         1959.45 
       0.116806         1892.55         1857.31 
       0.122832          1812.2         1773.03 
       0.129052         1688.11         1681.08 
       0.135211         1587.75         1572.86 
       0.141259         1493.92         1451.05 
       0.147318         1383.32         1323.83 
       0.153489         1254.48         1202.42 
       0.159709         1170.18         1099.23 
       0.165845         1111.03         1020.71 
       0.171974         1044.91         963.486 
       0.178125         998.937         921.042 
       0.184229         960.728         885.774 
        0.19034         901.248         850.197 
       0.196428         880.115         810.244 
       0.202534         845.683         764.981 
       0.208729         796.283         716.147 
       0.214876         749.656         668.685 
       0.220989          719.26          626.04 
       0.227147         681.047         589.808 
        0.23329         651.982         560.652 
       0.239377           636.6         537.384 
       0.245482         594.917         517.506 
       0.251667         589.122          498.59 
       0.257832         567.647         479.261 
       0.263955         547.059         458.868 
       0.270079         525.021         437.512 
        0.27624         516.097         415.999 
       0.282372         494.423         395.622 
        0.28843         479.511         377.361 
       0.294538         456.159         361.193 
       0.300721          452.11          347.01 
        0.30691         431.266         334.501 
       0.313033         422.146         323.116 
       0.319153         407.557         312.123 
       0.325316         396.285         301.049 
        0.33145         383.621         289.919 
       0.337538         377.835         278.893 
       0.343633         365.005         268.137 
       0.349808         352.624          257.82 
       0.355968         348.097         248.285 
       0.362074         340.371         239.657 
       0.368217         330.941         231.706 
       0.374374         318.105         224.318 
       0.380519         314.526          217.33 
       0.386598         306.469         210.631 
       0.392688         303.198         204.057 
        0.39888         294.839          197.48 
       0.405048         287.929         191.084 
       0.411186         282.046         184.948 
       0.417313         276.499         179.105 
       0.423458         270.981         173.573 
       0.429607         265.263         168.373 
       0.435692         257.847         163.517 
       0.441815         255.766         158.872 
       0.447964          250.75         154.404 
       0.454126         241.603         150.073 
       0.460267         238.502         145.876 
       0.466387         235.574         141.813 
        0.47254         230.304         137.856 
       0.478662         229.276         134.055 
       0.484765         221.788         130.416 
       0.490885         218.917         126.929 
       0.497035         215.611         123.579 
       0.503198         210.607         120.364 
       0.509342         208.325         117.284 
       0.515458         205.402          114.33 
       0.521598         201.629         111.461 
       0.527764         198.749         108.667 
       0.533884         196.168         105.977 
           0.54         193.045         103.374 
       0.546137         191.856         100.851 
       0.552299         188.014         98.4051 
       0.558452         185.736         96.0494 
       0.564573         182.772         93.7882 
       0.570708          179.24         91.6014 
       0.576825         177.031         89.4952 
       0.582926         174.279         87.4622 
       0.589034         172.315         85.4885 
       0.595184         170.362         83.5596 
       0.601379         168.345         81.6747 
       0.607522         164.973         79.8622 
       0.613639         164.077         78.1127 
       0.619772         160.596          76.413 
       0.625918         159.079         74.7621 
       0.632068          157.17         73.1606 
       0.638161         156.009         71.6213 
         0.6443         153.741         70.1161 
       0.650464         152.195         68.6495 
       0.656582         150.304         67.2357 
       0.662703         148.663         65.8616 
       0.668861          146.26         64.5181 
       0.675024         144.589         63.2109 
       0.681124         143.792         61.9531 
       0.687237         141.314         60.7271 
       0.693381         139.319         59.5288 
       0.699536         138.387         58.3612 
       0.705665         138.102         57.2305 
       0.711789         135.194         56.1314 
       0.717957         134.846         55.0541 
        0.72409         132.838         54.0115 
       0.730186         130.904         53.0025 
       0.736317         130.016          52.014 
       0.742472         129.176         51.0472 
       0.748622         127.916          50.106 
        0.75476          126.77         49.1906 
       0.760888         125.025         48.2997 
       0.767043         124.405         47.4275 
       0.773185         123.077         46.5788 
       0.779291         121.192         45.7559 
       0.785407         120.588         44.9519 
       0.791564         119.595         44.1624 
       0.797719          117.62         43.3924 
       0.803834         117.119         42.6459 
       0.809972          115.83         41.9144 
       0.816124         115.463         41.1986 
       0.822261         114.226         40.5017 
       0.828378         113.182          39.823 
       0.834502         112.688         39.1595 
       0.840667         111.113         38.5069 
       0.846816         109.934         37.8711 
       0.852925         109.319         37.2537 
       0.859047         107.968          36.649 
       0.865192         107.353         36.0558 
       0.871341         106.414         35.4754 
       0.877463         105.295         34.9104 
       0.883569          104.73         34.3593 
       0.889708         103.903         33.8174 
       0.895864         102.959         33.2858 
       0.902008         102.187         32.7668 
       0.908149         101.663         32.2593 
       0.914301         100.599         31.7618 
       0.920448         99.8714         31.2753 
       0.926574         99.1734         30.8008 
       0.932687         99.0103         30.3372 
       0.938823         97.4433         29.8815 
       0.944975         96.5276         29.4343 
       0.951105           96.06         28.9978 
       0.957225         94.9989          28.571 
       0.963368         94.3709         28.1514 
       0.969511         94.1676         27.7403 
       0.975621         93.6641         27.3397 
       0.981748         92.8632          26.946 
       0.987916         91.9638         26.5577 
        0.99406          91.341         26.1785 
        1.00019         90.7846         25.8075 
        1.00632         90.1243         25.4441 
        1.01246         89.5333         25.0872 
        1.01859         88.4057         24.7378 
        1.02471          88.298         24.3955 
        1.03085         87.4419         24.0585 
        1.03698         87.0287         23.7287 
        1.04314         86.1928         23.4037 
        1.04929           85.68         23.0855 
        1.05541         84.9803         22.7746 
        1.06154         84.7251         22.4687 
        1.06769         84.3325          22.168 
        1.07382         83.8386         21.8738 
        1.07993         83.1958         21.5856 
        1.08607         82.5604         21.3014 
        1.09222         82.2293         21.0221 
        1.09836         81.5496         20.7482 
        1.10449         81.1232         20.4795 
        1.11063         80.5098         20.2153 
        1.11677         80.1369         19.9558 
         1.1229         79.3058         19.7014 
        1.12903         78.6293         19.4512 
        1.13518         78.8558         19.2052 
        1.14131         78.2274         18.9636 
        1.14745         77.4599         18.7263 
        1.15359         77.1423          18.493 
        1.15973         76.6963         18.2636 
        1.16584         76.1239         18.0392 
        1.17197         75.7379         17.8182 
        1.17811         75.2954         17.6003 
        1.18424         74.7586         17.3866 
        1.19038          74.317          17.176 
        1.19652         74.0182         16.9689 
        1.20267         73.3279         16.7652 
        1.20881         73.0226         16.5649 
        1.21495         72.5004         16.3683 
        1.22108         72.2112         16.1749 
         1.2272         71.4818         15.9851 
        1.23334         71.2752         15.7979 
        1.23949         70.8951         15.6132 
        1.24562         70.4789         15.4321 
        1.25174         70.1095         15.2541 
        1.25789         69.8315         15.0784 
        1.26402         69.4066         14.9058 
        1.27014         68.7822         14.7364 
        1.27628         68.5588          14.569 
        1.28244         68.0485          14.404 
        1.28858         67.8231         14.2417 
        1.29471         67.4835         14.0824 
        1.30084         67.0769         13.9256 
        1.30697         66.6698          13.771 
        1.31312         66.2797         13.6185 
        1.31925         66.0047         13.4688 
        1.32537         65.7458         13.3215 
        1.33151          65.075         13.1759 
        1.33765         64.8187         13.0325 
        1.34378         64.4411         12.8916 
        1.34992         64.1989         12.7527 
        1.35606         63.8521         12.6155 
         1.3622          63.334         12.4806 
        1.36833         63.1639          12.348 
        1.37445         62.8357         12.2174 
        1.38059          62.347         12.0883 
        1.38675         62.0381         11.9607 
        1.39288         61.6919         11.8355 
        1.39901         61.5626         11.7122 
        1.40515         61.1551         11.5904 
         1.4113         60.8741         11.4703 
        1.41742         60.7352         11.3524 
        1.42355         60.1652          11.236 
         1.4297         60.0006         11.1208 
        1.43585         59.5478         11.0073 
        1.44198         59.2905         10.8958 
        1.44809         59.0622         10.7861 
        1.45423         58.7514         10.6775 
        1.46036          58.551         10.5706 
        1.46649         58.2092         10.4651 
        1.47263          57.805          10.361 
        1.47877         57.6224         10.2584 
        1.48491          57.454         10.1569 
        1.49104         57.0069         10.0571 
        1.49718          56.551         9.95856 
        1.50333         56.4277         9.86118 
        1.50947         56.1853          9.7653 
         1.5156         55.8437         9.67085 
        1.52172         55.6913         9.57764 
        1.52787          55.531         9.48548 
          1.534         55.1198         9.39465 
        1.54013            54.8          9.3051 
        1.54627         54.6397         9.21656 
        1.55241         54.2005         9.12917 
        1.55855         53.9928         9.04303 
        1.56467         53.6027         8.95825 
         1.5708         53.6106         8.87431 
        1.57695         53.3429         8.79133 
        1.58308         52.9412          8.7096 
        1.58922         52.9093         8.62886 
        1.59535          52.694         8.54918 
         1.6015         52.1676         8.47039 
        1.60764         52.0196         8.39264 
        1.61376         51.7541         8.31608 
        1.61989         51.4689         8.24041 
        1.62604         51.3415         8.16552 
        1.63218         51.1919         8.09161 
        1.63831         50.8714         8.01879 
        1.64444         50.5957         7.94683 
        1.65059         50.2971         7.87559 
        1.65673         50.1424          7.8053 
        1.66285         49.8105         7.73607 
        1.66898         49.6323         7.66766 
        1.67512         49.3288         7.59994 
        1.68127         49.0923         7.53299 
         1.6874          48.959         7.46699 
        1.69353         48.6716         7.40182 
        1.69967         48.4409         7.33728 
        1.70581         48.3744         7.27353 
        1.71193         48.1482         7.21079 
        1.71806         47.6766         7.14866 
        1.72421         47.6119         7.08713 
        1.73035         47.3853         7.02641 
        1.73649         46.9815          6.9664 
        1.74262          46.967         6.90715 
        1.74876          46.754         6.84855 
        1.75489         46.5034         6.79076 
        1.76101         46.3344         6.73364 
        1.76715         46.0562         6.67711 
        1.77329         45.8777         6.62116 
        1.77943         45.6429         6.56583 
        1.78557          45.492         6.51121 
        1.79171         45.2354         6.45721 
        1.79785         45.0306         6.40381 
        1.80399         44.9266         6.35102 
        1.81012         44.6786          6.2989 
        1.81625         44.3213          6.2474 
        1.82239         44.2449         6.19639 
        1.82853         43.9269         6.14598 
        1.83466         43.8178         6.09618 
        1.84078         43.4985         6.04698 
        1.84692          43.351         5.99825 
        1.85306         43.1675            5.95 
         1.8592         42.8927         5.90235 
        1.86533         42.8141         5.85526 
        1.87147         42.6557         5.80862 
        1.87761          42.492         5.76248 
        1.88375         42.2338         5.71689 
        1.88988         42.1921         5.67184 
        1.89601         41.8956         5.62725 
        1.90215         41.7362         5.58311 
        1.90829         41.6328         5.53947 
        1.91442         41.3724         5.49628 
        1.92056         41.1389          5.4536 
         1.9267         40.9213         5.41133 
        1.93284         40.7866         5.36948 
        1.93897         40.6545         5.32815 
        1.94509          40.366         5.28735 
        1.95123         40.3053         5.24688 
        1.95737         40.0485         5.20679 
        1.96349         39.8559         5.16724 
        1.96964         39.8042         5.12797 
        1.97578         39.5215          5.0891 
        1.98192          39.393         5.05072 
        1.98805         39.2568         5.01272 
        1.99419         39.0028         4.97512 
        2.00033         38.8469         4.93788 
        2.00647          38.657         4.90103 
         2.0126         38.4774         4.86463 
        2.01874         38.3956         4.82853 
        2.02488         38.2486         4.79278 
        2.03101         38.0217         4.75745 
        2.03714         37.8571         4.72251 
        2.04328         37.6721         4.68788 
        2.04941         37.4985         4.65363 
        2.05554         37.3053         4.61974 
        2.06167         37.2424         4.58615 
        2.06781          37.012         4.55289 
        2.07396         36.8848         4.51991 
        2.08009          36.754         4.48731 
        2.08622          36.512         4.45508 
        2.09237         36.3692          4.4231 
        2.09851         36.2058         4.39142 
        2.10464         36.0958         4.36011 
        2.11077         35.9709         4.32915 
        2.11691         35.7566         4.29841 
        2.12305         35.5874         4.26798 
        2.12918         35.4785         4.23791 
        2.13531         35.2726         4.20813 
        2.14145          35.198         4.17857 
         2.1476          34.996         4.14925 
        2.15372         34.8092         4.12037 
        2.15985         34.6839         4.09173 
        2.16599         34.6753         4.06329 
        2.17213         34.5147         4.03514 
        2.17827         34.2319         4.00727 
         2.1844         34.1304         3.97969 
        2.19054         33.9868         3.95235 
        2.19666         33.8459         3.92532 
         2.2028         33.6634         3.89851 
        2.20893         33.5937         3.87194 
        2.21508         33.4609         3.84559 
        2.22122          33.231         3.81947 
        2.22736         33.1654         3.79365 
        2.23349          33.022         3.76808 
        2.23962         32.8076         3.74273 
        2.24577         32.6888         3.71759 
         2.2519         32.5664         3.69271 
        2.25802         32.4343         3.66811 
        2.26417         32.3157         3.64366 
        2.27031         32.2206         3.61941 
        2.27644         31.9913         3.59545 
        2.28257         31.9119         3.57172 
        2.28872         31.7387         3.54815 
        2.29486         31.6872          3.5248 
        2.30099         31.5013          3.5017 
        2.30712            31.4         3.47881 
        2.31326         31.2994         3.45608 
         2.3194         31.1654         3.43356 
        2.32553         30.9881         3.41129 
        2.33166          30.883         3.38922 
         2.3378         30.6862         3.36732 
        2.34394         30.5568          3.3456 
        2.35007         30.4668         3.32411 
        2.35619         30.3692         3.30283 
        2.36233         30.2862         3.28169 
        2.36848         30.0868         3.26069 
        2.37462         29.9939         3.23992 
        2.38075         29.8853         3.21934 
        2.38689         29.8094         3.19893 
        2.39303         29.6207          3.1787 
        2.39916         29.4584         3.15867 
        2.40529         29.2932         3.13881 
        2.41143         29.2676         3.11911 
        2.41757          29.173         3.09957 
         2.4237         29.0022         3.08023 
        2.42983         28.8613         3.06106 
        2.43598         28.7443           3.042 
        2.44211          28.629         3.02314 
        2.44823         28.5172         3.00447 
        2.45437         28.4141         2.98592 
        2.46052         28.2373          2.9675 
        2.46665         28.2208         2.94928 
        2.47279         28.0862         2.93121 
        2.47892         27.9262         2.91328 
        2.48507         27.8249         2.89549 
         2.4912          27.737         2.87788 
