# k  (h/Mpc)    Pcb(k)  (Mpc/h)^3    Pcb_linear(k)  (Mpc/h)^3
     0.00783031         723.522         730.844 
       0.013688         842.194         844.303 
       0.019231         807.331         807.345 
      0.0249154         704.362         706.863 
      0.0312784         581.489         580.912 
      0.0375637         478.804         477.113 
      0.0433917         408.786          408.54 
      0.0492413          363.88         363.108 
      0.0555754         329.806         330.785 
      0.0619321         306.351         305.182 
       0.067871         279.713         280.366 
      0.0738098         251.644         252.186 
      0.0800417         219.764         220.501 
      0.0862327         190.732         190.581 
      0.0921407         167.076         166.636 
      0.0982031         148.367         148.252 
       0.104506         136.372         135.407 
       0.110769         127.833         127.143 
       0.116806         121.189          121.14 
       0.122832         115.486         115.087 
       0.129052         107.494         107.577 
       0.135211         98.7793         98.7875 
       0.141259         90.0693          89.618 
       0.147318         81.7407         80.9633 
       0.153489         74.1363         73.5627 
       0.159709         68.5384         67.9207 
       0.165845         64.9474         63.9783 
       0.171974         61.5977         61.1315 
       0.178125         59.2795         58.7208 
       0.184229         56.8521         56.2238 
        0.19034         53.5723         53.3295 
       0.196428         50.6104         50.0621 
       0.202534         47.5211         46.6332 
       0.208729         44.0369         43.3191 
       0.214876         41.0412         40.4527 
       0.220989         38.9627         38.1332 
       0.227147         36.8677         36.2975 
        0.23329         35.3735         34.8221 
       0.239377          34.153         33.5266 
       0.245482         32.6429         32.2344 
       0.251667         31.5052         30.8405 
       0.257832         29.9697         29.3568 
       0.263955         28.5158         27.8499 
       0.270079         27.0722         26.3957 
        0.27624         25.8967          25.062 
       0.282372         24.7483         23.9047 
        0.28843          23.647         22.9235 
       0.294538          22.764         22.0635 
       0.300721         22.0953         21.2713 
        0.30691         21.1764         20.5081 
       0.313033         20.4331         19.7499 
       0.319153         19.4943         18.9815 
       0.325316         18.9682         18.2079 
        0.33145         18.1792         17.4613 
       0.337538         17.4929         16.7636 
       0.343633         16.7877         16.1233 
       0.349808         16.2583         15.5346 
       0.355968         15.7202         15.0004 
       0.362074         15.1929         14.5082 
       0.368217         14.7244         14.0361 
       0.374374         14.2063         13.5755 
       0.380519         13.8028         13.1224 
       0.386598         13.3904         12.6828 
       0.392688         13.0052         12.2553 
        0.39888         12.5546         11.8393 
       0.405048         12.1776         11.4488 
       0.411186         11.8245         11.0844 
       0.417313         11.4346         10.7433 
       0.423458         11.1269         10.4208 
       0.429607         10.7868         10.1126 
       0.435692         10.4715         9.81826 
       0.441815          10.197         9.53106 
       0.447964         9.96835          9.2507 
       0.454126         9.62064         8.97829 
       0.460267         9.38353         8.71694 
       0.466387         9.08642         8.46772 
        0.47254         8.88202         8.22847 
       0.478662         8.68065         8.00145 
       0.484765         8.41281         7.78546 
       0.490885         8.20632         7.57779 
       0.497035         8.07272         7.37657 
       0.503198         7.83564         7.18157 
       0.509342         7.64326         6.99342 
       0.515458           7.448         6.81222 
       0.521598         7.28064          6.6363 
       0.527764         7.08173         6.46579 
       0.533884         6.95539         6.30281 
           0.54          6.7793         6.14621 
       0.546137         6.63455         5.99496 
       0.552299         6.49256         5.84851 
       0.558452         6.30646         5.70726 
       0.564573         6.19533         5.57126 
       0.570708         6.05785         5.43928 
       0.576825         5.90298         5.31186 
       0.582926         5.79211         5.18875 
       0.589034         5.62988         5.06933 
       0.595184          5.5294          4.9529 
       0.601379         5.40209         4.83942 
       0.607522         5.31564         4.73054 
       0.613639         5.22854         4.62562 
       0.619772         5.08143         4.52375 
       0.625918         5.01206         4.42479 
       0.632068         4.92663         4.32873 
       0.638161         4.80413         4.23633 
         0.6443         4.70472         4.14592 
       0.650464         4.59925          4.0578 
       0.656582         4.54138         3.97289 
       0.662703         4.45153         3.89041 
       0.668861         4.37532         3.80986 
       0.675024          4.2796         3.73158 
       0.681124         4.19387         3.65632 
       0.687237         4.13063         3.58302 
       0.693381         4.05773         3.51139 
       0.699536         3.95015          3.4416 
       0.705665         3.89206         3.37401 
       0.711789         3.82804         3.30829 
       0.717957         3.75359         3.24389 
        0.72409         3.68733         3.18157 
       0.730186         3.62404         3.12127 
       0.736317         3.58573         3.06223 
       0.742472          3.5223         3.00451 
       0.748622         3.45186         2.94835 
        0.75476         3.38322         2.89376 
       0.760888         3.32945         2.84064 
       0.767043         3.28953         2.78866 
       0.773185         3.21906         2.73809 
       0.779291         3.17957         2.68907 
       0.785407         3.12337         2.64118 
       0.791564         3.07803         2.59416 
       0.797719         3.02972         2.54832 
       0.803834         2.99144         2.50387 
       0.809972         2.94487         2.46034 
       0.816124         2.88796         2.41775 
       0.822261         2.83411         2.37629 
       0.828378         2.79788         2.33594 
       0.834502         2.76988         2.29649 
       0.840667         2.70779          2.2577 
       0.846816         2.66623         2.21992 
       0.852925         2.64222         2.18326 
       0.859047         2.60173         2.14734 
       0.865192         2.56356         2.11212 
       0.871341         2.53094         2.07767 
       0.877463         2.49605         2.04415 
       0.883569         2.44911         2.01146 
       0.889708         2.41319         1.97932 
       0.895864         2.38009          1.9478 
       0.902008         2.34341         1.91704 
       0.908149         2.31759         1.88697 
       0.914301         2.27251         1.85749 
       0.920448         2.24472         1.82868 
       0.926574         2.21139         1.80058 
       0.932687         2.18298         1.77313 
       0.938823         2.16066         1.74616 
       0.944975         2.12977         1.71969 
       0.951105         2.10389         1.69387 
       0.957225         2.08654         1.66862 
       0.963368         2.05425         1.64381 
       0.969511         2.02257          1.6195 
       0.975621         1.99175         1.59582 
       0.981748         1.97353         1.57255 
       0.987916         1.94511          1.5496 
        0.99406         1.91321          1.5272 
        1.00019         1.89602         1.50529 
        1.00632         1.86931         1.48382 
        1.01246         1.84721         1.46275 
        1.01859         1.82524         1.44212 
        1.02471         1.80021         1.42191 
        1.03085         1.78087         1.40203 
        1.03698         1.75548         1.38257 
        1.04314         1.73795         1.36339 
        1.04929         1.71482         1.34463 
        1.05541         1.69574         1.32629 
        1.06154         1.67442         1.30826 
        1.06769         1.65767         1.29053 
        1.07382         1.63432         1.27319 
        1.07993         1.61086         1.25621 
        1.08607         1.60175         1.23947 
        1.09222         1.57816         1.22301 
        1.09836         1.56555         1.20688 
        1.10449         1.54689         1.19106 
        1.11063         1.52357          1.1755 
        1.11677         1.50653         1.16023 
         1.1229         1.49083         1.14526 
        1.12903         1.47235         1.13054 
        1.13518         1.45938         1.11606 
        1.14131         1.43871         1.10185 
        1.14745         1.41508          1.0879 
        1.15359         1.40714         1.07419 
        1.15973         1.38536          1.0607 
        1.16584         1.37961         1.04751 
        1.17197         1.36243         1.03453 
        1.17811         1.34969         1.02172 
        1.18424         1.33697         1.00918 
        1.19038         1.31934        0.996803 
        1.19652         1.30402        0.984642 
        1.20267         1.29457        0.972685 
        1.20881         1.27665         0.96093 
        1.21495         1.26672        0.949388 
        1.22108         1.25346        0.938038 
         1.2272         1.24377          0.9269 
        1.23334         1.22708        0.915918 
        1.23949         1.21333        0.905088 
        1.24562         1.20417        0.894464 
        1.25174         1.19082        0.884026 
        1.25789         1.17944        0.873723 
        1.26402         1.16411        0.863604 
        1.27014         1.15319         0.85367 
        1.27628         1.14751        0.843862 
        1.28244         1.12992         0.83419 
        1.28858         1.12085        0.824683 
        1.29471         1.10959        0.815346 
        1.30084         1.09707        0.806162 
        1.30697         1.08862        0.797106 
        1.31312         1.07284        0.788176 
        1.31925         1.06701        0.779411 
        1.32537         1.05652        0.770788 
        1.33151         1.04811        0.762265 
        1.33765         1.03595        0.753876 
        1.34378         1.02468         0.74563 
        1.34992         1.01875        0.737501 
        1.35606         1.00512        0.729477 
         1.3622         0.99887        0.721586 
        1.36833        0.988506        0.713831 
        1.37445        0.976692        0.706194 
        1.38059         0.96963        0.698646 
        1.38675        0.966148         0.69119 
        1.39288        0.952987        0.683873 
        1.39901        0.943919        0.676666 
        1.40515        0.936263        0.669546 
         1.4113        0.927295        0.662532 
        1.41742        0.918907        0.655645 
        1.42355        0.915252        0.648843 
         1.4297        0.902334        0.642117 
        1.43585        0.895539         0.63549 
        1.44198        0.891219        0.628982 
        1.44809        0.879285        0.622577 
        1.45423         0.87237        0.616238 
        1.46036        0.864784        0.609998 
        1.46649        0.857352        0.603844 
        1.47263        0.849688        0.597769 
        1.47877         0.84119         0.59178 
        1.48491        0.834404        0.585865 
        1.49104        0.827084        0.580042 
        1.49718        0.822314        0.574295 
        1.50333        0.813195        0.568617 
        1.50947         0.80838        0.563026 
         1.5156        0.800345         0.55752 
        1.52172        0.793555        0.552086 
        1.52787        0.786123        0.546715 
          1.534        0.781125        0.541421 
        1.54013        0.772755        0.536203 
        1.54627        0.766465        0.531044 
        1.55241         0.75972        0.525952 
        1.55855        0.754164        0.520934 
        1.56467        0.749981        0.515995 
         1.5708        0.741013        0.511107 
        1.57695        0.737659        0.506274 
        1.58308        0.731576        0.501515 
        1.58922        0.724841        0.496814 
        1.59535        0.719393        0.492175 
         1.6015        0.713517        0.487589 
        1.60764         0.70886        0.483064 
        1.61376        0.702064        0.478609 
        1.61989        0.697389        0.474206 
        1.62604        0.690832        0.469849 
        1.63218        0.687724        0.465549 
        1.63831        0.680758        0.461313 
        1.64444        0.675344        0.457128 
        1.65059        0.671064        0.452985 
        1.65673        0.664322        0.448898 
        1.66285        0.659911        0.444873 
        1.66898        0.657211        0.440896 
        1.67512        0.649262         0.43696 
        1.68127        0.644293        0.433069 
         1.6874        0.641902        0.429234 
        1.69353        0.635213        0.425447 
        1.69967        0.630191        0.421697 
        1.70581        0.626887        0.417994 
        1.71193        0.621484         0.41435 
        1.71806        0.617863        0.410741 
        1.72421        0.612581        0.407168 
        1.73035        0.607219        0.403642 
        1.73649        0.604515        0.400158 
        1.74262        0.599731        0.396718 
        1.74876        0.594553        0.393316 
        1.75489        0.589435        0.389961 
        1.76101         0.58589        0.386646 
        1.76715        0.581887        0.383366 
        1.77329        0.578281        0.380119 
        1.77943        0.572888        0.376908 
        1.78557        0.568922        0.373739 
        1.79171        0.566033        0.370606 
        1.79785        0.561336        0.367508 
        1.80399        0.557613        0.364446 
        1.81012        0.554299        0.361424 
        1.81625         0.54988        0.358436 
        1.82239        0.546661        0.355478 
        1.82853        0.540559        0.352555 
        1.83466        0.538062        0.349668 
        1.84078        0.533506        0.346816 
        1.84692        0.531368        0.343991 
        1.85306        0.527725        0.341194 
         1.8592        0.524408        0.338433 
        1.86533        0.520584        0.335704 
        1.87147        0.516981        0.333002 
        1.87761        0.513412        0.330328 
        1.88375         0.50867        0.327687 
        1.88988        0.506722        0.325077 
        1.89601        0.502395        0.322495 
        1.90215        0.499609        0.319938 
        1.90829        0.495627        0.317411 
        1.91442         0.49252         0.31491 
        1.92056        0.489843        0.312439 
         1.9267         0.48571        0.309992 
        1.93284        0.483703        0.307569 
        1.93897        0.479806        0.305177 
        1.94509        0.477086        0.302815 
        1.95123        0.473374        0.300473 
        1.95737        0.470908        0.298154 
        1.96349        0.466841        0.295865 
        1.96964        0.464728        0.293593 
        1.97578        0.461271        0.291344 
        1.98192        0.459319        0.289124 
        1.98805        0.455344        0.286926 
        1.99419         0.45309        0.284751 
        2.00033        0.451127        0.282598 
        2.00647        0.447135        0.280467 
         2.0126        0.444413        0.278362 
        2.01874        0.442004        0.276275 
        2.02488         0.43977        0.274208 
        2.03101        0.435539        0.272166 
        2.03714        0.432447        0.270147 
        2.04328        0.431423        0.268145 
        2.04941        0.428239        0.266166 
        2.05554        0.425292        0.264208 
        2.06167        0.422719        0.262267 
        2.06781        0.419415        0.260345 
        2.07396        0.416622        0.258439 
        2.08009        0.414618        0.256556 
        2.08622        0.412062        0.254694 
        2.09237        0.410538        0.252847 
        2.09851        0.407972        0.251018 
        2.10464        0.405577         0.24921 
        2.11077        0.402907        0.247421 
        2.11691        0.400114        0.245647 
        2.12305        0.397774        0.243889 
        2.12918         0.39577        0.242154 
        2.13531        0.392857        0.240434 
        2.14145        0.391099        0.238728 
         2.1476        0.388262        0.237036 
        2.15372        0.386972        0.235369 
        2.15985        0.383632        0.233716 
        2.16599        0.380959        0.232075 
        2.17213        0.379402        0.230451 
        2.17827        0.377876        0.228843 
         2.1844        0.375908        0.227251 
        2.19054        0.373529        0.225675 
        2.19666        0.370709        0.224115 
         2.2028        0.368906        0.222569 
        2.20893        0.367058        0.221036 
        2.21508        0.364971        0.219517 
        2.22122        0.361534        0.218011 
        2.22736        0.360103        0.216522 
        2.23349        0.359044        0.215047 
        2.23962        0.356769        0.213586 
        2.24577        0.353725        0.212137 
         2.2519        0.352519        0.210703 
        2.25802        0.350142        0.209285 
        2.26417        0.348077        0.207875 
        2.27031        0.346045        0.206478 
        2.27644        0.344679        0.205097 
        2.28257        0.342732        0.203729 
        2.28872        0.340695        0.202371 
        2.29486        0.338644        0.201026 
        2.30099        0.336754        0.199696 
        2.30712        0.335215        0.198377 
        2.31326         0.33322        0.197068 
         2.3194        0.332478        0.195771 
        2.32553        0.330363        0.194488 
        2.33166        0.328629        0.193217 
         2.3378        0.326769        0.191956 
        2.34394        0.323883        0.190706 
        2.35007        0.322772        0.189468 
        2.35619        0.321222        0.188243 
        2.36233        0.318638        0.187026 
        2.36848        0.317734        0.185817 
        2.37462        0.315402        0.184621 
        2.38075        0.314785        0.183437 
        2.38689        0.312549        0.182263 
        2.39303        0.311529        0.181099 
        2.39916        0.308924        0.179946 
        2.40529        0.307832        0.178803 
        2.41143        0.306353         0.17767 
        2.41757        0.304752        0.176545 
         2.4237        0.303267        0.175433 
        2.42983        0.301668         0.17433 
        2.43598        0.300287        0.173234 
        2.44211        0.298903        0.172149 
        2.44823         0.29734        0.171075 
        2.45437        0.295198        0.170008 
        2.46052        0.294517        0.168949 
        2.46665        0.292424        0.167901 
        2.47279         0.29096        0.166863 
        2.47892        0.289253        0.165832 
        2.48507        0.288116        0.164809 
         2.4912        0.286882        0.163797 
