# k  (h/Mpc)    Pcb(k)  (Mpc/h)^3    Pcb_linear(k)  (Mpc/h)^3
     0.00783031         4219.87         4269.72 
       0.013688         4976.44         4964.84 
       0.019231         4756.47         4747.54 
      0.0249154          4104.3         4138.94 
      0.0312784         3379.28         3381.75 
      0.0375637         2785.71         2771.37 
      0.0433917         2374.52         2380.75 
      0.0492413         2133.52         2130.79 
      0.0555754         1936.69         1955.32 
      0.0619321         1820.58         1808.62 
       0.067871         1644.78         1655.85 
      0.0738098         1468.73         1477.83 
      0.0800417         1268.54         1280.05 
      0.0862327         1099.33         1099.66 
      0.0921407         969.688         962.049 
      0.0982031          864.79         862.388 
       0.104506         811.303         797.071 
       0.110769         765.992         755.996 
       0.116806         726.413         722.914 
       0.122832         691.372         684.271 
       0.129052          634.42         633.467 
       0.135211         578.687         575.054 
       0.141259         528.306         517.201 
       0.147318         481.099         466.175 
       0.153489         437.989         425.854 
       0.159709         411.408         397.592 
       0.165845         395.801         378.977 
       0.171974         376.647         364.959 
       0.178125         362.626         350.929 
       0.184229         346.531         334.127 
        0.19034          320.89         313.856 
       0.196428          304.72         291.681 
       0.202534         287.408         269.884 
       0.208729          266.92          250.47 
       0.214876         250.048         235.084 
       0.220989         240.805         223.548 
       0.227147         228.993          214.69 
        0.23329         220.786         207.132 
       0.239377         214.546         199.566 
       0.245482         201.677         191.122 
       0.251667          195.97         181.606 
       0.257832         186.862         171.663 
       0.263955         177.655          162.11 
       0.270079         169.257          153.52 
        0.27624         164.347         146.205 
       0.282372         158.086         140.198 
        0.28843         151.866         135.177 
       0.294538         145.906          130.59 
       0.300721         143.139         126.006 
        0.30691         136.533         121.238 
       0.313033         132.048         116.307 
       0.319153          125.54          111.33 
       0.325316         122.652         106.484 
        0.33145         117.513         102.036 
       0.337538         114.674         98.0861 
       0.343633         110.445         94.5916 
       0.349808          107.08         91.4165 
       0.355968          104.53         88.4648 
       0.362074         101.265         85.6308 
       0.368217         98.1295         82.7794 
       0.374374         95.0289         79.9167 
       0.380519         92.6495         77.0896 
       0.386598         89.9106         74.3824 
       0.392688         87.9542         71.8278 
        0.39888         85.3255         69.4166 
       0.405048         83.0937         67.2021 
       0.411186         81.1085         65.1599 
       0.417313          78.749         63.2302 
       0.423458         76.7678         61.3632 
       0.429607         74.7762         59.5404 
       0.435692         72.2208         57.7683 
       0.441815         71.2747          56.022 
       0.447964         69.9397         54.3282 
       0.454126         66.7982         52.7067 
       0.460267         65.8672         51.1725 
       0.466387         64.2758          49.727 
        0.47254         63.0531         48.3523 
       0.478662         62.1127         47.0463 
       0.484765         60.1907         45.7904 
       0.490885         58.9354          44.568 
       0.497035         58.1481         43.3749 
       0.503198         56.4578         42.2138 
       0.509342          55.061         41.0919 
       0.515458         54.0301         40.0146 
       0.521598         53.1555         38.9771 
       0.527764         52.1292         37.9805 
       0.533884         51.2676         37.0321 
           0.54         50.0746         36.1197 
       0.546137         49.4235         35.2347 
       0.552299         48.6316         34.3744 
       0.558452         47.2224         33.5424 
       0.564573         46.3833           32.74 
       0.570708         45.6959         31.9601 
       0.576825         44.7911         31.2069 
       0.582926         43.8064         30.4802 
       0.589034         42.8072         29.7771 
       0.595184         42.2617         29.0941 
       0.601379         41.5343         28.4298 
       0.607522         40.5847         27.7926 
       0.613639         40.3374         27.1776 
       0.619772         39.3367         26.5788 
       0.625918         39.0114         25.9959 
       0.632068         38.4387         25.4294 
       0.638161         37.7364         24.8847 
         0.6443         37.0549         24.3523 
       0.650464         36.4535         23.8341 
       0.656582         36.1265         23.3354 
       0.662703         35.3779         22.8513 
       0.668861         34.8199         22.3785 
       0.675024         34.2783         21.9188 
       0.681124         33.6836         21.4766 
       0.687237         33.0786         21.0456 
       0.693381         32.8157         20.6242 
       0.699536         32.0661         20.2136 
       0.705665         32.1089         19.8159 
       0.711789         31.2637         19.4293 
       0.717957         30.8764         19.0506 
        0.72409         30.4661         18.6842 
       0.730186         29.9801         18.3298 
       0.736317          29.739         17.9828 
       0.742472         29.2102         17.6436 
       0.748622         28.9395         17.3135 
        0.75476         28.4965         16.9926 
       0.760888         28.0302         16.6803 
       0.767043          27.695         16.3747 
       0.773185         27.2751         16.0773 
       0.779291         27.1344          15.789 
       0.785407         26.8554         15.5074 
       0.791564         26.3767         15.2309 
       0.797719         25.7918         14.9614 
       0.803834         25.7533         14.7001 
       0.809972         25.4356         14.4441 
       0.816124         24.9452         14.1938 
       0.822261         24.7176           13.95 
       0.828378         24.5399         13.7128 
       0.834502         24.2503         13.4809 
       0.840667          23.944         13.2529 
       0.846816         23.5332         13.0309 
       0.852925         23.3257         12.8154 
       0.859047          23.049         12.6043 
       0.865192         22.8071         12.3974 
       0.871341         22.6808         12.1949 
       0.877463         22.2436         11.9979 
       0.883569         22.0099         11.8058 
       0.889708         21.7549          11.617 
       0.895864         21.5415         11.4318 
       0.902008         21.3659          11.251 
       0.908149         21.1339         11.0743 
       0.914301         21.0597         10.9011 
       0.920448         20.6728         10.7318 
       0.926574         20.4827         10.5667 
       0.932687         20.2579         10.4054 
       0.938823         19.9837         10.2469 
       0.944975         19.8365         10.0913 
       0.951105         19.6372         9.93961 
       0.957225          19.407         9.79126 
       0.963368         19.3347         9.64544 
       0.969511         19.1208         9.50259 
       0.975621         18.9647         9.36342 
       0.981748         18.6734         9.22667 
       0.987916         18.5685         9.09181 
        0.99406         18.3643         8.96015 
        1.00019         18.1395         8.83136 
        1.00632         18.0326         8.70523 
        1.01246          17.924         8.58138 
        1.01859         17.6165         8.46015 
        1.02471         17.5746         8.34142 
        1.03085         17.4078         8.22457 
        1.03698         17.1177         8.11021 
        1.04314         17.0216         7.99754 
        1.04929         16.8386         7.88729 
        1.05541          16.658         7.77957 
        1.06154         16.5808          7.6736 
        1.06769         16.4757         7.56945 
        1.07382         16.2811         7.46758 
        1.07993         16.1784         7.36782 
        1.08607          15.976         7.26949 
        1.09222         15.8999         7.17285 
        1.09836         15.7038         7.07809 
        1.10449         15.6014         6.98516 
        1.11063         15.4069          6.8938 
        1.11677         15.3593         6.80411 
         1.1229         15.2673         6.71618 
        1.12903         15.0682         6.62973 
        1.13518         14.9156         6.54473 
        1.14131          14.877         6.46127 
        1.14745         14.7311         6.37931 
        1.15359         14.6571         6.29877 
        1.15973         14.4886         6.21958 
        1.16584         14.3103         6.14212 
        1.17197         14.3042         6.06586 
        1.17811         14.1297         5.99067 
        1.18424         14.0193         5.91698 
        1.19038          13.963         5.84431 
        1.19652         13.8498         5.77289 
        1.20267         13.7313         5.70266 
        1.20881         13.6384         5.63362 
        1.21495          13.553         5.56583 
        1.22108         13.4202         5.49917 
         1.2272         13.2993         5.43375 
        1.23334         13.2334         5.36925 
        1.23949            13.1         5.30565 
        1.24562         13.0446         5.24325 
        1.25174          12.962         5.18195 
        1.25789         12.8418         5.12145 
        1.26402         12.8011         5.06202 
        1.27014         12.6544         5.00368 
        1.27628         12.5358         4.94609 
        1.28244         12.4821          4.8893 
        1.28858         12.4442         4.83347 
        1.29471         12.3222         4.77864 
        1.30084         12.2158         4.72472 
        1.30697          12.146         4.67155 
        1.31312         12.0165         4.61912 
        1.31925         11.9387         4.56766 
        1.32537         11.9039         4.51704 
        1.33151         11.8054         4.46701 
        1.33765         11.7389         4.41776 
        1.34378         11.6623         4.36936 
        1.34992         11.5305         4.32164 
        1.35606         11.5156         4.27454 
         1.3622         11.4404         4.22823 
        1.36833         11.3249         4.18271 
        1.37445         11.2977         4.13789 
        1.38059         11.2019         4.09359 
        1.38675         11.0764         4.04983 
        1.39288         11.0633         4.00688 
        1.39901         10.9704         3.96458 
        1.40515         10.9233         3.92279 
         1.4113         10.8371         3.88161 
        1.41742         10.7531         3.84119 
        1.42355         10.6981         3.80126 
         1.4297         10.6655         3.76179 
        1.43585         10.6039         3.72289 
        1.44198         10.5199         3.68468 
        1.44809         10.4532         3.64709 
        1.45423         10.3891         3.60988 
        1.46036         10.3263         3.57326 
        1.46649         10.2831         3.53713 
        1.47263          10.186         3.50148 
        1.47877         10.1334         3.46633 
        1.48491         10.1019         3.43161 
        1.49104         10.0443         3.39744 
        1.49718          9.9669         3.36371 
        1.50333          9.9192         3.33038 
        1.50947         9.85385         3.29757 
         1.5156         9.78423         3.26525 
        1.52172         9.74708         3.23337 
        1.52787         9.69115         3.20185 
          1.534         9.61568         3.17079 
        1.54013         9.54797         3.14017 
        1.54627         9.49412          3.1099 
        1.55241         9.45394         3.08002 
        1.55855         9.39716         3.05058 
        1.56467         9.34241         3.02161 
         1.5708         9.33564         2.99293 
        1.57695         9.24794         2.96458 
        1.58308         9.20401         2.93666 
        1.58922         9.16096         2.90908 
        1.59535         9.10714         2.88187 
         1.6015         9.03878         2.85497 
        1.60764         8.99671         2.82842 
        1.61376         8.96215         2.80228 
        1.61989           8.893         2.77645 
        1.62604         8.87894         2.75089 
        1.63218         8.82051         2.72567 
        1.63831         8.78021         2.70082 
        1.64444         8.70464         2.67627 
        1.65059         8.65881         2.65197 
        1.65673            8.65         2.62799 
        1.66285         8.56117         2.60438 
        1.66898          8.5474         2.58105 
        1.67512          8.5044         2.55796 
        1.68127         8.45839         2.53514 
         1.6874         8.40781         2.51264 
        1.69353         8.34517         2.49043 
        1.69967         8.32493         2.46843 
        1.70581         8.29127         2.44671 
        1.71193         8.22863         2.42533 
        1.71806         8.19832         2.40416 
        1.72421         8.15144         2.38321 
        1.73035         8.11157         2.36252 
        1.73649         8.08041         2.34209 
        1.74262         8.04844         2.32191 
        1.74876         8.01417         2.30196 
        1.75489         7.96479         2.28228 
        1.76101         7.90565         2.26284 
        1.76715         7.90027          2.2436 
        1.77329         7.82793         2.22456 
        1.77943         7.79619         2.20573 
        1.78557         7.78221         2.18715 
        1.79171         7.74752         2.16878 
        1.79785         7.68043         2.15061 
        1.80399         7.65807         2.13266 
        1.81012         7.63606         2.11493 
        1.81625         7.58579         2.09742 
        1.82239         7.54952         2.08008 
        1.82853         7.50278         2.06294 
        1.83466         7.46783         2.04601 
        1.84078         7.43231         2.02929 
        1.84692         7.41414         2.01273 
        1.85306         7.36899         1.99633 
         1.8592           7.336         1.98014 
        1.86533         7.31485         1.96414 
        1.87147         7.27658         1.94829 
        1.87761         7.25207         1.93262 
        1.88375         7.18622         1.91713 
        1.88988         7.18954         1.90184 
        1.89601         7.15017         1.88669 
        1.90215         7.10911         1.87171 
        1.90829         7.07549         1.85689 
        1.91442         7.04612         1.84223 
        1.92056          7.0205         1.82774 
         1.9267         6.98753         1.81339 
        1.93284         6.94491         1.79919 
        1.93897         6.91425         1.78517 
        1.94509         6.88724         1.77133 
        1.95123          6.8679         1.75759 
        1.95737         6.83604           1.744 
        1.96349         6.80772         1.73058 
        1.96964         6.76363         1.71726 
        1.97578         6.73751         1.70408 
        1.98192         6.71028         1.69107 
        1.98805         6.69223         1.67818 
        1.99419         6.65181         1.66544 
        2.00033         6.63281         1.65281 
        2.00647         6.60274         1.64032 
         2.0126         6.57123         1.62798 
        2.01874         6.54512         1.61575 
        2.02488         6.50462         1.60364 
        2.03101         6.49532         1.59167 
        2.03714         6.45593         1.57983 
        2.04328         6.43981          1.5681 
        2.04941         6.39137          1.5565 
        2.05554         6.38735         1.54502 
        2.06167         6.34505         1.53365 
        2.06781         6.33514         1.52239 
        2.07396         6.31454         1.51122 
        2.08009         6.28827         1.50019 
        2.08622         6.23404         1.48927 
        2.09237         6.23537         1.47845 
        2.09851         6.20935         1.46773 
        2.10464         6.17431         1.45713 
        2.11077         6.13924         1.44666 
        2.11691         6.11929         1.43626 
        2.12305         6.10072         1.42596 
        2.12918         6.07846         1.41579 
        2.13531         6.05364         1.40572 
        2.14145         6.02842         1.39572 
         2.1476         6.01227          1.3858 
        2.15372         5.98581         1.37604 
        2.15985         5.96125         1.36635 
        2.16599         5.94025         1.35674 
        2.17213         5.91343         1.34722 
        2.17827         5.89722          1.3378 
         2.1844         5.87051         1.32848 
        2.19054         5.83342         1.31924 
        2.19666         5.82588          1.3101 
         2.2028         5.80032         1.30104 
        2.20893         5.78495         1.29206 
        2.21508         5.75252         1.28316 
        2.22122         5.72706         1.27434 
        2.22736         5.71251         1.26562 
        2.23349         5.68222         1.25698 
        2.23962         5.67473         1.24842 
        2.24577         5.64503         1.23993 
         2.2519         5.62976         1.23153 
        2.25802         5.60131         1.22322 
        2.26417         5.58462         1.21497 
        2.27031         5.55285         1.20678 
        2.27644         5.53896         1.19869 
        2.28257         5.51487         1.19068 
        2.28872         5.50048         1.18273 
        2.29486         5.48145         1.17485 
        2.30099         5.47064         1.16705 
        2.30712         5.43997         1.15933 
        2.31326         5.41512         1.15166 
         2.3194         5.39719         1.14406 
        2.32553         5.38118         1.13655 
        2.33166          5.3587         1.12911 
         2.3378         5.33932         1.12172 
        2.34394         5.32244          1.1144 
        2.35007         5.29841         1.10715 
        2.35619         5.27542         1.09997 
        2.36233         5.25911         1.09284 
        2.36848         5.24851         1.08576 
        2.37462         5.22868         1.07876 
        2.38075         5.20515         1.07183 
        2.38689         5.18705         1.06495 
        2.39303          5.1655         1.05813 
        2.39916          5.1528         1.05138 
        2.40529          5.1346         1.04469 
        2.41143         5.11154         1.03805 
        2.41757         5.10766         1.03147 
         2.4237         5.08371         1.02495 
        2.42983         5.06132          1.0185 
        2.43598         5.05505         1.01208 
        2.44211         5.02725         1.00572 
        2.44823         5.01129        0.999438 
        2.45437         5.00042        0.993189 
        2.46052         4.97593        0.986989 
        2.46665         4.95993        0.980853 
        2.47279          4.9358         0.97477 
        2.47892         4.92128        0.968735 
        2.48507         4.90403        0.962746 
         2.4912          4.8875        0.956818 
