# k  (h/Mpc)    P(k)  (Mpc/h)^3    P_linear(k)  (Mpc/h)^3
     0.00783031         6414.01          6511.5 
       0.013688         7511.92         7489.91 
       0.019231          7171.2         7160.15 
      0.0249154         6192.62         6263.84 
      0.0312784         5109.89         5123.63 
      0.0375637         4187.11         4166.16 
      0.0433917         3508.25         3522.88 
      0.0492413         3099.77         3094.83 
      0.0555754         2768.92         2800.98 
      0.0619321         2612.54          2590.1 
       0.067871         2379.67         2400.37 
      0.0738098         2165.11         2183.56 
      0.0800417         1902.84          1927.1 
      0.0862327         1664.66          1668.7 
      0.0921407         1462.16         1448.22 
      0.0982031         1275.62         1268.69 
       0.104506          1168.5         1137.64 
       0.110769         1080.07          1054.6 
       0.116806         1018.43         1002.56 
       0.122832         978.917         960.102 
       0.129052         915.867         911.122 
       0.135211         857.254         850.039 
       0.141259          798.27         779.248 
       0.147318         730.767         704.859 
       0.153489         657.551         634.561 
       0.159709         605.905         576.194 
       0.165845         570.281         533.411 
       0.171974         534.889         503.801 
       0.178125         513.266         482.966 
       0.184229         494.874         465.847 
        0.19034          465.08         447.726 
       0.196428         451.633         426.126 
       0.202534          432.12         400.736 
       0.208729         403.068         372.982 
       0.214876         375.576         346.136 
       0.220989         357.209         322.463 
       0.227147         335.722         302.953 
        0.23329         320.505         287.864 
       0.239377         311.476         276.282 
       0.245482         292.486         266.563 
       0.251667         288.169         257.136 
       0.257832         277.813         247.102 
       0.263955         266.495         236.123 
       0.270079         254.487         224.386 
        0.27624         247.685         212.518 
       0.282372         236.928         201.381 
        0.28843         226.769         191.599 
       0.294538         216.229         183.167 
       0.300721         212.608         175.969 
        0.30691         202.791         169.738 
       0.313033         197.443         164.065 
       0.319153         188.997         158.492 
       0.325316         184.746         152.738 
        0.33145         177.589          146.84 
       0.337538         173.918         140.937 
       0.343633         167.312          135.18 
       0.349808          161.62         129.712 
       0.355968         158.102         124.733 
       0.362074         153.376         120.312 
       0.368217         148.766         116.293 
       0.374374         143.903         112.586 
       0.380519         141.009         109.069 
       0.386598         137.077         105.658 
       0.392688         134.527         102.273 
        0.39888          130.78         98.8491 
       0.405048          127.27         95.5056 
       0.411186         124.206          92.305 
       0.417313         121.032         89.2772 
       0.423458         118.111         86.4376 
       0.429607         115.153         83.7959 
       0.435692         111.293         81.3446 
       0.441815         110.187         79.0061 
       0.447964         108.082         76.7525 
       0.454126         103.193         74.5564 
       0.460267         101.938         72.4143 
       0.466387         100.102         70.3332 
        0.47254          97.899         68.3031 
       0.478662         96.7715         66.3561 
       0.484765         93.7111         64.4993 
       0.490885          91.981         62.7299 
       0.497035         90.7197         61.0384 
       0.503198         88.0697         59.4196 
       0.509342         86.2516         57.8706 
       0.515458         84.8456         56.3838 
       0.521598         83.4545         54.9377 
       0.527764          82.104         53.5254 
       0.533884          80.765         52.1632 
           0.54         78.9995         50.8453 
       0.546137         78.1412         49.5692 
       0.552299         76.8254         48.3356 
       0.558452         74.9619         47.1501 
       0.564573         73.5863         46.0143 
       0.570708         72.4604         44.9177 
       0.576825         71.3776         43.8625 
       0.582926           69.81         42.8445 
       0.589034         68.5008         41.8558 
       0.595184         67.5643         40.8885 
       0.601379         66.5476         39.9428 
       0.607522         64.9621         39.0335 
       0.613639         64.6923         38.1565 
       0.619772         63.2253         37.3059 
       0.625918         62.4655          36.481 
       0.632068         61.6928         35.6817 
       0.638161         60.8175          34.914 
         0.6443         59.9152         34.1636 
       0.650464         59.0781         33.4325 
       0.656582         58.2532          32.728 
       0.662703         57.1082         32.0434 
       0.668861         56.3657         31.3744 
       0.675024         55.6552         30.7239 
       0.681124         54.8324         30.0984 
       0.687237         53.7906          29.489 
       0.693381         53.2646         28.8937 
       0.699536         52.4137         28.3139 
       0.705665         52.5454         27.7527 
       0.711789         51.1073         27.2074 
       0.717957         50.6179         26.6733 
        0.72409         49.8976         26.1566 
       0.730186         49.0837         25.6569 
       0.736317         48.8759         25.1675 
       0.742472         48.1679         24.6891 
       0.748622         47.6106         24.2237 
        0.75476         47.0498         23.7712 
       0.760888         46.2999         23.3309 
       0.767043         45.8006         22.9001 
       0.773185         45.1948         22.4811 
       0.779291         44.8982          22.075 
       0.785407         44.4636         21.6784 
       0.791564          43.845         21.2891 
       0.797719         43.0289         20.9095 
       0.803834         42.8768         20.5417 
       0.809972         42.1253         20.1814 
       0.816124         41.6806         19.8291 
       0.822261         41.3223         19.4861 
       0.828378         41.0544         19.1523 
       0.834502         40.5246         18.8261 
       0.840667         40.0971         18.5054 
       0.846816         39.4863         18.1931 
       0.852925         39.1764         17.8899 
       0.859047         38.6369         17.5931 
       0.865192         38.3242         17.3021 
       0.871341         38.1575         17.0174 
       0.877463         37.3926         16.7405 
       0.883569         37.1037         16.4704 
       0.889708         36.8454         16.2049 
       0.895864         36.4689         15.9447 
       0.902008         36.1173         15.6906 
       0.908149         35.7917         15.4423 
       0.914301         35.5586          15.199 
       0.920448         35.1415         14.9611 
       0.926574         34.7499         14.7292 
       0.932687         34.4896         14.5027 
       0.938823          33.959         14.2801 
       0.944975         33.8209         14.0618 
       0.951105         33.4585         13.8488 
       0.957225         33.0445         13.6405 
       0.963368         33.0454         13.4359 
       0.969511         32.6805         13.2355 
       0.975621          32.413         13.0402 
       0.981748         31.9803         12.8484 
       0.987916         31.7558         12.6593 
        0.99406         31.5431         12.4747 
        1.00019         31.1673         12.2941 
        1.00632         30.9714         12.1173 
        1.01246         30.7963         11.9437 
        1.01859         30.3119         11.7737 
        1.02471         30.2783         11.6074 
        1.03085          30.001         11.4436 
        1.03698          29.605         11.2834 
        1.04314         29.3911         11.1255 
        1.04929         29.1626         10.9711 
        1.05541         28.8551         10.8202 
        1.06154         28.7909         10.6718 
        1.06769         28.5097         10.5259 
        1.07382         28.3073         10.3832 
        1.07993         28.1484         10.2435 
        1.08607         27.8101         10.1058 
        1.09222         27.6905         9.97053 
        1.09836         27.4369         9.83786 
        1.10449         27.2174         9.70776 
        1.11063         26.8759         9.57987 
        1.11677          26.763         9.45433 
         1.1229         26.6235         9.33125 
        1.12903         26.2705         9.21027 
        1.13518         26.2446         9.09133 
        1.14131          26.088         8.97456 
        1.14745         25.7468          8.8599 
        1.15359         25.7218         8.74723 
        1.15973         25.4013         8.63647 
        1.16584         25.1975         8.52813 
        1.17197         25.1473         8.42149 
        1.17811         24.8767         8.31635 
        1.18424         24.6666         8.21331 
        1.19038         24.5935         8.11172 
        1.19652          24.476         8.01189 
        1.20267         24.2765         7.91374 
        1.20881         24.0517         7.81726 
        1.21495         23.8955         7.72254 
        1.22108         23.7403          7.6294 
         1.2272         23.4872         7.53802 
        1.23334         23.4216         7.44792 
        1.23949           23.31         7.35909 
        1.24562         23.0967         7.27195 
        1.25174         23.0081         7.18635 
        1.25789         22.8152         7.10187 
        1.26402         22.6752          7.0189 
        1.27014         22.4346         6.93745 
        1.27628         22.3435         6.85706 
        1.28244          22.221         6.77778 
        1.28858         22.1147         6.69986 
        1.29471         21.9884         6.62334 
        1.30084          21.848         6.54809 
        1.30697         21.6766         6.47389 
        1.31312         21.4828         6.40073 
        1.31925         21.3882         6.32893 
        1.32537         21.2895         6.25831 
        1.33151         21.1293          6.1885 
        1.33765         21.0669          6.1198 
        1.34378         20.9115         6.05228 
        1.34992            20.7         5.98572 
        1.35606         20.6181         5.92003 
         1.3622         20.5065         5.85543 
        1.36833         20.3462         5.79195 
        1.37445         20.3449         5.72944 
        1.38059         20.1613         5.66767 
        1.38675         19.9367         5.60665 
        1.39288         19.9326         5.54678 
        1.39901         19.7622          5.4878 
        1.40515         19.6788         5.42956 
         1.4113         19.5688         5.37218 
        1.41742         19.3816         5.31584 
        1.42355         19.3545         5.26021 
         1.4297         19.2375         5.20521 
        1.43585          19.177         5.15101 
        1.44198         18.9889         5.09779 
        1.44809         18.8943         5.04543 
        1.45423         18.8108         4.99361 
        1.46036         18.7497          4.9426 
        1.46649         18.6124         4.89229 
        1.47263         18.4848         4.84264 
        1.47877         18.4248         4.79371 
        1.48491         18.3553         4.74537 
        1.49104         18.2469         4.69779 
        1.49718         18.0817         4.65084 
        1.50333         18.0448         4.60445 
        1.50947         17.9592         4.55878 
         1.5156         17.8338         4.51381 
        1.52172         17.7146         4.46944 
        1.52787         17.6909         4.42557 
          1.534         17.5425         4.38235 
        1.54013          17.412         4.33974 
        1.54627         17.3604         4.29762 
        1.55241         17.2463         4.25606 
        1.55855         17.1567          4.2151 
        1.56467         17.0609         4.17479 
         1.5708         17.0394         4.13489 
        1.57695         16.8699         4.09545 
        1.58308         16.8679         4.05662 
        1.58922         16.7586         4.01826 
        1.59535         16.6468         3.98042 
         1.6015         16.5677           3.943 
        1.60764         16.5267         3.90609 
        1.61376         16.3683         3.86974 
        1.61989         16.2869         3.83383 
        1.62604         16.2726          3.7983 
        1.63218         16.1686         3.76323 
        1.63831         16.1159         3.72869 
        1.64444         15.9913         3.69457 
        1.65059          15.913          3.6608 
        1.65673         15.8293         3.62748 
        1.66285         15.7785         3.59467 
        1.66898         15.7217         3.56225 
        1.67512         15.6554         3.53017 
        1.68127         15.5606         3.49846 
         1.6874         15.4718          3.4672 
        1.69353         15.4039         3.43635 
        1.69967         15.3084          3.4058 
        1.70581         15.2454         3.37563 
        1.71193         15.1943         3.34594 
        1.71806         15.0969         3.31654 
        1.72421         15.0353         3.28744 
        1.73035         14.9455         3.25872 
        1.73649         14.9172         3.23034 
        1.74262         14.8566         3.20233 
        1.74876         14.7969         3.17463 
        1.75489         14.7083         3.14731 
        1.76101         14.6278         3.12033 
        1.76715         14.5852         3.09362 
        1.77329         14.5188         3.06719 
        1.77943          14.428         3.04105 
        1.78557         14.3919         3.01526 
        1.79171         14.3286         2.98976 
        1.79785         14.2177         2.96455 
        1.80399         14.1706         2.93964 
        1.81012         14.1591         2.91505 
        1.81625         14.0724         2.89074 
        1.82239          14.043         2.86668 
        1.82853         13.9214          2.8429 
        1.83466         13.8378         2.81941 
        1.84078         13.7758         2.79621 
        1.84692         13.7663         2.77324 
        1.85306         13.6766          2.7505 
         1.8592         13.6223         2.72804 
        1.86533          13.576         2.70585 
        1.87147         13.5076         2.68388 
        1.87761         13.4757         2.66214 
        1.88375         13.4076         2.64067 
        1.88988          13.337         2.61946 
        1.89601         13.2675         2.59846 
        1.90215         13.2272         2.57769 
        1.90829         13.1872         2.55714 
        1.91442         13.1285         2.53682 
        1.92056         13.0621         2.51674 
         1.9267         13.0013         2.49685 
        1.93284         12.9384         2.47717 
        1.93897         12.8973         2.45774 
        1.94509          12.837         2.43855 
        1.95123         12.7863         2.41952 
        1.95737         12.7477         2.40068 
        1.96349         12.6766         2.38209 
        1.96964         12.6217         2.36364 
        1.97578         12.5749         2.34538 
        1.98192         12.5139         2.32735 
        1.98805         12.4799          2.3095 
        1.99419         12.4128         2.29184 
        2.00033         12.3375         2.27436 
        2.00647         12.2983         2.25706 
         2.0126         12.2664         2.23997 
        2.01874         12.1905         2.22303 
        2.02488          12.158         2.20625 
        2.03101         12.1213         2.18968 
        2.03714          12.082         2.17329 
        2.04328         12.0005         2.15705 
        2.04941          11.941         2.14098 
        2.05554         11.9411          2.1251 
        2.06167         11.8776         2.10935 
        2.06781         11.8402         2.09376 
        2.07396         11.8033          2.0783 
        2.08009         11.7528         2.06302 
        2.08622         11.6592         2.04792 
        2.09237         11.6434         2.03293 
        2.09851         11.5998          2.0181 
        2.10464         11.5514         2.00343 
        2.11077         11.4846         1.98893 
        2.11691         11.4587         1.97454 
        2.12305         11.4319         1.96029 
        2.12918         11.3559         1.94622 
        2.13531         11.3236         1.93228 
        2.14145         11.2671         1.91844 
         2.1476         11.2552         1.90473 
        2.15372         11.1969         1.89122 
        2.15985         11.1262         1.87782 
        2.16599          11.115         1.86452 
        2.17213         11.0581         1.85135 
        2.17827         11.0326         1.83832 
         2.1844         10.9807         1.82543 
        2.19054         10.9348         1.81265 
        2.19666           10.93         1.80001 
         2.2028         10.8788         1.78749 
        2.20893         10.8181         1.77507 
        2.21508         10.7537         1.76276 
        2.22122         10.7223         1.75056 
        2.22736         10.7013          1.7385 
        2.23349         10.6426         1.72656 
        2.23962         10.5959         1.71472 
        2.24577         10.5613         1.70298 
         2.2519          10.548         1.69137 
        2.25802         10.5027         1.67989 
        2.26417         10.4768         1.66848 
        2.27031         10.3984         1.65716 
        2.27644          10.387         1.64599 
        2.28257         10.3366         1.63491 
        2.28872         10.3072         1.62392 
        2.29486         10.2657         1.61303 
        2.30099         10.2358         1.60226 
        2.30712         10.2067         1.59159 
        2.31326         10.1566         1.58099 
         2.3194         10.1325          1.5705 
        2.32553          10.081         1.56011 
        2.33166         10.0255         1.54983 
         2.3378         10.0012         1.53963 
        2.34394         9.97685         1.52951 
        2.35007          9.9193          1.5195 
        2.35619         9.86527         1.50959 
        2.36233         9.86268         1.49974 
        2.36848         9.84343         1.48996 
        2.37462         9.81029         1.48029 
        2.38075         9.74234         1.47072 
        2.38689         9.72735         1.46122 
        2.39303          9.6811          1.4518 
        2.39916         9.66134         1.44248 
        2.40529         9.61369         1.43324 
        2.41143         9.59423         1.42407 
        2.41757         9.55754         1.41498 
         2.4237         9.52725         1.40599 
        2.42983         9.47904         1.39707 
        2.43598         9.46176         1.38821 
        2.44211         9.42475         1.37944 
        2.44823         9.38119         1.37076 
        2.45437         9.36932         1.36214 
        2.46052         9.31787         1.35358 
        2.46665         9.28033         1.34511 
        2.47279         9.23638         1.33671 
        2.47892         9.22204         1.32839 
        2.48507         9.19799         1.32012 
         2.4912         9.16853         1.31194 
