# k  (h/Mpc)    Pcb(k)  (Mpc/h)^3    Pcb_linear(k)  (Mpc/h)^3
     0.00783031         1237.82         1248.82 
       0.013688         1669.13         1669.57 
       0.019231         1817.01         1817.46 
      0.0249154         1797.23         1809.89 
      0.0312784         1694.09         1698.94 
      0.0375637         1553.47         1552.56 
      0.0433917         1415.21         1422.16 
      0.0492413         1310.26          1312.1 
      0.0555754         1208.37         1218.01 
      0.0619321         1144.69         1141.86 
       0.067871         1070.07         1077.33 
      0.0738098         1003.55         1011.62 
      0.0800417         926.529         937.948 
      0.0862327         854.075         861.364 
      0.0921407         785.064         789.474 
      0.0982031         715.832         721.943 
       0.104506          662.96         662.319 
       0.110769         615.214         615.016 
       0.116806         575.666         579.363 
       0.122832         549.995         550.565 
       0.129052         520.022         524.314 
       0.135211         494.076         498.653 
       0.141259         470.436         472.045 
       0.147318         444.497         443.827 
       0.153489         413.379          414.58 
       0.159709          386.77         386.352 
       0.165845         366.053         361.323 
       0.171974         341.852         340.039 
       0.178125         324.949         322.469 
       0.184229         311.985         308.121 
        0.19034         295.664         295.749 
       0.196428         287.171         284.255 
       0.202534         278.042         272.666 
       0.208729         264.467         260.398 
       0.214876         250.126         247.773 
       0.220989         241.479         235.188 
       0.227147         226.333         223.054 
        0.23329          216.08          211.99 
       0.239377         208.051         202.327 
       0.245482         197.428         193.937 
       0.251667         192.759         186.539 
       0.257832         186.016         179.906 
       0.263955         179.647         173.674 
       0.270079         173.812         167.505 
        0.27624          169.43         161.227 
       0.282372         162.798         154.914 
        0.28843          156.08         148.739 
       0.294538         150.189         142.746 
       0.300721         146.345         137.076 
        0.30691         139.977         131.892 
       0.313033         135.724         127.252 
       0.319153         129.732         123.038 
       0.325316         127.754         119.108 
        0.33145         123.484         115.388 
       0.337538           120.6         111.792 
       0.343633         116.742         108.233 
       0.349808         113.463         104.667 
       0.355968          110.23         101.176 
       0.362074         106.864         97.8359 
       0.368217         103.973         94.6379 
       0.374374         100.767         91.6295 
       0.380519          98.282         88.8275 
       0.386598         95.7522          86.234 
       0.392688          93.841         83.7845 
        0.39888         91.2799          81.404 
       0.405048         89.3128         79.1118 
       0.411186         87.4339          76.889 
       0.417313         84.5556         74.7173 
       0.423458         82.6701         72.5955 
       0.429607         80.4622         70.5398 
       0.435692         78.0702         68.5836 
       0.441815         76.9419         66.7039 
       0.447964         75.7536         64.9086 
       0.454126         72.9187         63.1956 
       0.460267         71.6186          61.566 
       0.466387         69.7304         60.0075 
        0.47254         68.8064         58.4931 
       0.478662         67.5937         57.0305 
       0.484765         65.8636         55.6134 
       0.490885         64.3948         54.2322 
       0.497035         63.5837         52.8849 
       0.503198         62.0396         51.5799 
       0.509342         60.5229         50.3265 
       0.515458         59.4035         49.1262 
       0.521598         58.5159         47.9663 
       0.527764          57.359         46.8445 
       0.533884         56.3769         45.7703 
           0.54         55.3815          44.732 
       0.546137         54.5082         43.7209 
       0.552299         53.7124         42.7343 
       0.558452           52.09         41.7775 
       0.564573         51.4335         40.8534 
       0.570708           50.72         39.9549 
       0.576825         49.4767         39.0864 
       0.582926         48.7024         38.2472 
       0.589034          47.433         37.4335 
       0.595184         46.8733         36.6403 
       0.601379         46.1741         35.8664 
       0.607522         45.3417         35.1217 
       0.613639          45.006         34.4012 
       0.619772         43.8646         33.6986 
       0.625918         43.6874         33.0137 
       0.632068         42.9656         32.3473 
       0.638161         42.1493         31.7053 
         0.6443         41.3602         31.0764 
       0.650464          40.694         30.4626 
       0.656582         40.4526         29.8702 
       0.662703          39.726         29.2938 
       0.668861         39.0822         28.7298 
       0.675024         38.4487         28.1807 
       0.681124         37.8223         27.6519 
       0.687237         37.2521         27.1358 
       0.693381         36.9397         26.6306 
       0.699536         36.0506         26.1373 
       0.705665         35.9271         25.6587 
       0.711789         35.2462         25.1925 
       0.717957         34.8216         24.7347 
        0.72409         34.3087          24.291 
       0.730186         33.8895         23.8611 
       0.736317         33.5748         23.4395 
       0.742472         33.0198         23.0268 
       0.748622         32.6861         22.6246 
        0.75476         32.1105         22.2331 
       0.760888         31.7805         21.8516 
       0.767043         31.4257         21.4776 
       0.773185         30.8695         21.1131 
       0.779291         30.7041         20.7593 
       0.785407         30.3062         20.4131 
       0.791564         29.7904         20.0728 
       0.797719         29.3168         19.7404 
       0.803834         29.2178         19.4177 
       0.809972         28.9781         19.1013 
       0.816124         28.3064         18.7912 
       0.822261         28.1695          18.489 
       0.828378         27.8312         18.1945 
       0.834502         27.5427         17.9062 
       0.840667         27.2284         17.6224 
       0.846816         26.8032         17.3456 
       0.852925         26.5817         17.0766 
       0.859047         26.2883         16.8127 
       0.865192         26.0851         16.5537 
       0.871341          25.884            16.3 
       0.877463         25.4607         16.0528 
       0.883569         25.1331         15.8114 
       0.889708         24.8095         15.5738 
       0.895864         24.6957         15.3405 
       0.902008         24.4846         15.1126 
       0.908149         24.2326         14.8895 
       0.914301          24.037         14.6705 
       0.920448         23.5916         14.4563 
       0.926574         23.4327         14.2471 
       0.932687         23.2318         14.0425 
       0.938823         22.9393         13.8413 
       0.944975          22.684         13.6436 
       0.951105         22.5445         13.4505 
       0.957225         22.3358         13.2615 
       0.963368         22.1127         13.0755 
       0.969511         21.9505         12.8932 
       0.975621         21.7549         12.7153 
       0.981748         21.5133         12.5404 
       0.987916         21.3603         12.3677 
        0.99406          21.091         12.1989 
        1.00019         20.7962         12.0336 
        1.00632         20.8157         11.8716 
        1.01246         20.5776         11.7124 
        1.01859         20.3011         11.5564 
        1.02471         20.2086         11.4034 
        1.03085         20.0397         11.2527 
        1.03698         19.7516         11.1051 
        1.04314         19.6502         10.9595 
        1.04929         19.4019         10.8168 
        1.05541         19.2376         10.6774 
        1.06154         19.0862           10.54 
        1.06769         19.0174         10.4049 
        1.07382         18.7586         10.2727 
        1.07993         18.6606          10.143 
        1.08607         18.4849         10.0151 
        1.09222          18.339         9.88925 
        1.09836         18.1451         9.76575 
        1.10449         18.0404         9.64453 
        1.11063         17.9005         9.52525 
        1.11677           17.79         9.40804 
         1.1229         17.6723         9.29303 
        1.12903         17.4997         9.17986 
        1.13518         17.3027          9.0685 
        1.14131         17.1885         8.95906 
        1.14745         17.0542         8.85151 
        1.15359         16.9477         8.74572 
        1.15973         16.8333         8.64163 
        1.16584         16.6067         8.53972 
        1.17197         16.5307         8.43932 
        1.17811         16.4398         8.34025 
        1.18424         16.3159         8.24306 
        1.19038         16.2312         8.14716 
        1.19652         16.0769         8.05283 
        1.20267         15.9029         7.96001 
        1.20881         15.8999         7.86868 
        1.21495         15.7652         7.77894 
        1.22108         15.5921         7.69063 
         1.2272         15.5088         7.60391 
        1.23334         15.3401         7.51834 
        1.23949          15.251         7.43389 
        1.24562          15.205         7.35099 
        1.25174         15.0686         7.26949 
        1.25789         14.9833         7.18898 
        1.26402         14.9006         7.10984 
        1.27014         14.7838          7.0321 
        1.27628         14.6344         6.95529 
        1.28244          14.529          6.8795 
        1.28858         14.5037         6.80494 
        1.29471         14.3628         6.73166 
        1.30084         14.2349         6.65953 
        1.30697         14.2338         6.58836 
        1.31312         14.0162         6.51814 
        1.31925          13.964         6.44917 
        1.32537         13.8873         6.38127 
        1.33151         13.8157         6.31412 
        1.33765         13.6886         6.24797 
        1.34378         13.5913         6.18292 
        1.34992         13.5067         6.11875 
        1.35606         13.4411         6.05536 
         1.3622         13.3723         5.99299 
        1.36833         13.2828         5.93166 
        1.37445         13.2095         5.87122 
        1.38059         13.1564         5.81144 
        1.38675          13.036         5.75236 
        1.39288         12.9571         5.69434 
        1.39901         12.8327         5.63715 
        1.40515         12.8042         5.58063 
         1.4113         12.7437         5.52491 
        1.41742          12.655         5.47017 
        1.42355         12.5571         5.41607 
         1.4297         12.4588         5.36255 
        1.43585         12.4311         5.30978 
        1.44198         12.3924         5.25792 
        1.44809         12.2706         5.20686 
        1.45423          12.193          5.1563 
        1.46036         12.1387          5.1065 
        1.46649         12.0512         5.05734 
        1.47263         11.9667          5.0088 
        1.47877         11.9112         4.96092 
        1.48491         11.8389         4.91359 
        1.49104         11.7889         4.86699 
        1.49718         11.7261         4.82096 
        1.50333         11.6509         4.77545 
        1.50947         11.5834         4.73063 
         1.5156         11.5237         4.68645 
        1.52172         11.4597         4.64284 
        1.52787         11.3891         4.59971 
          1.534          11.325         4.55717 
        1.54013         11.2846         4.51523 
        1.54627         11.1891         4.47373 
        1.55241         11.1479         4.43276 
        1.55855         11.0972         4.39236 
        1.56467         11.0155         4.35258 
         1.5708          10.985         4.31318 
        1.57695         10.8875         4.27421 
        1.58308         10.8417         4.23582 
        1.58922         10.8045         4.19787 
        1.59535         10.7556         4.16041 
         1.6015         10.6795         4.12336 
        1.60764         10.6206         4.08677 
        1.61376         10.5796         4.05074 
        1.61989         10.5248         4.01511 
        1.62604         10.4574         3.97983 
        1.63218         10.4294           3.945 
        1.63831         10.3825         3.91067 
        1.64444         10.3322         3.87674 
        1.65059         10.2276         3.84314 
        1.65673         10.2001         3.80997 
        1.66285         10.1188         3.77729 
        1.66898          10.098         3.74498 
        1.67512         10.0511         3.71299 
        1.68127          10.001         3.68135 
         1.6874         9.95386         3.65015 
        1.69353         9.90117         3.61933 
        1.69967         9.84513         3.58879 
        1.70581         9.78589         3.55863 
        1.71193         9.76064         3.52892 
        1.71806         9.72854          3.4995 
        1.72421         9.64982         3.47035 
        1.73035           9.626         3.44157 
        1.73649         9.58445         3.41312 
        1.74262         9.50552         3.38502 
        1.74876         9.49519         3.35722 
        1.75489         9.46596         3.32979 
        1.76101         9.38781         3.30268 
        1.76715         9.35143         3.27583 
        1.77329         9.31447         3.24925 
        1.77943         9.24379         3.22296 
        1.78557          9.2382           3.197 
        1.79171         9.16621         3.17132 
        1.79785         9.13548         3.14591 
        1.80399         9.08068          3.1208 
        1.81012         9.05583         3.09599 
        1.81625         8.99397         3.07147 
        1.82239         8.96958         3.04717 
        1.82853         8.93185         3.02316 
        1.83466         8.89707         2.99942 
        1.84078          8.8464         2.97597 
        1.84692         8.82985         2.95273 
        1.85306          8.7652         2.92971 
         1.8592         8.72035         2.90697 
        1.86533         8.69773         2.88449 
        1.87147          8.6581         2.86223 
        1.87761         8.61359         2.84018 
        1.88375         8.58065          2.8184 
        1.88988         8.53531         2.79687 
        1.89601         8.51817         2.77556 
        1.90215         8.48248         2.75445 
        1.90829         8.43819         2.73358 
        1.91442         8.40476         2.71291 
        1.92056         8.35411         2.69249 
         1.9267          8.3286         2.67225 
        1.93284         8.29078         2.65221 
        1.93897         8.25624         2.63241 
        1.94509          8.2003         2.61286 
        1.95123         8.17294         2.59346 
        1.95737         8.13435         2.57425 
        1.96349         8.10729         2.55528 
        1.96964         8.08624         2.53644 
        1.97578         8.04086         2.51779 
        1.98192         8.01298         2.49936 
        1.98805         7.98533         2.48112 
        1.99419         7.95677         2.46306 
        2.00033         7.92887         2.44517 
        2.00647         7.88993         2.42747 
         2.0126         7.86443         2.40997 
        2.01874          7.8094         2.39261 
        2.02488         7.79369         2.37542 
        2.03101         7.74878         2.35842 
        2.03714         7.71985         2.34161 
        2.04328         7.68504         2.32495 
        2.04941         7.64699         2.30846 
        2.05554         7.62152         2.29214 
        2.06167         7.60082         2.27596 
        2.06781         7.57204         2.25993 
        2.07396         7.55312         2.24404 
        2.08009         7.51358         2.22833 
        2.08622         7.46832         2.21279 
        2.09237         7.47514         2.19736 
        2.09851         7.42215         2.18208 
        2.10464         7.39174         2.16697 
        2.11077         7.35618         2.15203 
        2.11691          7.3442         2.13719 
        2.12305         7.31447         2.12249 
        2.12918         7.29796         2.10797 
        2.13531         7.25264         2.09358 
        2.14145         7.23104         2.07929 
         2.1476         7.19495         2.06512 
        2.15372         7.17574         2.05115 
        2.15985         7.15121          2.0373 
        2.16599         7.11659         2.02354 
        2.17213         7.09697         2.00992 
        2.17827         7.07151         1.99644 
         2.1844         7.04114         1.98308 
        2.19054         7.02517         1.96985 
        2.19666         6.98735         1.95675 
         2.2028         6.95964         1.94377 
        2.20893         6.94561         1.93089 
        2.21508         6.90538         1.91812 
        2.22122         6.88321         1.90546 
        2.22736          6.8576         1.89294 
        2.23349          6.8525         1.88054 
        2.23962         6.80807         1.86824 
        2.24577         6.78013         1.85604 
         2.2519         6.77814         1.84397 
        2.25802         6.73268         1.83202 
        2.26417         6.70778         1.82015 
        2.27031           6.685         1.80837 
        2.27644         6.66666         1.79673 
        2.28257          6.6396          1.7852 
        2.28872         6.62265         1.77374 
        2.29486          6.5942         1.76239 
        2.30099          6.5722         1.75116 
        2.30712         6.54743         1.74003 
        2.31326         6.51581         1.72897 
         2.3194         6.50589         1.71801 
        2.32553         6.46626         1.70717 
        2.33166         6.45636         1.69643 
         2.3378         6.43631         1.68577 
        2.34394         6.41438         1.67519 
        2.35007         6.38497         1.66472 
        2.35619         6.37363         1.65436 
        2.36233         6.35628         1.64405 
        2.36848         6.31818         1.63382 
        2.37462         6.30269         1.62369 
        2.38075          6.2908         1.61366 
        2.38689         6.24874         1.60371 
        2.39303         6.24202         1.59384 
        2.39916         6.21811         1.58407 
        2.40529         6.19591         1.57437 
        2.41143         6.18297         1.56476 
        2.41757         6.15897         1.55522 
         2.4237         6.14053         1.54577 
        2.42983           6.092         1.53641 
        2.43598         6.10215          1.5271 
        2.44211          6.0686         1.51788 
        2.44823         6.05235         1.50876 
        2.45437         6.02328         1.49969 
        2.46052         6.00798         1.49069 
        2.46665         5.99357         1.48178 
        2.47279         5.97534         1.47294 
        2.47892         5.95515         1.46417 
        2.48507         5.93992         1.45546 
         2.4912         5.90468         1.44684 
