# k  (h/Mpc)    P(k)  (Mpc/h)^3    P_linear(k)  (Mpc/h)^3
     0.00783031         1697.54         1719.11 
       0.013688         2119.42         2122.98 
       0.019231          2153.7         2154.75 
      0.0249154         1990.11         2004.44 
      0.0312784         1749.96         1753.27 
      0.0375637         1512.44         1509.25 
      0.0433917         1320.61         1324.66 
      0.0492413         1187.42         1186.71 
      0.0555754         1072.87         1080.16 
      0.0619321         1003.87         998.922 
       0.067871         925.067         929.865 
      0.0738098         852.797         857.607 
      0.0800417         768.911          775.93 
      0.0862327         690.487         693.104 
      0.0921407         619.172         619.171 
      0.0982031         552.694         554.299 
       0.104506         505.781         501.599 
       0.110769          466.79         463.329 
       0.116806         436.608         436.337 
       0.122832         416.945         414.637 
       0.129052         392.554         393.402 
       0.135211          369.99         370.674 
       0.141259         347.764         345.966 
       0.147318         323.466         319.864 
       0.153489         296.265         293.908 
       0.159709         273.957         270.437 
       0.165845          257.43          251.17 
       0.171974          239.96         235.988 
       0.178125         228.636         224.139 
       0.184229         219.543          214.53 
        0.19034          207.83         205.763 
       0.196428          201.07         196.876 
       0.202534          193.31         187.324 
       0.208729          182.08         177.042 
       0.214876         170.876         166.718 
       0.220989         163.197         156.931 
       0.227147         152.758         148.059 
        0.23329         145.411         140.444 
       0.239377         139.956         134.088 
       0.245482         132.725         128.655 
       0.251667          129.55         123.745 
       0.257832         124.809         119.095 
       0.263955         120.092         114.474 
       0.270079         115.443          109.75 
        0.27624         111.916          104.95 
       0.282372         107.168         100.255 
        0.28843         102.317          95.852 
       0.294538          98.148         91.7668 
       0.300721         95.4872         88.0447 
        0.30691         91.2028          84.712 
       0.313033         88.3843         81.7217 
       0.319153         84.4016         78.9401 
       0.325316         82.9961         76.2531 
        0.33145         79.9476          73.633 
       0.337538         77.7972         71.0622 
       0.343633         74.9883         68.5327 
       0.349808         72.7244         66.0491 
       0.355968         70.5184         63.6866 
       0.362074         68.1892         61.4888 
       0.368217         66.1852         59.4275 
       0.374374         64.1119         57.5062 
       0.380519         62.4876         55.7079 
       0.386598         60.8156          54.019 
       0.392688         59.4853         52.3941 
        0.39888         57.7405         50.7907 
       0.405048         56.3302         49.2378 
       0.411186         54.9676         47.7375 
       0.417313         53.1529         46.2907 
       0.423458          51.816         44.8997 
       0.429607         50.3997         43.5735 
       0.435692         48.8409         42.3254 
       0.441815         48.0169         41.1317 
       0.447964          47.195         39.9889 
       0.454126         45.3534          38.891 
       0.460267         44.5607         37.8371 
       0.466387         43.2761         36.8224 
        0.47254         42.6062          35.834 
       0.478662          41.839         34.8819 
       0.484765         40.6108         33.9652 
       0.490885         39.6878         33.0794 
       0.497035         39.1804         32.2229 
       0.503198         38.1448         31.3984 
       0.509342         37.1725         30.6088 
       0.515458         36.4234         29.8525 
       0.521598         35.8067         29.1202 
       0.527764          35.048         28.4094 
       0.533884         34.4509         27.7269 
           0.54         33.7202         27.0667 
       0.546137         33.1733         26.4247 
       0.552299         32.6368         25.8005 
       0.558452         31.6327         25.1975 
       0.564573         31.1953         24.6176 
       0.570708         30.6864         24.0557 
       0.576825         29.9323         23.5139 
       0.582926         29.3937         22.9909 
       0.589034         28.6375         22.4837 
       0.595184         28.2715         21.9887 
       0.601379         27.7463         21.5053 
       0.607522         27.2658         21.0404 
       0.613639         26.9917          20.591 
       0.619772         26.2874         20.1535 
       0.625918         26.1518          19.728 
       0.632068         25.7167         19.3148 
       0.638161         25.1712         18.9174 
         0.6443         24.6759         18.5286 
       0.650464         24.2444         18.1497 
       0.656582         24.0883         17.7843 
       0.662703         23.6366          17.429 
       0.668861         23.2092         17.0814 
       0.675024         22.7988         16.7431 
       0.681124         22.4133         16.4174 
       0.687237         22.0598         16.0999 
       0.693381          21.856         15.7894 
       0.699536         21.2857         15.4866 
       0.705665         21.1882         15.1932 
       0.711789         20.7639         14.9078 
       0.717957         20.4766         14.6279 
        0.72409          20.166         14.3568 
       0.730186         19.8959         14.0943 
       0.736317         19.6887         13.8371 
       0.742472         19.3609         13.5854 
       0.748622         19.1387         13.3403 
        0.75476         18.7857         13.1018 
       0.760888         18.5473         12.8696 
       0.767043         18.3323         12.6422 
       0.773185         17.9919         12.4208 
       0.779291         17.8923         12.2061 
       0.785407         17.6496         11.9962 
       0.791564         17.3509           11.79 
       0.797719         17.0065         11.5888 
       0.803834         16.9613         11.3936 
       0.809972         16.8108         11.2023 
       0.816124         16.4308          11.015 
       0.822261         16.2642         10.8326 
       0.828378         16.0798         10.6549 
       0.834502         15.9389          10.481 
       0.840667         15.7052           10.31 
       0.846816         15.4367         10.1433 
       0.852925         15.2969          9.9814 
       0.859047         15.1273         9.82272 
       0.865192          14.997         9.66701 
       0.871341         14.8651         9.51461 
       0.877463         14.6062         9.36622 
       0.883569         14.4136          9.2214 
       0.889708         14.1977         9.07894 
       0.895864         14.1021         8.93915 
       0.902008          13.983         8.80262 
       0.908149          13.832         8.66905 
       0.914301         13.7014         8.53807 
       0.920448         13.4627         8.40993 
       0.926574         13.3376          8.2849 
       0.932687         13.2095         8.16271 
       0.938823         13.0346         8.04256 
       0.944975         12.8822         7.92458 
       0.951105         12.7738         7.80941 
       0.957225          12.681         7.69676 
       0.963368         12.5419         7.58597 
       0.969511         12.4236         7.47738 
       0.975621         12.2931         7.37152 
       0.981748         12.1508         7.26746 
       0.987916         12.0674         7.16477 
        0.99406         11.8889         7.06448 
        1.00019         11.7173         6.96633 
        1.00632         11.7063         6.87016 
        1.01246         11.5739         6.77567 
        1.01859         11.4029         6.68314 
        1.02471         11.3412         6.59247 
        1.03085         11.2305         6.50319 
        1.03698         11.0696         6.41576 
        1.04314         11.0102         6.32959 
        1.04929         10.8664         6.24522 
        1.05541         10.7516         6.16275 
        1.06154         10.6754         6.08157 
        1.06769         10.6273         6.00176 
        1.07382         10.4687         5.92365 
        1.07993         10.3911         5.84712 
        1.08607         10.3072         5.77164 
        1.09222         10.2181         5.69743 
        1.09836         10.1049         5.62462 
        1.10449         10.0221         5.55318 
        1.11063         9.92956         5.48291 
        1.11677          9.8781         5.41388 
         1.1229         9.80484         5.34618 
        1.12903          9.6882         5.27959 
        1.13518         9.57722         5.21408 
        1.14131         9.50519         5.14973 
        1.14745         9.41908         5.08651 
        1.15359         9.36263         5.02435 
        1.15973         9.28156         4.96321 
        1.16584         9.15053         4.90336 
        1.17197         9.09539         4.84443 
        1.17811         9.05535          4.7863 
        1.18424         8.97659         4.72929 
        1.19038          8.9351         4.67305 
        1.19652         8.83428         4.61776 
        1.20267         8.74164         4.56337 
        1.20881         8.72202         4.50987 
        1.21495         8.64372         4.45733 
        1.22108         8.54431         4.40563 
         1.2272         8.49651         4.35489 
        1.23334         8.40137         4.30483 
        1.23949         8.33472         4.25545 
        1.24562         8.30095         4.20699 
        1.25174         8.22897         4.15936 
        1.25789          8.1733         4.11233 
        1.26402         8.12637         4.06612 
        1.27014         8.05749         4.02074 
        1.27628         7.96787         3.97592 
        1.28244         7.89544          3.9317 
        1.28858         7.88941         3.88823 
        1.29471          7.8005         3.84551 
        1.30084         7.72712         3.80348 
        1.30697         7.72911         3.76202 
        1.31312         7.60055         3.72112 
        1.31925         7.56094         3.68097 
        1.32537         7.51189         3.64145 
        1.33151         7.48202         3.60237 
        1.33765         7.40095          3.5639 
        1.34378         7.34838         3.52607 
        1.34992         7.30593         3.48876 
        1.35606         7.24595         3.45192 
         1.3622         7.20935         3.41568 
        1.36833         7.15171         3.38005 
        1.37445         7.10917         3.34495 
        1.38059         7.08456         3.31024 
        1.38675         7.02203         3.27594 
        1.39288         6.98127         3.24227 
        1.39901         6.90423         3.20909 
        1.40515         6.87375          3.1763 
         1.4113         6.83215         3.14399 
        1.41742         6.78621         3.11225 
        1.42355         6.72529          3.0809 
         1.4297         6.68582         3.04988 
        1.43585         6.66042         3.01931 
        1.44198         6.63293         2.98927 
        1.44809         6.56773         2.95971 
        1.45423         6.51948         2.93044 
        1.46036         6.47552         2.90161 
        1.46649          6.4355         2.87317 
        1.47263         6.38485         2.84509 
        1.47877         6.34634          2.8174 
        1.48491         6.31131         2.79004 
        1.49104         6.27393          2.7631 
        1.49718         6.24025          2.7365 
        1.50333         6.20473         2.71021 
        1.50947         6.15734         2.68433 
         1.5156         6.12286         2.65882 
        1.52172         6.08993         2.63364 
        1.52787         6.05413         2.60875 
          1.534         6.00626          2.5842 
        1.54013         5.98509            2.56 
        1.54627         5.92934         2.53607 
        1.55241         5.90032         2.51245 
        1.55855         5.87812         2.48916 
        1.56467           5.834         2.46623 
         1.5708         5.80829         2.44352 
        1.57695         5.75589         2.42107 
        1.58308         5.71954         2.39896 
        1.58922          5.7069         2.37711 
        1.59535         5.67627         2.35554 
         1.6015         5.63093          2.3342 
        1.60764         5.59426         2.31315 
        1.61376         5.57089         2.29241 
        1.61989          5.5425         2.27192 
        1.62604         5.50107         2.25163 
        1.63218         5.49015          2.2316 
        1.63831          5.4544         2.21186 
        1.64444         5.42588         2.19236 
        1.65059         5.36812         2.17304 
        1.65673         5.36656         2.15398 
        1.66285         5.31459         2.13521 
        1.66898          5.2932         2.11665 
        1.67512         5.26392         2.09828 
        1.68127         5.23492         2.08011 
         1.6874         5.21812          2.0622 
        1.69353         5.17225         2.04451 
        1.69967         5.15309         2.02699 
        1.70581         5.12703         2.00968 
        1.71193         5.09852         1.99264 
        1.71806         5.07985         1.97576 
        1.72421         5.04343         1.95905 
        1.73035          5.0289         1.94255 
        1.73649         4.99714         1.92624 
        1.74262          4.9637         1.91014 
        1.74876         4.94995         1.89421 
        1.75489          4.9265         1.87849 
        1.76101         4.88516         1.86296 
        1.76715         4.87263         1.84759 
        1.77329           4.849         1.83237 
        1.77943         4.80397         1.81731 
        1.78557         4.79797         1.80245 
        1.79171         4.76765         1.78775 
        1.79785         4.74362         1.77322 
        1.80399         4.71633         1.75885 
        1.81012         4.69886         1.74466 
        1.81625         4.67278         1.73063 
        1.82239         4.65209         1.71674 
        1.82853         4.62632         1.70301 
        1.83466         4.61232         1.68944 
        1.84078         4.58753         1.67604 
        1.84692         4.57538         1.66276 
        1.85306         4.53528          1.6496 
         1.8592         4.51056         1.63662 
        1.86533         4.49459         1.62378 
        1.87147         4.47844         1.61106 
        1.87761         4.45079         1.59847 
        1.88375         4.43066         1.58604 
        1.88988         4.40533         1.57375 
        1.89601         4.39006         1.56159 
        1.90215         4.37208         1.54954 
        1.90829          4.3436         1.53763 
        1.91442         4.32939         1.52584 
        1.92056         4.30391         1.51419 
         1.9267         4.28478         1.50265 
        1.93284         4.26836         1.49122 
        1.93897          4.2474         1.47994 
        1.94509         4.22321         1.46879 
        1.95123         4.20342         1.45774 
        1.95737         4.17912         1.44678 
        1.96349         4.16941         1.43597 
        1.96964         4.15571         1.42524 
        1.97578         4.12404         1.41462 
        1.98192         4.11441         1.40413 
        1.98805         4.09739         1.39374 
        1.99419         4.07774         1.38345 
        2.00033         4.06537         1.37327 
        2.00647         4.04057         1.36319 
         2.0126         4.02882         1.35323 
        2.01874         3.99839         1.34336 
        2.02488         3.99175         1.33357 
        2.03101         3.96065          1.3239 
        2.03714         3.94943         1.31434 
        2.04328         3.93167         1.30486 
        2.04941          3.9061         1.29548 
        2.05554         3.89707         1.28621 
        2.06167         3.88589         1.27701 
        2.06781         3.86517          1.2679 
        2.07396         3.85502         1.25887 
        2.08009          3.8348         1.24994 
        2.08622         3.81261          1.2411 
        2.09237         3.80275         1.23234 
        2.09851         3.78567         1.22366 
        2.10464         3.77062         1.21508 
        2.11077         3.75044         1.20659 
        2.11691         3.73714         1.19816 
        2.12305         3.72523         1.18982 
        2.12918         3.71565         1.18157 
        2.13531         3.69645          1.1734 
        2.14145         3.68055         1.16529 
         2.1476         3.65839         1.15725 
        2.15372         3.64565         1.14932 
        2.15985         3.63784         1.14147 
        2.16599         3.61744         1.13366 
        2.17213         3.59974         1.12593 
        2.17827          3.5911         1.11828 
         2.1844         3.57245         1.11071 
        2.19054         3.56444          1.1032 
        2.19666         3.54418         1.09578 
         2.2028          3.5285         1.08842 
        2.20893         3.51813         1.08112 
        2.21508           3.499         1.07388 
        2.22122         3.48639          1.0667 
        2.22736          3.4737         1.05961 
        2.23349         3.46621         1.05258 
        2.23962         3.44728         1.04561 
        2.24577         3.43394          1.0387 
         2.2519          3.4245         1.03187 
        2.25802         3.40916          1.0251 
        2.26417         3.39809         1.01838 
        2.27031         3.38035         1.01171 
        2.27644         3.36948         1.00512 
        2.28257         3.35282        0.998591 
        2.28872         3.34693        0.992107 
        2.29486         3.32894        0.985682 
        2.30099         3.31552        0.979328 
        2.30712         3.30181        0.973027 
        2.31326         3.28906        0.966771 
         2.3194         3.27978        0.960574 
        2.32553         3.26466        0.954441 
        2.33166         3.25833        0.948366 
         2.3378         3.24321        0.942335 
        2.34394         3.23171        0.936355 
        2.35007         3.21718        0.930435 
        2.35619         3.21075        0.924574 
        2.36233          3.1995         0.91875 
        2.36848          3.1804        0.912965 
        2.37462         3.17542        0.907241 
        2.38075         3.16044        0.901573 
        2.38689         3.15239        0.895948 
        2.39303         3.13944        0.890373 
        2.39916         3.12666        0.884851 
        2.40529         3.11652        0.879376 
        2.41143         3.10485        0.873944 
        2.41757          3.0932        0.868556 
         2.4237         3.08475        0.863223 
        2.42983         3.05933        0.857935 
        2.43598         3.06409        0.852678 
        2.44211         3.04407        0.847474 
        2.44823         3.03982        0.842326 
        2.45437         3.02335        0.837206 
        2.46052          3.0187        0.832124 
        2.46665         3.00803        0.827094 
        2.47279         2.99559        0.822107 
        2.47892         2.98703        0.817158 
        2.48507           2.976        0.812246 
         2.4912         2.95795        0.807383 
