# k  (h/Mpc)    Pcb(k)  (Mpc/h)^3    Pcb_linear(k)  (Mpc/h)^3
     0.00783031         335.562         338.065 
       0.013688         420.787         424.321 
       0.019231         434.015         435.434 
      0.0249154         407.137         407.387 
      0.0312784         356.562         356.693 
      0.0375637         306.145          306.36 
      0.0433917          268.81         268.276 
      0.0492413         240.328         240.267 
      0.0555754         219.915         219.379 
      0.0619321         203.325         204.122 
       0.067871         191.123         191.269 
      0.0738098         177.308         177.381 
      0.0800417         161.142         160.966 
      0.0862327         143.685         143.692 
      0.0921407         127.906          127.91 
      0.0982031         114.236         113.927 
       0.104506          102.53         102.635 
       0.110769         94.6202         94.6697 
       0.116806         89.6116         89.3644 
       0.122832         85.2945         85.3691 
       0.129052         81.6193          81.536 
       0.135211         77.4489         77.2541 
       0.141259         72.3219          72.306 
       0.147318         66.6672         66.8107 
       0.153489         61.2054         61.1603 
       0.159709         56.1495         55.9714 
       0.165845         51.6312         51.7331 
       0.171974         48.7537         48.4922 
       0.178125         46.3205         46.1087 
       0.184229         44.3763          44.315 
        0.19034         42.9818         42.7456 
       0.196428          41.282         41.1146 
       0.202534         39.1805         39.2447 
       0.208729         37.2352         37.0968 
       0.214876         35.1147         34.8355 
       0.220989         32.6909         32.6372 
       0.227147         30.9608         30.6406 
        0.23329         29.3126         28.9664 
       0.239377         28.0008         27.6341 
       0.245482         26.8965         26.5665 
       0.251667         25.8701         25.6554 
       0.257832         25.1484         24.8032 
       0.263955          24.156         23.9252 
       0.270079         23.2045         22.9742 
        0.27624         22.1075         21.9508 
       0.282372         21.0994         20.9112 
        0.28843         20.2526         19.9194 
       0.294538         19.3156         19.0054 
       0.300721         18.4278         18.1963 
        0.30691         17.8415         17.5042 
       0.313033         17.2126         16.9137 
       0.319153         16.7988         16.3819 
       0.325316         16.1105         15.8694 
        0.33145         15.5899         15.3553 
       0.337538         15.0958         14.8292 
       0.343633         14.6004         14.2904 
       0.349808         14.0284          13.746 
       0.355968         13.4941         13.2235 
       0.362074         13.0752         12.7405 
       0.368217         12.6162          12.299 
       0.374374         12.2875         11.9002 
       0.380519         11.8439         11.5386 
       0.386598         11.4816         11.2056 
       0.392688         11.1419         10.8844 
        0.39888         10.8577         10.5627 
       0.405048         10.5485         10.2428 
       0.411186         10.2199         9.92527 
       0.417313         9.91488         9.61417 
       0.423458         9.57512         9.31308 
       0.429607         9.34593         9.02713 
       0.435692         9.10055         8.76275 
       0.441815         8.80832         8.51459 
       0.447964         8.53986         8.28081 
       0.454126         8.36055         8.05891 
       0.460267         8.18919         7.84623 
       0.466387         7.95519         7.63913 
        0.47254          7.7698         7.43464 
       0.478662         7.55231         7.23526 
       0.484765         7.36271         7.04115 
       0.490885          7.1519         6.85252 
       0.497035         6.94865         6.67075 
       0.503198         6.80456         6.49742 
       0.509342         6.61023           6.333 
       0.515458         6.48041         6.17669 
       0.521598         6.33071         6.02627 
       0.527764         6.20919         5.88065 
       0.533884         6.01994         5.74036 
           0.54         5.89958         5.60349 
       0.546137         5.73921         5.46938 
       0.552299         5.62168         5.33844 
       0.558452         5.49381         5.21182 
       0.564573         5.38138         5.09015 
       0.570708          5.2609         4.97248 
       0.576825         5.14709         4.85943 
       0.582926         5.02658         4.75084 
       0.589034         4.93807         4.64599 
       0.595184          4.8478         4.54383 
       0.601379         4.72518         4.44394 
       0.607522         4.62429         4.34748 
       0.613639         4.51492         4.25388 
       0.619772         4.44367         4.16258 
       0.625918         4.35008         4.07374 
       0.632068         4.26951         3.98755 
       0.638161         4.18102         3.90481 
         0.6443         4.09448         3.82396 
       0.650464         4.01123         3.74523 
       0.656582         3.95398         3.66937 
       0.662703         3.87702         3.59563 
       0.668861         3.77905         3.52353 
       0.675024         3.71435         3.45337 
       0.681124         3.68556         3.38581 
       0.687237         3.59573         3.31991 
       0.693381         3.50787         3.25542 
       0.699536         3.46933          3.1925 
       0.705665         3.40416         3.13151 
       0.711789         3.32731         3.07217 
       0.717957         3.26904         3.01399 
        0.72409          3.2158         2.95768 
       0.730186         3.17683         2.90319 
       0.736317         3.10562         2.84982 
       0.742472         3.06271         2.79763 
       0.748622         3.01361         2.74681 
        0.75476         2.94584         2.69738 
       0.760888          2.9112         2.64923 
       0.767043         2.83499         2.60207 
       0.773185          2.8006         2.55615 
       0.779291         2.77377          2.5116 
       0.785407         2.71824         2.46804 
       0.791564         2.67451         2.42525 
       0.797719         2.62878         2.38351 
       0.803834          2.5877         2.34302 
       0.809972         2.54586         2.30333 
       0.816124         2.50647         2.26449 
       0.822261         2.47047         2.22666 
       0.828378         2.42773         2.18982 
       0.834502         2.39127         2.15379 
       0.840667          2.3617         2.11835 
       0.846816         2.32072         2.08381 
       0.852925         2.28153         2.05026 
       0.859047         2.24844         2.01739 
       0.865192         2.21677         1.98513 
       0.871341         2.18681         1.95357 
       0.877463         2.14764         1.92284 
       0.883569           2.119         1.89285 
       0.889708         2.09314         1.86335 
       0.895864         2.06268         1.83442 
       0.902008         2.02652         1.80616 
       0.908149          2.0019         1.77851 
       0.914301         1.97796         1.75141 
       0.920448         1.95099          1.7249 
       0.926574         1.93038         1.69903 
       0.932687         1.89984         1.67376 
       0.938823         1.86485         1.64891 
       0.944975         1.84697         1.62451 
       0.951105         1.81158         1.60069 
       0.957225         1.79171          1.5774 
       0.963368         1.77262         1.55449 
       0.969511         1.75142         1.53204 
       0.975621         1.72264         1.51016 
       0.981748         1.69177         1.48865 
       0.987916         1.67394         1.46743 
        0.99406          1.6582          1.4467 
        1.00019         1.63502         1.42642 
        1.00632         1.61959         1.40654 
        1.01246         1.59582         1.38702 
        1.01859         1.57607          1.3679 
        1.02471         1.54956         1.34917 
        1.03085         1.53104         1.33073 
        1.03698          1.5161         1.31267 
        1.04314         1.49748         1.29487 
        1.04929         1.48202         1.27744 
        1.05541         1.45672         1.26041 
        1.06154         1.44434         1.24365 
        1.06769           1.429         1.22717 
        1.07382         1.40893         1.21104 
        1.07993         1.39158         1.19524 
        1.08607         1.37708         1.17966 
        1.09222         1.35702         1.16435 
        1.09836         1.34605         1.14932 
        1.10449           1.324         1.13458 
        1.11063         1.30929         1.12008 
        1.11677         1.29758         1.10584 
         1.1229         1.27713         1.09188 
        1.12903          1.2679         1.07815 
        1.13518         1.24987         1.06464 
        1.14131         1.23816         1.05137 
        1.14745         1.22617         1.03834 
        1.15359         1.21027         1.02552 
        1.15973          1.1978         1.01292 
        1.16584         1.18245         1.00059 
        1.17197         1.16831        0.988449 
        1.17811         1.15552        0.976471 
        1.18424         1.14312        0.964727 
        1.19038         1.12897        0.953143 
        1.19652          1.1214        0.941755 
        1.20267         1.11068        0.930554 
        1.20881          1.0933        0.919538 
        1.21495         1.08414        0.908718 
        1.22108          1.0735        0.898075 
         1.2272         1.05821        0.887628 
        1.23334         1.04949        0.877324 
        1.23949         1.04031        0.867159 
        1.24562         1.02869        0.857185 
        1.25174         1.01843        0.847383 
        1.25789         1.00478        0.837705 
        1.26402        0.995498        0.828196 
        1.27014        0.982801        0.818859 
        1.27628        0.976455        0.809637 
        1.28244        0.966726        0.800541 
        1.28858        0.954319        0.791596 
        1.29471        0.944615        0.782809 
        1.30084        0.936479        0.774164 
        1.30697        0.929893        0.765637 
        1.31312         0.91931        0.757226 
        1.31925        0.910063        0.748968 
        1.32537        0.901851        0.740843 
        1.33151        0.891881        0.732809 
        1.33765        0.883482          0.7249 
        1.34378        0.873272        0.717124 
        1.34992        0.868498        0.709456 
        1.35606        0.857913        0.701885 
         1.3622        0.850587        0.694438 
        1.36833        0.842992        0.687117 
        1.37445         0.83496        0.679906 
        1.38059        0.826831        0.672777 
        1.38675        0.818832        0.665734 
        1.39288        0.810606        0.658819 
        1.39901        0.803963        0.652007 
        1.40515        0.795594        0.645275 
         1.4113        0.791607        0.638642 
        1.41742        0.782013        0.632128 
        1.42355        0.772523        0.625692 
         1.4297        0.768962        0.619327 
        1.43585        0.759986        0.613054 
        1.44198        0.754095        0.606891 
        1.44809        0.746465        0.600825 
        1.45423        0.741002         0.59482 
        1.46036        0.734151        0.588908 
        1.46649        0.726579        0.583074 
        1.47263        0.719872        0.577315 
        1.47877        0.717482        0.571636 
        1.48491        0.706426        0.566025 
        1.49104        0.704121        0.560501 
        1.49718        0.695344        0.555047 
        1.50333         0.69084        0.549657 
        1.50947        0.685678         0.54435 
         1.5156        0.679019         0.53912 
        1.52172        0.673868         0.53396 
        1.52787         0.66636        0.528857 
          1.534        0.663023        0.523827 
        1.54013        0.656733        0.518868 
        1.54627        0.651157        0.513964 
        1.55241        0.644756        0.509123 
        1.55855         0.64004        0.504352 
        1.56467        0.635037        0.499655 
         1.5708        0.629144        0.495004 
        1.57695        0.623511        0.490406 
        1.58308        0.617158        0.485877 
        1.58922        0.614356        0.481403 
        1.59535        0.608014        0.476986 
         1.6015        0.603123        0.472619 
        1.60764        0.598572        0.468309 
        1.61376        0.593647        0.464064 
        1.61989        0.589035        0.459869 
        1.62604        0.583327        0.455716 
        1.63218        0.580497        0.451618 
        1.63831        0.574614        0.447579 
        1.64444        0.570732        0.443589 
        1.65059        0.565638        0.439637 
        1.65673        0.561335        0.435738 
        1.66285        0.557569        0.431898 
        1.66898        0.553224        0.428103 
        1.67512        0.547577        0.424346 
        1.68127        0.543119         0.42063 
         1.6874        0.540505        0.416968 
        1.69353         0.53563        0.413351 
        1.69967        0.531752        0.409769 
        1.70581        0.528334        0.406231 
        1.71193        0.524484        0.402748 
        1.71806        0.520397        0.399298 
        1.72421        0.515952        0.395882 
        1.73035        0.510898         0.39251 
        1.73649        0.509695        0.389178 
        1.74262        0.503705        0.385888 
        1.74876        0.500961        0.382633 
        1.75489        0.497651        0.379423 
        1.76101        0.492986         0.37625 
        1.76715         0.48983         0.37311 
        1.77329        0.486257        0.370001 
        1.77943        0.482511        0.366927 
        1.78557        0.480543        0.363892 
        1.79171        0.476714        0.360891 
        1.79785        0.472467        0.357924 
        1.80399        0.467995         0.35499 
        1.81012        0.465856        0.352094 
        1.81625        0.463085        0.349231 
        1.82239        0.460018        0.346395 
        1.82853         0.45594        0.343593 
        1.83466        0.452504        0.340824 
        1.84078        0.448894        0.338089 
        1.84692        0.446475        0.335379 
        1.85306        0.443744        0.332696 
         1.8592        0.440249        0.330046 
        1.86533         0.43787        0.327427 
        1.87147        0.433426        0.324833 
        1.87761        0.430904        0.322266 
        1.88375        0.428301         0.31973 
        1.88988         0.42459        0.317225 
        1.89601        0.421157        0.314744 
        1.90215        0.419322        0.312289 
        1.90829        0.415703         0.30986 
        1.91442        0.413787        0.307458 
        1.92056        0.411772        0.305083 
         1.9267        0.407842         0.30273 
        1.93284          0.4048        0.300401 
        1.93897        0.402877        0.298101 
        1.94509         0.40054        0.295831 
        1.95123        0.396639        0.293578 
        1.95737        0.394363        0.291346 
        1.96349        0.391812        0.289144 
        1.96964        0.389213        0.286958 
        1.97578        0.386375        0.284794 
        1.98192        0.384567        0.282657 
        1.98805        0.382225        0.280541 
        1.99419        0.380092        0.278447 
        2.00033        0.377274        0.276373 
        2.00647        0.374644        0.274321 
         2.0126        0.372422        0.272293 
        2.01874        0.370278        0.270283 
        2.02488        0.367546        0.268291 
        2.03101         0.36499        0.266323 
        2.03714        0.363885        0.264377 
        2.04328        0.360252        0.262448 
        2.04941        0.358858         0.26054 
        2.05554        0.356581        0.258652 
        2.06167        0.354194         0.25678 
        2.06781        0.350753        0.254926 
        2.07396        0.349916        0.253089 
        2.08009        0.347357        0.251272 
        2.08622        0.345557        0.249476 
        2.09237        0.343346        0.247693 
        2.09851        0.340626        0.245928 
        2.10464        0.338944        0.244183 
        2.11077        0.336219        0.242456 
        2.11691        0.334832        0.240743 
        2.12305        0.332797        0.239046 
        2.12918        0.330544         0.23737 
        2.13531        0.328979        0.235709 
        2.14145        0.326621        0.234061 
         2.1476        0.324949        0.232427 
        2.15372        0.323142        0.230816 
        2.15985        0.320635        0.229219 
        2.16599        0.319103        0.227632 
        2.17213        0.317359        0.226063 
        2.17827        0.315038        0.224508 
         2.1844        0.313932         0.22297 
        2.19054        0.312035        0.221445 
        2.19666        0.310156        0.219937 
         2.2028        0.307501        0.218441 
        2.20893         0.30644        0.216959 
        2.21508        0.304683        0.215489 
        2.22122        0.303178        0.214032 
        2.22736        0.300516        0.212591 
        2.23349        0.298581        0.211164 
        2.23962        0.297288         0.20975 
        2.24577        0.295874        0.208347 
         2.2519        0.294328        0.206959 
        2.25802        0.292444        0.205586 
        2.26417        0.290892        0.204221 
        2.27031        0.289098        0.202868 
        2.27644        0.288496        0.201531 
        2.28257        0.286095        0.200206 
        2.28872        0.284691         0.19889 
        2.29486        0.282979        0.197587 
        2.30099         0.28128        0.196297 
        2.30712         0.27983        0.195019 
        2.31326        0.278091         0.19375 
         2.3194        0.277003        0.192493 
        2.32553        0.275288        0.191249 
        2.33166        0.273946        0.190017 
         2.3378        0.272267        0.188794 
        2.34394        0.270872        0.187581 
        2.35007        0.269368        0.186381 
        2.35619        0.267543        0.185193 
        2.36233        0.266252        0.184012 
        2.36848        0.265051        0.182839 
        2.37462        0.264043        0.181679 
        2.38075        0.262453         0.18053 
        2.38689        0.261192         0.17939 
        2.39303        0.259603         0.17826 
        2.39916        0.258129        0.177141 
        2.40529        0.257055        0.176032 
        2.41143        0.255138        0.174931 
        2.41757        0.254063        0.173839 
         2.4237        0.252758        0.172759 
        2.42983        0.251932        0.171688 
        2.43598        0.250346        0.170623 
        2.44211        0.248182        0.169569 
        2.44823        0.247964        0.168526 
        2.45437        0.246716        0.167489 
        2.46052        0.245255         0.16646 
        2.46665         0.24385        0.165441 
        2.47279         0.24251        0.164432 
        2.47892        0.241743         0.16343 
        2.48507        0.240239        0.162435 
         2.4912        0.239235        0.161451 
