# k  (h/Mpc)    P(k)  (Mpc/h)^3    P_linear(k)  (Mpc/h)^3
     0.00783031         1055.97         1068.32 
       0.013688         1280.97          1283.9 
       0.019231         1271.78         1272.16 
      0.0249154         1144.88         1151.09 
      0.0312784         971.977          972.45 
      0.0375637         810.969         808.488 
      0.0433917         690.022         690.316 
      0.0492413         608.224         606.965 
      0.0555754         546.002         547.854 
      0.0619321         509.819         507.292 
       0.067871         473.127         474.483 
      0.0738098         437.462         438.969 
      0.0800417         393.841         396.125 
      0.0862327         349.642         350.183 
      0.0921407         308.201         307.751 
      0.0982031         269.895         270.047 
       0.104506         241.789         239.794 
       0.110769         220.592         218.923 
       0.116806         206.111           205.7 
       0.122832         197.599         196.513 
       0.129052         188.109         188.234 
       0.135211         178.692         178.907 
       0.141259          168.24         167.632 
       0.147318         155.799         154.541 
       0.153489         141.507         140.606 
       0.159709         128.742         127.492 
       0.165845         118.851         116.631 
       0.171974         109.674         108.334 
       0.178125         103.971         102.386 
       0.184229          99.881         98.1878 
        0.19034         95.4723         94.8178 
       0.196428          92.728         91.4758 
       0.202534         89.4691         87.5923 
       0.208729         84.3859         82.9414 
       0.214876          78.956         77.8211 
       0.220989         74.5032         72.6485 
       0.227147         69.1549         67.8083 
        0.23329         65.1142          63.671 
       0.239377         62.0823         60.3703 
       0.245482         58.9853         57.7856 
       0.251667         57.4241         55.6945 
       0.257832         55.4475         53.8608 
       0.263955         53.6173         52.0446 
       0.270079          51.621         50.0785 
        0.27624         49.8351         47.9102 
       0.282372         47.5812         45.6328 
        0.28843         45.1344         43.3859 
       0.294538         43.0159         41.2567 
       0.300721         41.4392         39.3354 
        0.30691         39.4887         37.6867 
       0.313033         38.1333          36.303 
       0.319153         36.4918         35.1005 
       0.325316         35.8873          33.989 
        0.33145         34.6417         32.9075 
       0.337538         33.5944         31.8096 
       0.343633         32.3283         30.6749 
       0.349808         31.2806         29.5042 
       0.355968         30.1669          28.353 
       0.362074         29.0342         27.2653 
       0.368217         28.0549         26.2563 
       0.374374         27.0439         25.3411 
       0.380519         26.3195         24.5189 
       0.386598         25.5996         23.7773 
       0.392688         24.9896         23.0798 
        0.39888         24.2193         22.3951 
       0.405048         23.5866         21.7212 
       0.411186         22.9412         21.0509 
       0.417313          22.155         20.3877 
       0.423458         21.5371         19.7362 
       0.429607         20.8672         19.1089 
       0.435692         20.2271         18.5227 
       0.441815         19.7359         17.9704 
       0.447964         19.3354         17.4521 
       0.454126           18.64         16.9657 
       0.460267         18.2438         16.5055 
       0.466387         17.6812         16.0631 
        0.47254         17.3453         15.6297 
       0.478662         16.9841         15.2079 
       0.484765         16.4569         14.7954 
       0.490885         16.0491          14.392 
       0.497035         15.8056         14.0002 
       0.503198         15.3533         13.6243 
       0.509342         14.9657         13.2664 
       0.515458         14.5981         12.9267 
       0.521598         14.2993         12.6017 
       0.527764         13.9434         12.2891 
       0.533884         13.6997         11.9898 
           0.54         13.3743         11.6992 
       0.546137          13.112         11.4154 
       0.552299          12.853         11.1382 
       0.558452         12.4633         10.8694 
       0.564573         12.2689         10.6098 
       0.570708         12.0148         10.3581 
       0.576825         11.7012          10.116 
       0.582926         11.4879         9.88367 
       0.589034         11.1662         9.65972 
       0.595184         10.9902         9.44202 
       0.601379         10.7457         9.22974 
       0.607522         10.5808         9.02538 
       0.613639          10.428         8.82765 
       0.619772         10.1397         8.63502 
       0.625918          10.035         8.44749 
       0.632068         9.86793          8.2652 
       0.638161         9.62231         8.08981 
         0.6443         9.42275         7.91828 
       0.650464         9.22524         7.75126 
       0.656582         9.13724         7.59056 
       0.662703         8.96034         7.43472 
       0.668861         8.79596         7.28263 
       0.675024         8.61323         7.13479 
       0.681124         8.45671         6.99256 
       0.687237         8.32594         6.85379 
       0.693381         8.20163         6.71796 
       0.699536         7.97776         6.58545 
       0.705665         7.88328         6.45703 
       0.711789         7.74687         6.33216 
       0.717957         7.60935         6.20981 
        0.72409         7.47836          6.0915 
       0.730186         7.36807         5.97709 
       0.736317         7.28628         5.86509 
       0.742472         7.16582         5.75561 
       0.748622          7.0379         5.64904 
        0.75476         6.89325          5.5454 
       0.760888         6.79809         5.44449 
       0.767043         6.71341         5.34566 
       0.773185         6.57341         5.24948 
       0.779291         6.51218         5.15621 
       0.785407         6.40338         5.06509 
       0.791564          6.3053          4.9756 
       0.797719         6.19488         4.88836 
       0.803834          6.1416         4.80378 
       0.809972         6.06347         4.72094 
       0.816124         5.93838         4.63989 
       0.822261         5.83714         4.56099 
       0.828378         5.76541         4.48417 
       0.834502         5.71449         4.40907 
       0.840667         5.59822         4.33521 
       0.846816         5.50498         4.26326 
       0.852925         5.45687         4.19339 
       0.859047         5.38013         4.12495 
       0.865192          5.3211         4.05781 
       0.871341         5.25881         3.99213 
       0.877463         5.17585          3.9282 
       0.883569          5.0873         3.86585 
       0.889708         5.00735         3.80453 
       0.895864         4.95206         3.74439 
       0.902008         4.88896         3.68569 
       0.908149          4.8365         3.62828 
       0.914301         4.75478         3.57201 
       0.920448         4.69041         3.51699 
       0.926574         4.62607         3.46333 
       0.932687         4.57692         3.41091 
       0.938823         4.51964         3.35939 
       0.944975         4.45939         3.30882 
       0.951105         4.41088         3.25948 
       0.957225         4.38591         3.21123 
       0.963368         4.32064         3.16381 
       0.969511         4.26008         3.11734 
       0.975621         4.20064         3.07206 
       0.981748         4.15832         3.02757 
       0.987916         4.10986         2.98368 
        0.99406         4.04052         2.94084 
        1.00019         3.99281         2.89892 
        1.00632         3.96203         2.85786 
        1.01246         3.91512         2.81754 
        1.01859         3.86384         2.77807 
        1.02471         3.82071         2.73941 
        1.03085         3.77602         2.70135 
        1.03698         3.72598         2.66409 
        1.04314         3.69404         2.62739 
        1.04929         3.64662         2.59147 
        1.05541         3.60429         2.55636 
        1.06154         3.56934         2.52182 
        1.06769         3.54444         2.48787 
        1.07382         3.48697         2.45466 
        1.07993         3.44353         2.42213 
        1.08607         3.42534         2.39006 
        1.09222         3.38091         2.35853 
        1.09836         3.35008         2.32762 
        1.10449         3.31346         2.29729 
        1.11063         3.27211         2.26748 
        1.11677         3.24398          2.2382 
         1.1229         3.21041         2.20949 
        1.12903         3.17018         2.18127 
        1.13518          3.1414         2.15351 
        1.14131         3.09902         2.12626 
        1.14745         3.05663         2.09949 
        1.15359         3.04082         2.07318 
        1.15973         2.99986         2.04731 
        1.16584         2.97749           2.022 
        1.17197         2.94691         1.99708 
        1.17811         2.92414         1.97251 
        1.18424         2.89654         1.94842 
        1.19038         2.86995         1.92467 
        1.19652         2.83897         1.90132 
        1.20267         2.81208         1.87836 
        1.20881         2.78338         1.85579 
        1.21495         2.75948         1.83362 
        1.22108         2.73251         1.81183 
         1.2272         2.71402         1.79043 
        1.23334         2.67779         1.76934 
        1.23949         2.64998         1.74853 
        1.24562         2.63459         1.72812 
        1.25174         2.60224         1.70807 
        1.25789         2.58276         1.68827 
        1.26402         2.55428         1.66883 
        1.27014         2.53094         1.64974 
        1.27628         2.51634         1.63089 
        1.28244         2.48275          1.6123 
        1.28858         2.46817         1.59402 
        1.29471         2.43949         1.57607 
        1.30084         2.41537         1.55841 
        1.30697         2.40759           1.541 
        1.31312         2.36602         1.52383 
        1.31925         2.35505         1.50698 
        1.32537         2.33288          1.4904 
        1.33151         2.31891           1.474 
        1.33765         2.28864         1.45787 
        1.34378         2.27195         1.44201 
        1.34992         2.26112         1.42637 
        1.35606         2.22702         1.41093 
         1.3622         2.21881         1.39575 
        1.36833         2.19741         1.38083 
        1.37445         2.17655         1.36613 
        1.38059         2.16502          1.3516 
        1.38675         2.15203         1.33725 
        1.39288         2.12648         1.32317 
        1.39901         2.10484         1.30929 
        1.40515         2.08981         1.29558 
         1.4113         2.07469         1.28208 
        1.41742         2.05837         1.26882 
        1.42355         2.04567         1.25572 
         1.4297         2.02228         1.24276 
        1.43585         2.01173            1.23 
        1.44198         1.99897         1.21746 
        1.44809         1.97523         1.20513 
        1.45423            1.96         1.19291 
        1.46036         1.94303         1.18089 
        1.46649         1.92907         1.16904 
        1.47263         1.91261         1.15733 
        1.47877          1.8949         1.14579 
        1.48491          1.8814         1.13439 
        1.49104         1.87039         1.12317 
        1.49718         1.85715         1.11209 
        1.50333          1.8409         1.10115 
        1.50947         1.82874         1.09037 
         1.5156          1.8132         1.07976 
        1.52172         1.79951         1.06929 
        1.52787         1.78537         1.05893 
          1.534         1.77232         1.04873 
        1.54013         1.75881         1.03867 
        1.54627         1.74329         1.02872 
        1.55241         1.72961          1.0189 
        1.55855         1.72051         1.00923 
        1.56467         1.70912        0.999702 
         1.5708         1.69113        0.990275 
        1.57695         1.68215        0.980954 
        1.58308         1.66922        0.971775 
        1.58922         1.65882        0.962708 
        1.59535         1.64653        0.953759 
         1.6015         1.63437        0.944912 
        1.60764         1.62482        0.936181 
        1.61376         1.61378        0.927585 
        1.61989         1.60009        0.919089 
        1.62604         1.58699        0.910681 
        1.63218          1.5826        0.902384 
        1.63831         1.56525        0.894209 
        1.64444         1.55458        0.886133 
        1.65059         1.54715        0.878137 
        1.65673          1.5345        0.870248 
        1.66285         1.52328        0.862479 
        1.66898         1.51583        0.854802 
        1.67512         1.50055        0.847203 
        1.68127         1.49131         0.83969 
         1.6874         1.48652        0.832285 
        1.69353         1.46844        0.824973 
        1.69967         1.45962        0.817732 
        1.70581         1.45629        0.810581 
        1.71193         1.44246        0.803543 
        1.71806          1.4367        0.796573 
        1.72421          1.4256        0.789673 
        1.73035         1.41506        0.782861 
        1.73649         1.40655        0.776132 
        1.74262         1.39727        0.769488 
        1.74876         1.38963        0.762916 
        1.75489         1.37564        0.756435 
        1.76101         1.36827        0.750031 
        1.76715          1.3611        0.743693 
        1.77329         1.35352         0.73742 
        1.77943         1.34124        0.731216 
        1.78557         1.33319        0.725094 
        1.79171         1.32923         0.71904 
        1.79785         1.31673        0.713054 
        1.80399         1.30975        0.707137 
        1.81012         1.30377        0.701295 
        1.81625         1.29321        0.695522 
        1.82239         1.28462        0.689805 
        1.82853         1.27292        0.684155 
        1.83466         1.26935        0.678574 
        1.84078         1.26039        0.673061 
        1.84692         1.25505        0.667601 
        1.85306         1.24516        0.662194 
         1.8592         1.23829        0.656855 
        1.86533         1.22963        0.651579 
        1.87147         1.22433        0.646354 
        1.87761         1.21598        0.641185 
        1.88375         1.20617        0.636077 
        1.88988         1.20239        0.631032 
        1.89601          1.1934        0.626038 
        1.90215         1.18407        0.621094 
        1.90829         1.17637        0.616206 
        1.91442         1.17236         0.61137 
        1.92056         1.16502         0.60659 
         1.9267         1.15768        0.601856 
        1.93284         1.15443         0.59717 
        1.93897         1.14527        0.592543 
        1.94509         1.13805        0.587975 
        1.95123         1.12995        0.583443 
        1.95737         1.12442        0.578956 
        1.96349         1.11756        0.574528 
        1.96964         1.11262        0.570133 
        1.97578         1.10521        0.565782 
        1.98192         1.09984        0.561485 
        1.98805         1.09158        0.557233 
        1.99419         1.08853        0.553024 
        2.00033          1.0844        0.548857 
        2.00647         1.07377        0.544733 
         2.0126          1.0699        0.540659 
        2.01874          1.0624        0.536621 
        2.02488         1.05867         0.53262 
        2.03101         1.04895        0.528667 
        2.03714         1.04276        0.524758 
        2.04328         1.04076        0.520885 
        2.04941          1.0323        0.517053 
        2.05554         1.02784        0.513263 
        2.06167           1.021        0.509505 
        2.06781         1.01705        0.505785 
        2.07396         1.01016        0.502096 
        2.08009         1.00554        0.498451 
        2.08622        0.998734        0.494845 
        2.09237        0.995563        0.491269 
        2.09851        0.989786        0.487727 
        2.10464        0.986065        0.484225 
        2.11077        0.979256        0.480762 
        2.11691        0.972932        0.477326 
        2.12305        0.969276        0.473923 
        2.12918        0.963554        0.470561 
        2.13531        0.958584        0.467231 
        2.14145        0.953052        0.463926 
         2.1476        0.946832        0.460649 
        2.15372        0.943262        0.457421 
        2.15985         0.93693        0.454219 
        2.16599         0.93291         0.45104 
        2.17213        0.927142        0.447894 
        2.17827        0.924522        0.444779 
         2.1844        0.920045        0.441696 
        2.19054        0.916257        0.438642 
        2.19666        0.910148         0.43562 
         2.2028        0.905153        0.432625 
        2.20893        0.900804        0.429656 
        2.21508        0.897888        0.426711 
        2.22122        0.889064        0.423793 
        2.22736        0.885936        0.420909 
        2.23349        0.885207        0.418052 
        2.23962        0.877588         0.41522 
        2.24577        0.873553        0.412411 
         2.2519        0.868081        0.409633 
        2.25802        0.865462        0.406884 
        2.26417        0.859792        0.404153 
        2.27031        0.856691        0.401445 
        2.27644        0.852049        0.398769 
        2.28257        0.848628        0.396118 
        2.28872        0.843736        0.393486 
        2.29486        0.839788        0.390878 
        2.30099        0.834886        0.388299 
        2.30712        0.831019        0.385743 
        2.31326        0.828898        0.383205 
         2.3194        0.825005        0.380691 
        2.32553         0.82121        0.378204 
        2.33166        0.815311        0.375741 
         2.3378        0.811106        0.373295 
        2.34394        0.806766        0.370871 
        2.35007        0.803505        0.368472 
        2.35619         0.80136        0.366097 
        2.36233        0.795198        0.363737 
        2.36848        0.792515        0.361393 
        2.37462        0.788462        0.359075 
        2.38075        0.785948        0.356779 
        2.38689        0.781743        0.354502 
        2.39303         0.77815        0.352244 
        2.39916        0.773494        0.350009 
        2.40529        0.771477        0.347793 
        2.41143         0.76733        0.345595 
        2.41757        0.763992        0.343414 
         2.4237        0.761476        0.341257 
        2.42983        0.756952        0.339118 
        2.43598        0.754046        0.336992 
        2.44211          0.7508        0.334887 
        2.44823        0.746638        0.332805 
        2.45437        0.743855        0.330735 
        2.46052        0.741682        0.328681 
        2.46665        0.737495        0.326648 
        2.47279        0.733887        0.324633 
        2.47892         0.72946        0.322634 
        2.48507        0.727384        0.320649 
         2.4912        0.723688        0.318685 
