# k  (h/Mpc)    P(k)  (Mpc/h)^3    P_linear(k)  (Mpc/h)^3
     0.00783031          163.52         165.004 
       0.013688         208.692         209.549 
       0.019231         216.108         216.315 
      0.0249154         202.113         202.763 
      0.0312784         177.075         177.076 
      0.0375637         151.421         151.091 
      0.0433917         131.414         131.272 
      0.0492413         117.008         116.747 
      0.0555754         106.188         106.198 
      0.0619321         99.2577         98.9681 
       0.067871         93.1856         93.2556 
      0.0738098         87.0282         87.1335 
      0.0800417          79.454         79.6341 
      0.0862327         71.3246          71.349 
      0.0921407         63.4777         63.4324 
      0.0982031         56.1588         56.1481 
       0.104506         50.2792         50.0918 
       0.110769         45.9321         45.7747 
       0.116806         43.0034         42.9894 
       0.122832         41.1749         41.0948 
       0.129052         39.4711         39.5021 
       0.135211         37.7394         37.7971 
       0.141259         35.7389          35.728 
       0.147318         33.3304         33.2478 
       0.153489         30.5419         30.4983 
       0.159709         27.8615         27.8009 
       0.165845         25.6436         25.4778 
       0.171974         23.7056         23.6426 
       0.178125         22.3842         22.3013 
       0.184229         21.4714         21.3677 
        0.19034         20.6786         20.6656 
       0.196428         20.0767         20.0215 
       0.202534         19.4111         19.2915 
       0.208729         18.4644         18.3958 
       0.214876         17.4006          17.366 
       0.220989         16.3923         16.2774 
       0.227147          15.263         15.2155 
        0.23329         14.3306         14.2768 
       0.239377         13.5833         13.5136 
       0.245482         12.9598         12.9177 
       0.251667         12.5443         12.4525 
       0.257832         12.1362         12.0708 
       0.263955         11.7851         11.7119 
       0.270079         11.3996         11.3263 
        0.27624         10.9972         10.8898 
       0.282372         10.5166         10.4102 
        0.28843          9.9959         9.91714 
       0.294538         9.51875         9.43236 
       0.300721         9.10355         8.98463 
        0.30691         8.68166         8.59718 
       0.313033         8.36804         8.27665 
       0.319153         8.05349         8.00825 
       0.325316         7.87894         7.77142 
        0.33145         7.64477         7.54832 
       0.337538         7.41283         7.32325 
       0.343633         7.16078         7.08504 
       0.349808         6.92288         6.83152 
       0.355968         6.66635         6.57264 
       0.362074         6.40924         6.32166 
       0.368217         6.17717         6.08433 
       0.374374         5.94328         5.86889 
       0.380519         5.76968         5.67814 
       0.386598         5.60899         5.51012 
       0.392688         5.46393         5.35733 
        0.39888         5.30776         5.21016 
       0.405048         5.16523         5.06572 
       0.411186         5.02312         4.92089 
       0.417313         4.86382         4.77358 
       0.423458         4.72598         4.62556 
       0.429607         4.56943         4.48038 
       0.435692         4.43167         4.34261 
       0.441815         4.30462         4.21264 
       0.447964         4.19913         4.09228 
       0.454126          4.0699         3.98067 
       0.460267         3.96605         3.87692 
       0.466387         3.86041         3.77885 
        0.47254         3.77025         3.68315 
       0.478662         3.68043         3.58897 
       0.484765         3.57909         3.49598 
       0.490885         3.48878         3.40388 
       0.497035          3.4159         3.31299 
       0.503198         3.31786         3.22477 
       0.509342          3.2373         3.14077 
       0.515458         3.15259         3.06167 
       0.521598         3.07865          2.9864 
       0.527764         2.99845         2.91449 
       0.533884         2.94167         2.84626 
           0.54         2.87157         2.78048 
       0.546137         2.81018         2.71615 
       0.552299         2.74534         2.65266 
       0.558452         2.67479         2.59045 
       0.564573         2.62024         2.53003 
       0.570708         2.56107         2.47126 
       0.576825         2.49917         2.41465 
       0.582926         2.45131         2.36022 
       0.589034         2.38499         2.30777 
       0.595184         2.33802         2.25705 
       0.601379         2.28823         2.20792 
       0.607522         2.24708         2.16084 
       0.613639         2.20776         2.11528 
       0.619772          2.1514         2.07067 
       0.625918         2.11178         2.02694 
       0.632068         2.07335         1.98424 
       0.638161         2.02659         1.94307 
         0.6443         1.98495         1.90282 
       0.650464         1.94098         1.86368 
       0.656582         1.90845         1.82605 
       0.662703         1.87182         1.78954 
       0.668861         1.84091         1.75388 
       0.675024         1.80096         1.71921 
       0.681124         1.76247         1.68584 
       0.687237         1.73576          1.6533 
       0.693381         1.70415         1.62146 
       0.699536         1.66274          1.5904 
       0.705665         1.63505         1.56026 
       0.711789         1.60844          1.5309 
       0.717957         1.57607         1.50207 
        0.72409         1.54925         1.47414 
       0.730186         1.52018          1.4471 
       0.736317         1.50065         1.42061 
       0.742472         1.47248          1.3947 
       0.748622         1.44418          1.3695 
        0.75476          1.4163           1.345 
       0.760888         1.39153         1.32116 
       0.767043         1.37565         1.29781 
       0.773185         1.34704         1.27508 
       0.779291         1.32544         1.25303 
       0.785407         1.30383         1.23146 
       0.791564         1.28312         1.21026 
       0.797719         1.26401         1.18956 
       0.803834         1.24387         1.16948 
       0.809972         1.22262         1.14979 
       0.816124         1.20123         1.13052 
       0.822261         1.18005         1.11175 
       0.828378         1.16415         1.09346 
       0.834502         1.14843         1.07558 
       0.840667         1.12517         1.05798 
       0.846816         1.10829         1.04084 
       0.852925         1.09571         1.02418 
       0.859047         1.07852         1.00786 
       0.865192         1.06003        0.991853 
       0.871341         1.04419        0.976181 
       0.877463         1.03196        0.960923 
       0.883569         1.01356        0.946033 
       0.889708         0.99825        0.931385 
       0.895864        0.983894        0.917012 
       0.902008        0.967756        0.902976 
       0.908149        0.954301        0.889245 
       0.914301        0.936415        0.875779 
       0.920448        0.925013        0.862608 
       0.926574        0.911276        0.849755 
       0.932687        0.898125        0.837194 
       0.938823        0.889424        0.824844 
       0.944975        0.875527        0.812716 
       0.951105        0.864168        0.800878 
       0.957225        0.854064        0.789298 
       0.963368        0.841225        0.777909 
       0.969511        0.828048        0.766747 
       0.975621        0.815416        0.755865 
       0.981748        0.807941        0.745169 
       0.987916        0.795852        0.734613 
        0.99406        0.784108        0.724303 
        1.00019        0.776214        0.714213 
        1.00632        0.762713        0.704325 
        1.01246        0.752998        0.694611 
        1.01859        0.744579        0.685098 
        1.02471        0.733913        0.675776 
        1.03085        0.727074        0.666596 
        1.03698        0.715579        0.657608 
        1.04314        0.707271        0.648749 
        1.04929        0.696924        0.640074 
        1.05541        0.689712        0.631595 
        1.06154        0.679846        0.623249 
        1.06769        0.670607        0.615042 
        1.07382        0.663284        0.607011 
        1.07993        0.653347        0.599143 
        1.08607        0.648509        0.591382 
        1.09222        0.638496        0.583753 
        1.09836        0.633382        0.576268 
        1.10449        0.625069        0.568923 
        1.11063         0.61577          0.5617 
        1.11677        0.607255        0.554606 
         1.1229        0.601533        0.547647 
        1.12903        0.593389        0.540803 
        1.13518        0.587841        0.534071 
        1.14131        0.579981        0.527457 
        1.14745        0.570391        0.520961 
        1.15359        0.566217        0.514573 
        1.15973        0.557819        0.508291 
        1.16584        0.554199        0.502142 
        1.17197        0.547054        0.496087 
        1.17811        0.541438        0.490114 
        1.18424        0.536555        0.484257 
        1.19038        0.528832         0.47848 
        1.19652        0.521477          0.4728 
        1.20267        0.517954        0.467212 
        1.20881        0.510933        0.461717 
        1.21495        0.506717        0.456319 
        1.22108        0.500729        0.451009 
         1.2272        0.495842        0.445796 
        1.23334        0.489648        0.440654 
        1.23949         0.48441        0.435581 
        1.24562        0.479301        0.430603 
        1.25174        0.474529         0.42571 
        1.25789        0.469922        0.420879 
        1.26402        0.463192        0.416132 
        1.27014        0.458862         0.41147 
        1.27628         0.45522        0.406867 
        1.28244        0.448297        0.402325 
        1.28858        0.444558        0.397859 
        1.29471        0.441163        0.393471 
        1.30084        0.435527        0.389153 
        1.30697        0.430992        0.384894 
        1.31312        0.425014        0.380694 
        1.31925        0.421539        0.376569 
        1.32537         0.41808         0.37251 
        1.33151        0.414415        0.368496 
        1.33765        0.409908        0.364545 
        1.34378        0.404579        0.360659 
        1.34992        0.401486        0.356828 
        1.35606        0.397143        0.353044 
         1.3622        0.393293        0.349322 
        1.36833        0.389202        0.345663 
        1.37445        0.384307        0.342059 
        1.38059        0.380951        0.338495 
        1.38675        0.379357        0.334974 
        1.39288         0.37454        0.331517 
        1.39901        0.371128        0.328111 
        1.40515        0.367881        0.324745 
         1.4113        0.363467        0.321429 
        1.41742        0.360076        0.318171 
        1.42355        0.357827        0.314952 
         1.4297        0.353211        0.311769 
        1.43585        0.350388        0.308631 
        1.44198        0.348033        0.305548 
        1.44809        0.343793        0.302514 
        1.45423         0.34077         0.29951 
        1.46036        0.337492        0.296552 
        1.46649        0.335072        0.293633 
        1.47263        0.331507        0.290751 
        1.47877        0.327752         0.28791 
        1.48491        0.325391        0.285102 
        1.49104        0.321645        0.282338 
        1.49718        0.319121        0.279608 
        1.50333         0.31697        0.276911 
        1.50947        0.313749        0.274254 
         1.5156        0.310589        0.271637 
        1.52172        0.308141        0.269054 
        1.52787        0.305261        0.266499 
          1.534        0.302455         0.26398 
        1.54013         0.29952        0.261497 
        1.54627        0.297586        0.259042 
        1.55241        0.294406        0.256618 
        1.55855        0.291441        0.254228 
        1.56467        0.290398        0.251875 
         1.5708        0.286982        0.249546 
        1.57695        0.284647        0.247243 
        1.58308        0.282091        0.244974 
        1.58922        0.279932        0.242733 
        1.59535        0.277333         0.24052 
         1.6015        0.274838        0.238332 
        1.60764        0.272895        0.236172 
        1.61376         0.26979        0.234046 
        1.61989        0.268021        0.231943 
        1.62604        0.265952        0.229862 
        1.63218        0.263941        0.227808 
        1.63831        0.261764        0.225784 
        1.64444        0.259525        0.223784 
        1.65059        0.257386        0.221803 
        1.65673        0.255293        0.219849 
        1.66285         0.25354        0.217924 
        1.66898        0.251455        0.216021 
        1.67512        0.248856        0.214137 
        1.68127        0.246716        0.212274 
         1.6874         0.24547        0.210438 
        1.69353        0.242832        0.208624 
        1.69967        0.241598        0.206828 
        1.70581        0.238986        0.205054 
        1.71193        0.237313        0.203307 
        1.71806        0.235127        0.201577 
        1.72421        0.233942        0.199864 
        1.73035        0.231604        0.198173 
        1.73649        0.230237        0.196501 
        1.74262        0.228257        0.194851 
        1.74876        0.226365        0.193218 
        1.75489         0.22488        0.191607 
        1.76101        0.222713        0.190015 
        1.76715        0.221101         0.18844 
        1.77329        0.219127         0.18688 
        1.77943        0.217634        0.185337 
        1.78557        0.216382        0.183814 
        1.79171        0.214714        0.182308 
        1.79785        0.212927        0.180818 
        1.80399        0.211296        0.179346 
        1.81012        0.209868        0.177892 
        1.81625         0.20817        0.176455 
        1.82239        0.206794        0.175031 
        1.82853        0.204824        0.173624 
        1.83466        0.203605        0.172234 
        1.84078        0.201985        0.170861 
        1.84692        0.200471          0.1695 
        1.85306        0.199325        0.168153 
         1.8592        0.197533        0.166822 
        1.86533         0.19645        0.165507 
        1.87147        0.194931        0.164204 
        1.87761         0.19371        0.162915 
        1.88375        0.191883        0.161641 
        1.88988        0.190663        0.160382 
        1.89601        0.189097        0.159136 
        1.90215        0.188063        0.157903 
        1.90829        0.186367        0.156683 
        1.91442         0.18555        0.155476 
        1.92056         0.18392        0.154282 
         1.9267        0.182439          0.1531 
        1.93284         0.18125         0.15193 
        1.93897        0.179907        0.150774 
        1.94509        0.179039        0.149633 
        1.95123        0.177584        0.148501 
        1.95737        0.176595         0.14738 
        1.96349        0.175153        0.146273 
        1.96964        0.173814        0.145174 
        1.97578        0.172643        0.144086 
        1.98192        0.171728        0.143012 
        1.98805        0.170734        0.141949 
        1.99419        0.169097        0.140896 
        2.00033        0.167964        0.139853 
        2.00647        0.167312        0.138822 
         2.0126        0.165737        0.137802 
        2.01874        0.164931        0.136791 
        2.02488        0.163717         0.13579 
        2.03101        0.162661          0.1348 
        2.03714        0.161423        0.133821 
        2.04328        0.160598        0.132851 
        2.04941        0.159274        0.131891 
        2.05554        0.158436        0.130942 
        2.06167        0.157614            0.13 
        2.06781        0.156179        0.129068 
        2.07396        0.155191        0.128144 
        2.08009        0.154205         0.12723 
        2.08622        0.153375        0.126326 
        2.09237        0.152444        0.125429 
        2.09851        0.151482        0.124541 
        2.10464        0.150529        0.123663 
        2.11077        0.149324        0.122794 
        2.11691        0.148489        0.121932 
        2.12305        0.147509        0.121078 
        2.12918        0.146752        0.120235 
        2.13531        0.145592        0.119399 
        2.14145        0.144545         0.11857 
         2.1476         0.14382        0.117747 
        2.15372        0.143198        0.116936 
        2.15985        0.142027        0.116132 
        2.16599        0.141068        0.115334 
        2.17213        0.140347        0.114544 
        2.17827        0.139306        0.113761 
         2.1844        0.138693        0.112986 
        2.19054        0.137721        0.112219 
        2.19666        0.136582        0.111459 
         2.2028        0.136041        0.110706 
        2.20893         0.13542         0.10996 
        2.21508        0.134192         0.10922 
        2.22122        0.133385        0.108486 
        2.22736        0.132897         0.10776 
        2.23349        0.131911        0.107042 
        2.23962         0.13127        0.106329 
        2.24577        0.130295        0.105623 
         2.2519        0.129699        0.104924 
        2.25802         0.12876        0.104232 
        2.26417        0.128129        0.103544 
        2.27031        0.127263        0.102863 
        2.27644        0.126539        0.102189 
        2.28257        0.125779        0.101521 
        2.28872        0.125088        0.100859 
        2.29486        0.124529        0.100202 
        2.30099         0.12356       0.0995523 
        2.30712        0.122958       0.0989082 
        2.31326        0.121964       0.0982687 
         2.3194        0.121839       0.0976353 
        2.32553        0.120974       0.0970085 
        2.33166        0.120393       0.0963875 
         2.3378        0.119563       0.0957711 
        2.34394        0.118802       0.0951599 
        2.35007        0.118145       0.0945549 
        2.35619        0.117304        0.093956 
        2.36233        0.116739       0.0933608 
        2.36848        0.116259       0.0927695 
        2.37462        0.115344       0.0921846 
        2.38075        0.114968       0.0916054 
        2.38689        0.114292       0.0910306 
        2.39303        0.113814       0.0904609 
        2.39916        0.112864       0.0898966 
        2.40529        0.112404       0.0893373 
        2.41143        0.111688       0.0887823 
        2.41757        0.111077       0.0882317 
         2.4237        0.110648       0.0876869 
        2.42983         0.10988       0.0871467 
        2.43598        0.109534       0.0866097 
        2.44211        0.108718       0.0860781 
        2.44823        0.108385       0.0855521 
        2.45437        0.107471       0.0850292 
        2.46052        0.107091       0.0845101 
        2.46665        0.106379       0.0839963 
        2.47279        0.105779        0.083487 
        2.47892        0.105089       0.0829816 
        2.48507        0.104539       0.0824798 
         2.4912        0.104132       0.0819832 
