# k  (h/Mpc)    Pcb(k)  (Mpc/h)^3    Pcb_linear(k)  (Mpc/h)^3
     0.00783031         7736.07         7831.02 
       0.013688         9546.07         9494.02 
       0.019231         9545.78         9527.78 
      0.0249154         8638.95         8759.42 
      0.0312784         7491.76         7535.14 
      0.0375637         6365.97         6351.93 
      0.0433917         5406.25         5456.37 
      0.0492413            4786         4792.66 
      0.0555754         4226.99         4300.06 
      0.0619321          3987.6         3959.79 
       0.067871         3649.86         3702.53 
      0.0738098         3394.94         3446.19 
      0.0800417         3076.52         3147.71 
      0.0862327         2787.16          2823.2 
      0.0921407         2509.06         2510.59 
      0.0982031         2206.53         2216.26 
       0.104506         2006.87         1962.69 
       0.110769         1816.94         1773.24 
       0.116806         1677.96         1644.77 
       0.122832         1595.33         1555.44 
       0.129052         1496.24         1485.04 
       0.135211         1430.96         1418.96 
       0.141259         1372.58         1345.42 
       0.147318         1294.19         1258.94 
       0.153489         1187.07         1161.08 
       0.159709         1104.92         1060.91 
       0.165845         1035.76         969.751 
       0.171974         956.908         892.942 
       0.178125         901.638         832.753 
       0.184229         859.075         788.448 
        0.19034         804.965         755.391 
       0.196428         791.683         728.355 
       0.202534         769.458         702.056 
       0.208729          732.95         672.556 
       0.214876         694.909         639.136 
       0.220989         669.216           602.7 
       0.227147           630.2         565.153 
        0.23329         599.196         529.605 
       0.239377         579.812         498.414 
       0.245482         538.989         472.234 
       0.251667         531.278          450.83 
       0.257832          512.35         433.527 
       0.263955         495.261         418.761 
       0.270079         477.526         404.805 
        0.27624         471.001         390.352 
       0.282372         452.176         374.993 
        0.28843         437.774         358.926 
       0.294538         416.786         342.404 
       0.300721          411.54         326.146 
        0.30691         391.504         311.069 
       0.313033         382.136         297.791 
       0.319153          367.72         286.237 
       0.325316         357.828         276.126 
        0.33145         346.546         267.142 
       0.337538         341.582         258.811 
       0.343633         330.302         250.645 
       0.349808         319.675         242.282 
       0.355968         314.966         233.795 
       0.362074         307.207         225.333 
       0.368217         298.594         216.988 
       0.374374         287.649         208.997 
       0.380519         283.328         201.576 
       0.386598         276.013         194.848 
       0.392688         272.663         188.692 
        0.39888         265.251         182.939 
       0.405048          259.16         177.562 
       0.411186         253.549         172.424 
       0.417313         248.514         167.407 
       0.423458         243.514         162.424 
       0.429607         237.985         157.498 
       0.435692          231.17         152.724 
       0.441815         229.308         148.069 
       0.447964         224.884         143.606 
       0.454126         215.974         139.385 
       0.460267         213.337         135.426 
       0.466387         210.645         131.709 
        0.47254         206.064          128.17 
       0.478662         204.713         124.797 
       0.484765         198.319         121.541 
       0.490885         195.526         118.361 
       0.497035         192.664         115.241 
       0.503198         187.861         112.187 
       0.509342         185.454         109.229 
       0.515458         182.823         106.386 
       0.521598         179.807         103.647 
       0.527764         177.176         101.012 
       0.533884         174.588          98.508 
           0.54         171.758         96.1126 
       0.546137         170.531         93.8027 
       0.552299          167.34         91.5626 
       0.558452         164.741         89.3921 
       0.564573         161.976         87.2916 
       0.570708         159.179         85.2449 
       0.576825         157.217         83.2626 
       0.582926         154.545         81.3438 
       0.589034         152.547         79.4818 
       0.595184         150.782         77.6689 
       0.601379         149.051         75.9071 
       0.607522         145.771         74.2217 
       0.613639         145.146         72.5999 
       0.619772         142.029         71.0248 
       0.625918         140.568         69.4926 
       0.632068         138.941         68.0028 
       0.638161         137.759         66.5678 
         0.6443         135.847         65.1624 
       0.650464         134.367         63.7911 
       0.656582         132.606         62.4683 
       0.662703         130.744         61.1824 
       0.668861         128.869         59.9257 
       0.675024         127.439         58.7045 
       0.681124         126.519         57.5313 
       0.687237         124.222         56.3895 
       0.693381         122.603         55.2746 
       0.699536         121.593         54.1884 
       0.705665         121.741          53.136 
       0.711789         118.728         52.1119 
       0.717957         118.335         51.1069 
        0.72409         116.578         50.1334 
       0.730186         114.716         49.1909 
       0.736317         114.196         48.2676 
       0.742472         113.277         47.3649 
       0.748622         112.193         46.4867 
        0.75476         111.114         45.6333 
       0.760888         109.514         44.8031 
       0.767043         108.785         43.9906 
       0.773185         107.574         43.2001 
       0.779291         106.245         42.4336 
       0.785407         105.566         41.6845 
       0.791564         104.529         40.9487 
       0.797719         102.924         40.2309 
       0.803834         102.452         39.5349 
       0.809972         101.059         38.8529 
       0.816124         100.703         38.1856 
       0.822261         99.6947         37.5359 
       0.828378         98.7925         36.9035 
       0.834502         98.1595         36.2852 
       0.840667         96.9446         35.6772 
       0.846816         95.8666          35.085 
       0.852925         95.1825         34.5101 
       0.859047          93.975          33.947 
       0.865192         93.5198         33.3946 
       0.871341         92.7404         32.8541 
       0.877463         91.6001         32.3281 
       0.883569          91.003         31.8149 
       0.889708         90.3852         31.3103 
       0.895864          89.614         30.8153 
       0.902008         88.8605         30.3322 
       0.908149         88.3487         29.8596 
       0.914301         87.4214         29.3964 
       0.920448         86.8385         28.9435 
       0.926574         86.1246         28.5018 
       0.932687         85.8722         28.0702 
       0.938823         84.4819          27.646 
       0.944975         83.8642         27.2297 
       0.951105         83.3052         26.8234 
       0.957225         82.3265         26.4262 
       0.963368         82.0001         26.0357 
       0.969511         81.6651         25.6531 
       0.975621         81.1931         25.2803 
       0.981748         80.3997         24.9139 
       0.987916         79.6917         24.5526 
        0.99406         79.1778         24.1998 
        1.00019          78.479         23.8546 
        1.00632         78.0445         23.5165 
        1.01246         77.4046         23.1845 
        1.01859         76.3799         22.8595 
        1.02471         76.5059         22.5411 
        1.03085         75.7006         22.2278 
        1.03698         75.2322          21.921 
        1.04314         74.4925         21.6188 
        1.04929         74.0567          21.323 
        1.05541         73.4156         21.0339 
        1.06154          73.242         20.7495 
        1.06769         72.7414           20.47 
        1.07382         72.4015         20.1965 
        1.07993         71.9007         19.9287 
        1.08607          71.285         19.6646 
        1.09222         70.9285         19.4051 
        1.09836         70.3909         19.1506 
        1.10449         69.9878         18.9009 
        1.11063          69.428         18.6554 
        1.11677         69.0347         18.4144 
         1.1229         68.4425         18.1781 
        1.12903         67.6939         17.9457 
        1.13518         67.9412         17.7172 
        1.14131          67.418         17.4927 
        1.14745         66.6491         17.2723 
        1.15359           66.44         17.0557 
        1.15973         65.9332         16.8427 
        1.16584         65.5112         16.6343 
        1.17197         65.1213         16.4291 
        1.17811         64.7879         16.2268 
        1.18424         64.2339         16.0284 
        1.19038         63.8704         15.8328 
        1.19652         63.6394         15.6406 
        1.20267         63.0699         15.4515 
        1.20881         62.7778         15.2656 
        1.21495           62.27         15.0831 
        1.22108         61.9786         14.9036 
         1.2272         61.3941         14.7274 
        1.23334         61.1855         14.5537 
        1.23949         60.9723         14.3823 
        1.24562         60.5345         14.2142 
        1.25174         60.2424         14.0491 
        1.25789         59.9588         13.8861 
        1.26402         59.5192         13.7259 
        1.27014         58.9732         13.5687 
        1.27628          58.804         13.4135 
        1.28244          58.336         13.2604 
        1.28858         58.0892         13.1099 
        1.29471         57.8814         12.9621 
        1.30084         57.5214         12.8167 
        1.30697         57.1248         12.6734 
        1.31312         56.7599          12.532 
        1.31925         56.6027         12.3932 
        1.32537         56.3249         12.2567 
        1.33151         55.7603         12.1217 
        1.33765         55.5906         11.9888 
        1.34378         55.2506         11.8582 
        1.34992         54.9233         11.7295 
        1.35606         54.6337         11.6024 
         1.3622         54.2403         11.4774 
        1.36833         54.0525         11.3545 
        1.37445         53.8401         11.2336 
        1.38059         53.4137          11.114 
        1.38675           53.11         10.9958 
        1.39288         52.8699         10.8798 
        1.39901         52.6458         10.7656 
        1.40515         52.3408         10.6528 
         1.4113         52.1396         10.5416 
        1.41742         51.8685         10.4324 
        1.42355         51.4758         10.3245 
         1.4297         51.2646         10.2179 
        1.43585         50.9864         10.1128 
        1.44198         50.7293         10.0096 
        1.44809         50.5164         9.90797 
        1.45423           50.27         9.80743 
        1.46036         50.0454         9.70845 
        1.46649         49.7345         9.61081 
        1.47263         49.4214         9.51444 
        1.47877         49.2769         9.41943 
        1.48491         49.1466         9.32557 
        1.49104         48.7241         9.23318 
        1.49718         48.2871         9.14198 
        1.50333         48.2199         9.05186 
        1.50947          48.009         8.96315 
         1.5156         47.7049         8.87575 
        1.52172         47.5523         8.78953 
        1.52787         47.4352         8.70427 
          1.534         47.0991         8.62025 
        1.54013         46.8195         8.53743 
        1.54627         46.6667         8.45554 
        1.55241         46.3197         8.37472 
        1.55855         46.1087         8.29507 
        1.56467         45.7283         8.21667 
         1.5708         45.7607         8.13906 
        1.57695         45.4839         8.06234 
        1.58308         45.2374         7.98679 
        1.58922         45.2218         7.91215 
        1.59535         44.9531         7.83849 
         1.6015         44.5468         7.76567 
        1.60764          44.388          7.6938 
        1.61376         44.1739         7.62304 
        1.61989         43.8798         7.55311 
        1.62604         43.8051         7.48391 
        1.63218         43.6701         7.41561 
        1.63831          43.402         7.34832 
        1.64444         43.1672         7.28184 
        1.65059         42.8694         7.21602 
        1.65673         42.6972         7.15109 
        1.66285         42.4966         7.08714 
        1.66898         42.2735         7.02394 
        1.67512         42.0875          6.9614 
        1.68127         41.8435         6.89956 
         1.6874         41.7443         6.83861 
        1.69353         41.4688         6.77843 
        1.69967         41.2881         6.71883 
        1.70581          41.237         6.65997 
        1.71193         40.9946         6.60204 
        1.71806         40.6502         6.54468 
        1.72421         40.5309         6.48788 
        1.73035         40.3247         6.43182 
        1.73649         40.0348         6.37643 
        1.74262         39.9911         6.32174 
        1.74876         39.8853         6.26766 
        1.75489         39.6144         6.21431 
        1.76101          39.451         6.16161 
        1.76715         39.2643         6.10944 
        1.77329         39.0705         6.05781 
        1.77943         38.9348         6.00676 
        1.78557         38.7398         5.95637 
        1.79171         38.5095         5.90654 
        1.79785         38.3382         5.85728 
        1.80399         38.2481         5.80859 
        1.81012         38.0523         5.76052 
        1.81625         37.7656         5.71301 
        1.82239          37.679         5.66597 
        1.82853         37.4002         5.61947 
        1.83466          37.331         5.57355 
        1.84078         37.0279         5.52818 
        1.84692         36.9372         5.48325 
        1.85306         36.7649         5.43876 
         1.8592          36.577         5.39483 
        1.86533         36.4294         5.35141 
        1.87147         36.3099         5.30842 
        1.87761         36.1826         5.26588 
        1.88375          35.975         5.22386 
        1.88988          35.908         5.18234 
        1.89601         35.6542         5.14124 
        1.90215         35.5288         5.10056 
        1.90829         35.4524         5.06034 
        1.91442         35.2122         5.02055 
        1.92056         35.1025         4.98122 
         1.9267         34.8334         4.94228 
        1.93284         34.6727         4.90372 
        1.93897         34.6084         4.86565 
        1.94509         34.3808         4.82807 
        1.95123         34.3023         4.79078 
        1.95737         34.0638         4.75386 
        1.96349         33.9492         4.71743 
        1.96964         33.8114         4.68127 
        1.97578         33.6756         4.64548 
        1.98192         33.4999         4.61013 
        1.98805         33.3916         4.57514 
        1.99419         33.1697         4.54052 
        2.00033         33.0375         4.50623 
        2.00647         32.9165         4.47231 
         2.0126         32.7626         4.43879 
        2.01874         32.6568         4.40557 
        2.02488          32.556         4.37265 
        2.03101         32.3321         4.34013 
        2.03714         32.2063         4.30798 
        2.04328         32.0397         4.27611 
        2.04941         31.9396         4.24459 
        2.05554         31.7549         4.21341 
        2.06167         31.6702          4.1825 
        2.06781         31.5019         4.15189 
        2.07396         31.3808         4.12155 
        2.08009         31.2815         4.09157 
        2.08622         31.0948         4.06191 
        2.09237          30.954         4.03249 
        2.09851         30.8036         4.00336 
        2.10464         30.7501         3.97456 
        2.11077         30.5618         3.94608 
        2.11691          30.452         3.91781 
        2.12305         30.3138         3.88982 
        2.12918         30.2739         3.86217 
        2.13531         30.0741         3.83479 
        2.14145         30.0147          3.8076 
         2.1476         29.7973         3.78065 
        2.15372         29.6514          3.7541 
        2.15985         29.5456         3.72777 
        2.16599         29.5176         3.70162 
        2.17213          29.399         3.67574 
        2.17827          29.143         3.65012 
         2.1844         29.0426         3.62477 
        2.19054         28.9144         3.59965 
        2.19666         28.8208          3.5748 
         2.2028         28.7004         3.55016 
        2.20893         28.6176         3.52574 
        2.21508         28.4824         3.50153 
        2.22122         28.2845         3.47753 
        2.22736         28.2418         3.45381 
        2.23349          28.111         3.43032 
        2.23962         27.9641         3.40703 
        2.24577         27.8362         3.38393 
         2.2519         27.7636         3.36108 
        2.25802         27.6159         3.33848 
        2.26417         27.5477         3.31603 
        2.27031         27.4559         3.29376 
        2.27644         27.2626         3.27175 
        2.28257         27.1713         3.24995 
        2.28872         27.0431         3.22831 
        2.29486         27.0073         3.20687 
        2.30099         26.8598         3.18566 
        2.30712         26.7675         3.16464 
        2.31326         26.6927         3.14377 
         2.3194         26.5532          3.1231 
        2.32553         26.3901         3.10266 
        2.33166          26.286          3.0824 
         2.3378         26.1757         3.06229 
        2.34394          26.053         3.04236 
        2.35007         25.9525         3.02264 
        2.35619         25.8884         3.00311 
        2.36233         25.8237         2.98371 
        2.36848         25.6251         2.96443 
        2.37462           25.55         2.94537 
        2.38075         25.4606          2.9265 
        2.38689         25.4001         2.90777 
        2.39303         25.2371         2.88922 
        2.39916         25.1026         2.87084 
        2.40529         24.9993         2.85262 
        2.41143         24.9203         2.83455 
        2.41757         24.8385         2.81662 
         2.4237         24.7008         2.79889 
        2.42983         24.6132         2.78131 
        2.43598         24.5263         2.76383 
        2.44211         24.4122         2.74653 
        2.44823         24.2835         2.72942 
        2.45437         24.2171          2.7124 
        2.46052          24.119         2.69552 
        2.46665         24.0556         2.67881 
        2.47279          23.928         2.66224 
        2.47892         23.8123         2.64581 
        2.48507         23.7268          2.6295 
         2.4912         23.6686         2.61335 
