#  k  (h/Mpc)          P(k)  (Mpc/h)^3     P_linear(k) (Mpc/h)^3
     0.00783031         12002.5         12167.4 
       0.013688         14547.7         14442.4 
       0.019231         14057.2         14017.6 
      0.0249154         12141.4         12339.7 
      0.0312784         10005.3         10064.5 
      0.0375637         8133.72         8092.19 
      0.0433917         6696.78         6749.91 
      0.0492413         5874.52         5866.63 
      0.0555754         5201.28         5298.24 
      0.0619321         4992.03         4946.61 
       0.067871            4585         4661.64 
      0.0738098         4250.79         4322.05 
      0.0800417         3785.45         3876.88 
      0.0862327          3347.3         3380.28 
      0.0921407         2949.14         2919.35 
      0.0982031         2539.92         2517.63 
       0.104506          2303.6         2209.21 
       0.110769         2100.14         2012.66 
       0.116806         1974.06         1903.21 
       0.122832         1903.67         1837.68 
       0.129052         1797.92         1778.38 
       0.135211          1718.4         1699.24 
       0.141259         1636.02         1590.07 
       0.147318         1519.21         1455.02 
       0.153489         1368.58         1308.43 
       0.159709         1261.35          1171.8 
       0.165845         1179.75         1062.38 
       0.171974         1099.17         983.655 
       0.178125         1045.13         932.423 
       0.184229         1004.69         900.575 
        0.19034         950.095         876.738 
       0.196428         936.495         850.966 
       0.202534         906.927         816.595 
       0.208729         857.918         771.468 
       0.214876         809.019         719.647 
       0.220989          771.92         666.859 
       0.227147         728.633          618.19 
        0.23329         692.734         578.011 
       0.239377         673.852         547.689 
       0.245482         628.217         525.613 
       0.251667          623.71         508.891 
       0.257832          601.99         494.423 
       0.263955         582.608         479.262 
       0.270079         559.878         461.502 
        0.27624         551.667         440.816 
       0.282372         528.676         418.444 
        0.28843         512.779         396.268 
       0.294538          486.04         375.527 
       0.300721         481.042         357.321 
        0.30691         458.736         342.317 
       0.313033         449.071         330.226 
       0.319153         434.283         320.053 
       0.325316         422.426         310.638 
        0.33145         409.452         301.226 
       0.337538         403.089         291.279 
       0.343633         389.903         280.663 
       0.349808         376.165           269.5 
       0.355968         371.476         258.473 
       0.362074         364.012          248.16 
       0.368217         353.585         238.737 
       0.374374         338.918         230.417 
       0.380519         335.871         223.091 
       0.386598          327.11         216.578 
       0.392688          323.93         210.468 
        0.39888         314.979         204.375 
       0.405048          307.67         198.274 
       0.411186         301.691         192.099 
       0.417313         295.714         185.904 
       0.423458         289.475         179.813 
       0.429607         283.853         173.974 
       0.435692           276.2         168.552 
       0.441815         273.667         163.522 
       0.447964          267.88         158.859 
       0.454126         259.379         154.499 
       0.460267         255.364         150.384 
       0.466387         252.171         146.419 
        0.47254         246.774          142.49 
       0.478662         245.936         138.627 
       0.484765         237.292         134.838 
       0.490885         234.464         131.124 
       0.497035         230.471         127.513 
       0.503198         225.896          124.06 
       0.509342         223.714         120.802 
       0.515458         220.485          117.73 
       0.521598         215.756         114.792 
       0.527764         212.928         111.967 
       0.533884         210.331         109.262 
           0.54         207.038         106.634 
       0.546137         205.777         104.053 
       0.552299         201.492         101.517 
       0.558452         199.574         99.0539 
       0.564573         196.453         96.6818 
       0.570708         192.383         94.3884 
       0.576825         189.858         92.1863 
       0.582926         187.064         90.0727 
       0.589034         185.178         88.0376 
       0.595184         183.093         86.0637 
       0.601379         180.591         84.1424 
       0.607522         177.435         82.2924 
       0.613639          176.27          80.497 
       0.619772         172.589         78.7419 
       0.625918         171.193         77.0299 
       0.632068         168.801         75.3665 
       0.638161         167.708         73.7693 
         0.6443         165.204         72.2109 
       0.650464         163.458         70.6956 
       0.656582         161.429         69.2373 
       0.662703         160.317         67.8214 
       0.668861          157.42         66.4382 
       0.675024         155.447          65.093 
       0.681124         154.679         63.7987 
       0.687237         152.263         62.5371 
       0.693381         149.922         61.3032 
       0.699536         148.883         60.0998 
       0.705665         148.123         58.9334 
       0.711789         145.593         57.7987 
       0.717957         145.347         56.6862 
        0.72409          143.15         55.6096 
       0.730186         141.196         54.5683 
       0.736317         139.806         53.5489 
       0.742472         138.964         52.5527 
       0.748622         137.644         51.5834 
        0.75476         136.443         50.6412 
       0.760888         134.644         49.7243 
       0.767043         134.157         48.8265 
       0.773185         132.723         47.9528 
       0.779291         130.349         47.1053 
       0.785407         129.915         46.2772 
       0.791564         128.878         45.4638 
       0.797719          126.57         44.6705 
       0.803834         126.008         43.9012 
       0.809972         124.982         43.1476 
       0.816124         124.426         42.4102 
       0.822261         123.156         41.6923 
       0.828378         121.973         40.9933 
       0.834502         121.572           40.31 
       0.840667         119.731          39.638 
       0.846816         118.483         38.9835 
       0.852925         117.955         38.3479 
       0.859047         116.548         37.7254 
       0.865192         115.627         37.1147 
       0.871341         114.672         36.5173 
       0.877463         113.517         35.9358 
       0.883569          113.15         35.3686 
       0.889708         112.045         34.8109 
       0.895864         110.863         34.2638 
       0.902008         110.143         33.7297 
       0.908149         109.669         33.2074 
       0.914301         108.485         32.6954 
       0.920448         107.608         32.1947 
       0.926574         106.884         31.7064 
       0.932687         106.781         31.2293 
       0.938823         105.124         30.7603 
       0.944975         104.033            30.3 
       0.951105         103.605         29.8509 
       0.957225         102.584         29.4117 
       0.963368         101.508         28.9799 
       0.969511          101.43         28.5568 
       0.975621         100.814         28.1446 
       0.981748         100.157         27.7394 
       0.987916          99.095         27.3398 
        0.99406         98.3545         26.9497 
        1.00019         98.0685         26.5679 
        1.00632         97.0243          26.194 
        1.01246         96.5305         25.8268 
        1.01859         95.6201         25.4673 
        1.02471         94.8921         25.1151 
        1.03085         94.0965         24.7685 
        1.03698         93.8588         24.4291 
        1.04314         92.9019         24.0948 
        1.04929         92.3376         23.7675 
        1.05541         91.5875         23.4476 
        1.06154         91.2718         23.1329 
        1.06769         90.9501         22.8236 
        1.07382          90.227         22.5209 
        1.07993         89.5646         22.2245 
        1.08607         88.8723         21.9322 
        1.09222         88.6657         21.6449 
        1.09836         87.8506         21.3632 
        1.10449         87.2943         21.0868 
        1.11063         86.6352          20.815 
        1.11677         86.2429         20.5482 
         1.1229         85.4199         20.2865 
        1.12903         84.8467         20.0291 
        1.13518         84.8909         19.7761 
        1.14131         84.1518         19.5275 
        1.14745         83.5283         19.2835 
        1.15359         83.0656         19.0435 
        1.15973         82.6379         18.8076 
        1.16584         81.9038         18.5767 
        1.17197         81.5019         18.3495 
        1.17811         81.0509         18.1253 
        1.18424         80.5121         17.9056 
        1.19038          80.217         17.6889 
        1.19652         79.7483         17.4759 
        1.20267         78.8949         17.2664 
        1.20881         78.5595         17.0604 
        1.21495         78.0496         16.8581 
        1.22108         77.7899         16.6592 
         1.2272         76.9321          16.464 
        1.23334         76.6947         16.2714 
        1.23949         76.2536         16.0815 
        1.24562          75.757         15.8952 
        1.25174         75.3647         15.7121 
        1.25789         75.0669         15.5314 
        1.26402         74.4948         15.3539 
        1.27014         74.1336         15.1796 
        1.27628         73.7387         15.0075 
        1.28244         73.2489         14.8377 
        1.28858         73.0468         14.6708 
        1.29471          72.522         14.5069 
        1.30084         72.1884         14.3456 
        1.30697         71.6572         14.1866 
        1.31312         71.2659         14.0298 
        1.31925         70.8324         13.8758 
        1.32537         70.5984         13.7243 
        1.33151         69.9157         13.5745 
        1.33765         69.6756         13.4271 
        1.34378         69.2941         13.2822 
        1.34992         68.9713         13.1393 
        1.35606         68.5889         12.9982 
         1.3622         68.0271         12.8595 
        1.36833         67.9166         12.7231 
        1.37445         67.4676         12.5888 
        1.38059         66.9344          12.456 
        1.38675         66.6042         12.3248 
        1.39288         66.2937         12.1961 
        1.39901         66.0576         12.0692 
        1.40515         65.5931         11.9439 
         1.4113         65.2773         11.8204 
        1.41742         65.1801         11.6991 
        1.42355         64.6046         11.5793 
         1.4297          64.455         11.4609 
        1.43585         63.9169         11.3441 
        1.44198         63.5655         11.2294 
        1.44809         63.3212         11.1166 
        1.45423         62.9972         11.0049 
        1.46036         62.7828         10.8949 
        1.46649         62.3496         10.7864 
        1.47263         61.9661         10.6793 
        1.47877         61.7697         10.5737 
        1.48491         61.4489         10.4694 
        1.49104         61.1153         10.3667 
        1.49718         60.6774         10.2653 
        1.50333         60.4908         10.1651 
        1.50947         60.2121         10.0665 
         1.5156         59.8652         9.96931 
        1.52172         59.6103         9.87343 
        1.52787         59.4552         9.77863 
          1.534         58.9486         9.68519 
        1.54013         58.6044         9.59308 
        1.54627         58.5069           9.502 
        1.55241         57.9712          9.4121 
        1.55855         57.8512         9.32349 
        1.56467         57.4896         9.23627 
         1.5708         57.3312         9.14993 
        1.57695          57.128         9.06457 
        1.58308         56.6456         8.98049 
        1.58922         56.4417         8.89743 
        1.59535         56.3142         8.81545 
         1.6015         55.7504         8.73439 
        1.60764         55.6254         8.65439 
        1.61376         55.2933         8.57562 
        1.61989         55.0711         8.49777 
        1.62604         54.8567         8.42071 
        1.63218         54.6655         8.34466 
        1.63831         54.2113         8.26973 
        1.64444         54.0342         8.19569 
        1.65059         53.7875         8.12239 
        1.65673          53.514         8.05006 
        1.66285         53.1655         7.97883 
        1.66898         53.0173         7.90843 
        1.67512         52.6265         7.83875 
        1.68127         52.4791         7.76986 
         1.6874         52.2592         7.70194 
        1.69353           51.98         7.63489 
        1.69967         51.6956         7.56847 
        1.70581         51.5788         7.50288 
        1.71193         51.3795         7.43832 
        1.71806         50.8594         7.37438 
        1.72421         50.7942         7.31107 
        1.73035          50.569         7.24858 
        1.73649         50.2184         7.18683 
        1.74262         50.0643         7.12586 
        1.74876         49.8003         7.06555 
        1.75489         49.5885         7.00608 
        1.76101         49.4052          6.9473 
        1.76715         49.0611         6.88913 
        1.77329         48.8634         6.83155 
        1.77943         48.5554         6.77461 
        1.78557          48.409          6.7184 
        1.79171         48.1844         6.66282 
        1.79785         47.9304         6.60787 
        1.80399         47.8586         6.55354 
        1.81012          47.518         6.49991 
        1.81625         47.2027          6.4469 
        1.82239         47.0796          6.3944 
        1.82853         46.8026         6.34251 
        1.83466          46.587         6.29126 
        1.84078         46.3453         6.24062 
        1.84692         46.1149         6.19046 
        1.85306         45.9214         6.14079 
         1.8592         45.6476         6.09175 
        1.86533         45.5237         6.04327 
        1.87147           45.29         5.99526 
        1.87761         45.1328         5.94776 
        1.88375         44.8955         5.90083 
        1.88988         44.7689         5.85445 
        1.89601         44.4928         5.80855 
        1.90215         44.3186         5.76311 
        1.90829         44.1691         5.71818 
        1.91442         43.9241         5.67373 
        1.92056         43.6322         5.62979 
         1.9267          43.484         5.58627 
        1.93284         43.2419         5.54318 
        1.93897         43.1269         5.50064 
        1.94509         42.8448         5.45863 
        1.95123         42.6908         5.41696 
        1.95737         42.4936         5.37569 
        1.96349         42.2222         5.33497 
        1.96964         42.1735         5.29454 
        1.97578          41.889         5.25452 
        1.98192         41.7229           5.215 
        1.98805         41.6468         5.17588 
        1.99419          41.354         5.13716 
        2.00033         41.1649         5.09882 
        2.00647         40.9786         5.06088 
         2.0126         40.6778         5.02339 
        2.01874         40.6814         4.98623 
        2.02488         40.4664         4.94941 
        2.03101         40.2448         4.91303 
        2.03714         40.0877         4.87705 
        2.04328         39.8815          4.8414 
        2.04941         39.6834         4.80613 
        2.05554         39.4729         4.77124 
        2.06167         39.3778         4.73665 
        2.06781         39.1235          4.7024 
        2.07396         39.0341         4.66844 
        2.08009         38.8612         4.63487 
        2.08622         38.6019         4.60168 
        2.09237         38.4827         4.56874 
        2.09851         38.3181         4.53613 
        2.10464         38.1653         4.50388 
        2.11077         38.0014         4.47199 
        2.11691          37.749         4.44034 
        2.12305          37.601         4.40899 
        2.12918         37.4491         4.37803 
        2.13531           37.24         4.34735 
        2.14145          37.085         4.31691 
         2.1476         36.9044         4.28671 
        2.15372         36.7246         4.25696 
        2.15985         36.6103         4.22746 
        2.16599         36.4922         4.19816 
        2.17213         36.3722         4.16917 
        2.17827          36.119         4.14046 
         2.1844          35.986         4.11205 
        2.19054         35.7993         4.08389 
        2.19666         35.6378         4.05604 
         2.2028         35.4505         4.02842 
        2.20893         35.3748         4.00105 
        2.21508         35.2599          3.9739 
        2.22122         35.0373           3.947 
        2.22736         34.9403          3.9204 
        2.23349         34.7554         3.89406 
        2.23962         34.5163         3.86794 
        2.24577         34.3734         3.84204 
         2.2519         34.2339         3.81641 
        2.25802         34.1913         3.79106 
        2.26417         33.9528         3.76587 
        2.27031         33.7992         3.74089 
        2.27644         33.6676         3.71621 
        2.28257         33.5548         3.69175 
        2.28872         33.3621         3.66746 
        2.29486         33.2696          3.6434 
        2.30099         33.0946         3.61961 
        2.30712         32.9689         3.59601 
        2.31326         32.7725         3.57259 
         2.3194         32.6647         3.54939 
        2.32553         32.5304         3.52644 
        2.33166         32.4104          3.5037 
         2.3378         32.1757         3.48113 
        2.34394         32.1273         3.45875 
        2.35007         31.9596          3.4366 
        2.35619          31.799         3.41467 
        2.36233          31.718         3.39288 
        2.36848         31.5768         3.37124 
        2.37462         31.3929         3.34984 
        2.38075         31.3374         3.32864 
        2.38689         31.1884          3.3076 
        2.39303         31.0324         3.28675 
        2.39916         30.8385         3.26611 
        2.40529         30.7151         3.24564 
        2.41143         30.6689         3.22534 
        2.41757         30.5164          3.2052 
         2.4237         30.4225         3.18527 
        2.42983         30.2012         3.16551 
        2.43598         30.1216         3.14586 
        2.44211         29.9607         3.12642 
        2.44823         29.8853         3.10718 
        2.45437         29.7193         3.08806 
        2.46052         29.5229         3.06908 
        2.46665         29.4745         3.05029 
        2.47279         29.3524         3.03167 
        2.47892         29.2096         3.01319 
        2.48507         29.0767         2.99484 
         2.4912         28.9966         2.97669 
