# k  (h/Mpc)    P(k)  (Mpc/h)^3    P_linear(k)  (Mpc/h)^3
     0.00783031          54.054         54.4603 
       0.013688         71.4841         71.7497 
       0.019231         76.5184          76.563 
      0.0249154         74.1301         74.2999 
      0.0312784         67.5109         67.4972 
      0.0375637         59.8715         59.7526 
      0.0433917         53.4944         53.4163 
      0.0492413         48.5813         48.4783 
      0.0555754           44.67         44.6267 
      0.0619321          41.871         41.7702 
       0.067871          39.433           39.42 
      0.0738098         36.9372         36.9441 
      0.0800417         33.9905          34.018 
      0.0862327         30.8699         30.8643 
      0.0921407         27.8997         27.8731 
      0.0982031         25.1164         25.0997 
       0.104506         22.7987           22.74 
       0.110769         21.0314         20.9831 
       0.116806         19.7745         19.7675 
       0.122832          18.888         18.8633 
       0.129052         18.0551         18.0606 
       0.135211         17.2132         17.2311 
       0.141259         16.2949         16.2949 
       0.147318         15.2548         15.2349 
       0.153489         14.1069          14.098 
       0.159709         13.0077         12.9961 
       0.165845         12.0823         12.0414 
       0.171974         11.2786         11.2681 
       0.178125         10.6873         10.6746 
       0.184229          10.249         10.2289 
        0.19034         9.85961         9.86583 
       0.196428         9.52839         9.52452 
       0.202534         9.17908         9.15527 
       0.208729         8.74027         8.73149 
       0.214876          8.2645         8.26924 
       0.220989          7.8202         7.79576 
       0.227147          7.3391         7.33984 
        0.23329         6.93631         6.93521 
       0.239377         6.60254         6.59888 
       0.245482         6.32426         6.32509 
       0.251667         6.10981         6.09855 
       0.257832         5.90525         5.90232 
       0.263955         5.72026         5.71479 
       0.270079          5.5255         5.51876 
        0.27624         5.32318         5.30646 
       0.282372         5.09825         5.08253 
        0.28843         4.86491          4.8585 
       0.294538         4.65003         4.64112 
       0.300721         4.45747         4.44019 
        0.30691         4.27227         4.26354 
       0.313033         4.12281         4.11306 
       0.319153         3.97675         3.98211 
       0.325316         3.87806         3.86262 
        0.33145         3.76026         3.74843 
       0.337538         3.64422         3.63437 
       0.343633         3.52301         3.51656 
       0.349808         3.40431         3.39447 
       0.355968         3.28458         3.27246 
       0.362074          3.1655         3.15555 
       0.368217         3.05587         3.04525 
       0.374374         2.94768         2.94417 
       0.380519         2.86362         2.85309 
       0.386598         2.78319         2.77102 
       0.392688         2.70959         2.69475 
        0.39888         2.63213         2.62048 
       0.405048         2.55986         2.54761 
       0.411186         2.48895          2.4753 
       0.417313         2.41265         2.40294 
       0.423458         2.34511         2.33118 
       0.429607         2.27151         2.26146 
       0.435692         2.20552         2.19555 
       0.441815         2.14384          2.1331 
       0.447964         2.09066         2.07471 
       0.454126         2.03014         2.01991 
       0.460267         1.97704         1.96829 
       0.466387         1.92691         1.91904 
        0.47254         1.87988         1.87089 
       0.478662         1.83421          1.8237 
       0.484765         1.78596         1.77738 
       0.490885         1.74138         1.73184 
       0.497035         1.70191         1.68724 
       0.503198         1.65571         1.64407 
       0.509342          1.6169          1.6029 
       0.515458          1.5748         1.56395 
       0.521598         1.53825         1.52668 
       0.527764         1.49973         1.49084 
       0.533884         1.46977          1.4566 
           0.54         1.43552         1.42347 
       0.546137         1.40462         1.39109 
       0.552299         1.37153         1.35925 
       0.558452         1.33813         1.32814 
       0.564573         1.30956         1.29801 
       0.570708         1.28074         1.26874 
       0.576825         1.25143         1.24058 
       0.582926         1.22656         1.21348 
       0.589034         1.19545         1.18729 
       0.595184         1.17106         1.16185 
       0.601379         1.14704          1.1371 
       0.607522         1.12505         1.11333 
       0.613639         1.10401         1.09031 
       0.619772         1.07799         1.06781 
       0.625918         1.05669         1.04577 
       0.632068         1.03673         1.02428 
       0.638161         1.01476         1.00356 
         0.6443        0.994421        0.983288 
       0.650464         0.97305         0.96357 
       0.656582        0.955372        0.944597 
       0.662703         0.93746        0.926173 
       0.668861        0.921113         0.90816 
       0.675024        0.901814        0.890618 
       0.681124        0.882882        0.873709 
       0.687237        0.868573        0.857198 
       0.693381        0.852934        0.841031 
       0.699536        0.833912        0.825251 
       0.705665        0.819221        0.809944 
       0.711789        0.806067        0.795043 
       0.717957        0.790005        0.780419 
        0.72409        0.776768         0.76625 
       0.730186        0.762143        0.752523 
       0.736317        0.750529        0.739064 
       0.742472        0.736855        0.725891 
       0.748622        0.723526        0.713058 
        0.75476        0.709642        0.700569 
       0.760888        0.697171        0.688403 
       0.767043        0.688551        0.676483 
       0.773185        0.674987        0.664874 
       0.779291        0.663451        0.653607 
       0.785407        0.652928        0.642587 
       0.791564        0.642131        0.631754 
       0.797719        0.632105        0.621179 
       0.803834        0.621922        0.610915 
       0.809972        0.611323        0.600849 
       0.816124        0.601196         0.59099 
       0.822261         0.59084        0.581381 
       0.828378        0.582479        0.572017 
       0.834502          0.5737        0.562854 
       0.840667        0.563336        0.553834 
       0.846816        0.554775         0.54504 
       0.852925        0.547568        0.536495 
       0.859047        0.539121        0.528117 
       0.865192        0.529948        0.519893 
       0.871341        0.521516        0.511841 
       0.877463        0.515282        0.503998 
       0.883569        0.506492        0.496341 
       0.889708        0.499015        0.488807 
       0.895864        0.491428        0.481412 
       0.902008        0.483989        0.474187 
       0.908149        0.476641        0.467116 
       0.914301        0.468522         0.46018 
       0.920448        0.462495        0.453393 
       0.926574        0.455545        0.446768 
       0.932687        0.448824        0.440291 
       0.938823        0.443926         0.43392 
       0.944975        0.437207        0.427662 
       0.951105         0.43119        0.421551 
       0.957225        0.426035        0.415571 
       0.963368        0.419554        0.409688 
       0.969511        0.412979         0.40392 
       0.975621        0.407217        0.398294 
       0.981748        0.402907        0.392763 
       0.987916        0.397112        0.387303 
        0.99406        0.391358        0.381968 
        1.00019        0.386709        0.376745 
        1.00632        0.380539        0.371626 
        1.01246        0.375277        0.366595 
        1.01859        0.371038        0.361666 
        1.02471        0.366081        0.356834 
        1.03085        0.362122        0.352075 
        1.03698        0.356659        0.347414 
        1.04314        0.352187        0.342819 
        1.04929        0.347346        0.338318 
        1.05541        0.343522        0.333916 
        1.06154        0.338553        0.329583 
        1.06769         0.33396        0.325321 
        1.07382        0.330127        0.321149 
        1.07993        0.325627         0.31706 
        1.08607        0.322659        0.313027 
        1.09222        0.317973         0.30906 
        1.09836        0.314773        0.305167 
        1.10449        0.310791        0.301347 
        1.11063         0.30627        0.297588 
        1.11677        0.302399        0.293895 
         1.1229        0.299219        0.290273 
        1.12903        0.295305        0.286708 
        1.13518         0.29218        0.283201 
        1.14131        0.288367        0.279755 
        1.14745        0.284161        0.276369 
        1.15359        0.281457        0.273039 
        1.15973        0.277623        0.269763 
        1.16584        0.275161        0.266556 
        1.17197        0.271833        0.263397 
        1.17811        0.268979        0.260279 
        1.18424        0.266349        0.257222 
        1.19038         0.26272        0.254205 
        1.19652        0.259084        0.251239 
        1.20267        0.257034         0.24832 
        1.20881        0.254006        0.245448 
        1.21495        0.251478        0.242627 
        1.22108        0.248285        0.239851 
         1.2272        0.245888        0.237125 
        1.23334         0.24291        0.234435 
        1.23949        0.240213        0.231781 
        1.24562        0.237649        0.229176 
        1.25174        0.235156        0.226615 
        1.25789        0.233043        0.224086 
        1.26402        0.229694          0.2216 
        1.27014        0.227577        0.219158 
        1.27628        0.225322        0.216746 
        1.28244        0.222338        0.214366 
        1.28858        0.220354        0.212025 
        1.29471         0.21849        0.209725 
        1.30084        0.215657        0.207461 
        1.30697        0.213504        0.205227 
        1.31312        0.210742        0.203024 
        1.31925        0.208789         0.20086 
        1.32537        0.206861         0.19873 
        1.33151        0.204845        0.196623 
        1.33765        0.202804        0.194548 
        1.34378        0.200464        0.192508 
        1.34992        0.198445        0.190496 
        1.35606        0.196495        0.188508 
         1.3622        0.194569        0.186552 
        1.36833        0.192555         0.18463 
        1.37445        0.190181        0.182735 
        1.38059        0.188516        0.180861 
        1.38675        0.187344         0.17901 
        1.39288        0.185223        0.177192 
        1.39901        0.183324          0.1754 
        1.40515        0.181864        0.173629 
         1.4113        0.179559        0.171883 
        1.41742        0.177869        0.170168 
        1.42355        0.176488        0.168474 
         1.4297        0.174587        0.166797 
        1.43585        0.173018        0.165144 
        1.44198        0.171509        0.163521 
        1.44809         0.16967        0.161922 
        1.45423        0.168245        0.160338 
        1.46036        0.166554        0.158779 
        1.46649        0.165369         0.15724 
        1.47263        0.163599        0.155721 
        1.47877        0.161699        0.154222 
        1.48491         0.16053        0.152741 
        1.49104        0.158697        0.151283 
        1.49718        0.157249        0.149842 
        1.50333        0.156238        0.148419 
        1.50947        0.154482        0.147016 
         1.5156        0.153157        0.145635 
        1.52172        0.151805         0.14427 
        1.52787        0.150445        0.142921 
          1.534        0.148855        0.141591 
        1.54013         0.14761        0.140279 
        1.54627        0.146592        0.138982 
        1.55241        0.144993        0.137701 
        1.55855        0.143549        0.136438 
        1.56467        0.142823        0.135194 
         1.5708        0.141397        0.133962 
        1.57695        0.140076        0.132744 
        1.58308          0.1388        0.131544 
        1.58922        0.137729        0.130359 
        1.59535        0.136499        0.129188 
         1.6015        0.135184         0.12803 
        1.60764        0.134179        0.126887 
        1.61376        0.132856        0.125761 
        1.61989        0.131879        0.124648 
        1.62604        0.130879        0.123546 
        1.63218         0.12971        0.122458 
        1.63831        0.128588        0.121386 
        1.64444        0.127571        0.120327 
        1.65059        0.126506        0.119277 
        1.65673        0.125467        0.118241 
        1.66285        0.124635        0.117221 
        1.66898        0.123502        0.116212 
        1.67512        0.122287        0.115214 
        1.68127        0.121234        0.114226 
         1.6874         0.12046        0.113252 
        1.69353          0.1192         0.11229 
        1.69967        0.118693        0.111337 
        1.70581        0.117254        0.110395 
        1.71193        0.116467        0.109468 
        1.71806        0.115364         0.10855 
        1.72421        0.114859        0.107641 
        1.73035         0.11367        0.106743 
        1.73649        0.112967        0.105855 
        1.74262        0.111968        0.104979 
        1.74876        0.111044        0.104112 
        1.75489        0.110372        0.103256 
        1.76101        0.109264         0.10241 
        1.76715        0.108428        0.101573 
        1.77329        0.107473        0.100744 
        1.77943        0.106785       0.0999243 
        1.78557        0.106086       0.0991147 
        1.79171         0.10523        0.098314 
        1.79785        0.104398       0.0975221 
        1.80399         0.10359        0.096739 
        1.81012        0.102864       0.0959657 
        1.81625           0.102       0.0952012 
        1.82239         0.10116        0.094444 
        1.82853        0.100427       0.0936954 
        1.83466        0.099762       0.0929557 
        1.84078       0.0989837       0.0922247 
        1.84692       0.0981447       0.0915006 
        1.85306       0.0975445       0.0907833 
         1.8592       0.0966445       0.0900749 
        1.86533        0.096079       0.0893745 
        1.87147       0.0953222       0.0886807 
        1.87761       0.0948491       0.0879941 
        1.88375       0.0940563       0.0873156 
        1.88988       0.0932542        0.086645 
        1.89601        0.092577       0.0859811 
        1.90215       0.0919196       0.0853236 
        1.90829       0.0911932       0.0846734 
        1.91442       0.0907377       0.0840299 
        1.92056       0.0899173       0.0833937 
         1.9267       0.0892336       0.0827635 
        1.93284        0.088664       0.0821395 
        1.93897       0.0880186       0.0815231 
        1.94509       0.0874951       0.0809144 
        1.95123       0.0867676       0.0803104 
        1.95737        0.086246       0.0797122 
        1.96349       0.0855766       0.0791216 
        1.96964       0.0849975       0.0785353 
        1.97578        0.084395       0.0779548 
        1.98192       0.0839132       0.0773813 
        1.98805       0.0832554       0.0768136 
        1.99419        0.082583       0.0762515 
        2.00033       0.0820373       0.0756949 
        2.00647       0.0816866       0.0751439 
         2.0126       0.0809036       0.0745994 
        2.01874       0.0805605       0.0740595 
        2.02488       0.0799488       0.0735245 
        2.03101       0.0794326       0.0729958 
        2.03714       0.0787043       0.0724728 
        2.04328       0.0784271       0.0719544 
        2.04941       0.0776689       0.0714414 
        2.05554       0.0773359       0.0709339 
        2.06167       0.0768951       0.0704306 
        2.06781        0.076234       0.0699322 
        2.07396       0.0757869       0.0694379 
        2.08009       0.0752453       0.0689493 
        2.08622       0.0748231       0.0684659 
        2.09237       0.0743162       0.0679863 
        2.09851       0.0737993       0.0675112 
        2.10464       0.0734387       0.0670414 
        2.11077       0.0728315       0.0665767 
        2.11691       0.0723702       0.0661154 
        2.12305       0.0718942       0.0656584 
        2.12918       0.0715253       0.0652069 
        2.13531       0.0709413       0.0647597 
        2.14145       0.0704591       0.0643156 
         2.1476       0.0700528       0.0638751 
        2.15372       0.0697249       0.0634411 
        2.15985         0.06917       0.0630106 
        2.16599       0.0687097       0.0625829 
        2.17213       0.0683094       0.0621597 
        2.17827        0.067868       0.0617405 
         2.1844        0.067535       0.0613256 
        2.19054       0.0670819       0.0609143 
        2.19666       0.0666157       0.0605074 
         2.2028       0.0661521       0.0601039 
        2.20893        0.065869       0.0597039 
        2.21508       0.0654056        0.059307 
        2.22122       0.0649646       0.0589137 
        2.22736       0.0646516       0.0585248 
        2.23349       0.0642286       0.0581395 
        2.23962        0.063945       0.0577574 
        2.24577       0.0634633       0.0573785 
         2.2519       0.0631032       0.0570036 
        2.25802       0.0627063       0.0566325 
        2.26417       0.0623399       0.0562638 
        2.27031         0.06189       0.0558981 
        2.27644       0.0615349       0.0555366 
        2.28257       0.0612293       0.0551784 
        2.28872       0.0608857       0.0548227 
        2.29486       0.0605753       0.0544702 
        2.30099       0.0601709       0.0541216 
        2.30712       0.0596933       0.0537758 
        2.31326         0.05937       0.0534325 
         2.3194       0.0591519       0.0530924 
        2.32553       0.0587504       0.0527559 
        2.33166       0.0585011       0.0524224 
         2.3378       0.0581425       0.0520914 
        2.34394       0.0577599       0.0517631 
        2.35007       0.0573781       0.0514381 
        2.35619       0.0569506       0.0511164 
        2.36233       0.0567971       0.0507966 
        2.36848       0.0565154       0.0504789 
        2.37462       0.0560941       0.0501646 
        2.38075       0.0557802       0.0498533 
        2.38689       0.0554856       0.0495444 
        2.39303       0.0552192       0.0492382 
        2.39916       0.0548655       0.0489349 
        2.40529       0.0546047       0.0486342 
        2.41143       0.0542241       0.0483358 
        2.41757       0.0539283       0.0480398 
         2.4237       0.0537159       0.0477468 
        2.42983       0.0534454       0.0474563 
        2.43598       0.0531819       0.0471674 
        2.44211       0.0527797       0.0468815 
        2.44823       0.0525235       0.0465985 
        2.45437       0.0522037       0.0463172 
        2.46052       0.0519542       0.0460379 
        2.46665       0.0516055       0.0457615 
        2.47279       0.0513299       0.0454874 
        2.47892       0.0509926       0.0452154 
        2.48507       0.0507426       0.0449453 
         2.4912       0.0505051        0.044678 
