# k  (h/Mpc)    P(k)  (Mpc/h)^3    P_linear(k)  (Mpc/h)^3
     0.00783031         292.477         295.128 
       0.013688         387.303         388.639 
       0.019231         414.207         414.636 
      0.0249154         400.607         402.342 
      0.0312784         365.105         365.482 
      0.0375637         324.008         323.534 
      0.0433917         289.068          289.22 
      0.0492413         262.787          262.48 
      0.0555754         241.185         241.623 
      0.0619321         226.798         226.156 
       0.067871         213.059          213.43 
      0.0738098         199.549         200.024 
      0.0800417         183.437          184.18 
      0.0862327         166.798         167.104 
      0.0921407         150.832         150.909 
      0.0982031         135.671         135.893 
       0.104506         123.482         123.117 
       0.110769         113.899         113.605 
       0.116806         106.877         107.023 
       0.122832         102.251         102.128 
       0.129052         97.5618         97.7823 
       0.135211         92.9924         93.2909 
       0.141259         88.1705          88.222 
       0.147318         82.6681          82.483 
       0.153489         76.3629         76.3275 
       0.159709         70.4624         70.3616 
       0.165845         65.6741         65.1927 
       0.171974         61.1504         61.0063 
       0.178125         57.9974         57.7932 
       0.184229         55.6843         55.3801 
        0.19034         53.3929         53.4143 
       0.196428         51.7266         51.5664 
       0.202534         49.9619         49.5673 
       0.208729         47.5075         47.2729 
       0.214876         44.8607         44.7702 
       0.220989         42.6298         42.2067 
       0.227147         39.8803         39.7383 
        0.23329         37.7275         37.5476 
       0.239377         35.9838         35.7267 
       0.245482          34.387         34.2443 
       0.251667         33.3564         33.0179 
       0.257832         32.2215         31.9555 
       0.263955         31.2249         30.9402 
       0.270079         30.1739         29.8789 
        0.27624           29.17         28.7295 
       0.282372         27.9486         27.5171 
        0.28843         26.6445         26.3042 
       0.294538         25.4937         25.1273 
       0.300721         24.5316         24.0394 
        0.30691         23.4578          23.083 
       0.313033         22.6698         22.2683 
       0.319153         21.7786         21.5593 
       0.325316         21.3723         20.9124 
        0.33145         20.7069         20.2942 
       0.337538         20.0843         19.6767 
       0.343633         19.4034         19.0388 
       0.349808         18.7945         18.3778 
       0.355968         18.1436         17.7173 
       0.362074         17.4983         17.0843 
       0.368217         16.9248         16.4871 
       0.374374         16.3124         15.9399 
       0.380519          15.884         15.4468 
       0.386598         15.4623         15.0024 
       0.392688         15.0804         14.5895 
        0.39888         14.6498         14.1874 
       0.405048         14.2748         13.7929 
       0.411186         13.9012         13.4014 
       0.417313         13.4499         13.0096 
       0.423458          13.099         12.6211 
       0.429607         12.6884         12.2437 
       0.435692         12.3262         11.8868 
       0.441815         12.0091         11.5487 
       0.447964         11.7543         11.2325 
       0.454126         11.3819         10.9359 
       0.460267         11.1088         10.6564 
       0.466387          10.807         10.3898 
        0.47254         10.5822         10.1291 
       0.478662         10.3466          9.8736 
       0.484765          10.065         9.62279 
       0.490885         9.81527         9.37628 
       0.497035         9.64815         9.13479 
       0.503198          9.3826         8.90107 
       0.509342          9.1662         8.67816 
       0.515458         8.93529         8.46729 
       0.521598         8.74567         8.26552 
       0.527764         8.52755         8.07147 
       0.533884         8.37702         7.88608 
           0.54         8.18622         7.70672 
       0.546137         8.02356         7.53139 
       0.552299         7.85132         7.35901 
       0.558452         7.63842         7.19062 
       0.564573         7.50842         7.02749 
       0.570708         7.35151         6.86903 
       0.576825          7.1722         6.71654 
       0.582926         7.04871         6.56981 
       0.589034         6.85278         6.42803 
       0.595184         6.73447         6.29029 
       0.601379         6.59444         6.15632 
       0.607522           6.492          6.0276 
       0.613639         6.39419           5.903 
       0.619772         6.22729         5.78115 
       0.625918          6.1315         5.66187 
       0.632068         6.03086         5.54549 
       0.638161         5.89259         5.43331 
         0.6443         5.77428         5.32356 
       0.650464         5.65113         5.21681 
       0.656582         5.57687         5.11409 
       0.662703         5.47508         5.01434 
       0.668861         5.38851         4.91681 
       0.675024         5.27389         4.82184 
       0.681124         5.17025         4.73029 
       0.687237         5.09918          4.6409 
       0.693381         5.01334         4.55337 
       0.699536         4.88476         4.46794 
       0.705665          4.8135         4.38507 
       0.711789         4.74036          4.3044 
       0.717957         4.65165         4.22522 
        0.72409         4.57674         4.14851 
       0.730186         4.50012         4.07419 
       0.736317          4.4522         4.00132 
       0.742472         4.37544            3.93 
       0.748622         4.29297         3.86052 
        0.75476         4.20518         3.79291 
       0.760888         4.14517         3.72704 
       0.767043         4.10002         3.66251 
       0.773185         4.01578         3.59965 
       0.779291         3.96354         3.53865 
       0.785407         3.90065         3.47899 
       0.791564         3.84071         3.42034 
       0.797719         3.78843         3.36309 
       0.803834         3.73542         3.30752 
       0.809972         3.68037         3.25302 
       0.816124         3.61387         3.19964 
       0.822261         3.55284         3.14762 
       0.828378         3.51044         3.09692 
       0.834502         3.47043         3.04731 
       0.840667         3.39895         2.99848 
       0.846816         3.35029         2.95087 
       0.852925         3.31866          2.9046 
       0.859047         3.27047         2.85924 
       0.865192          3.2239         2.81472 
       0.871341         3.17931         2.77112 
       0.877463         3.14412         2.72866 
       0.883569         3.08737         2.68721 
       0.889708         3.04101         2.64642 
       0.895864         3.00579         2.60638 
       0.902008          2.9568         2.56726 
       0.908149         2.92153         2.52898 
       0.914301          2.8677         2.49143 
       0.920448         2.83535         2.45469 
       0.926574         2.79495         2.41882 
       0.932687         2.76262         2.38375 
       0.938823         2.73637         2.34926 
       0.944975         2.69643         2.31538 
       0.951105         2.66542         2.28229 
       0.957225         2.64155         2.24992 
       0.963368         2.60319         2.21806 
       0.969511         2.56481         2.18684 
       0.975621         2.52514         2.15638 
       0.981748         2.50441         2.12643 
       0.987916         2.47143         2.09687 
        0.99406          2.4335         2.06799 
        1.00019         2.41199         2.03971 
        1.00632          2.3766           2.012 
        1.01246         2.34925         1.98476 
        1.01859         2.32473         1.95807 
        1.02471          2.2927         1.93191 
        1.03085         2.27187         1.90615 
        1.03698         2.23866         1.88091 
        1.04314         2.21676         1.85603 
        1.04929         2.18605         1.83166 
        1.05541          2.1646         1.80783 
        1.06154         2.13749         1.78438 
        1.06769         2.11309          1.7613 
        1.07382         2.09061         1.73871 
        1.07993         2.05878         1.71658 
        1.08607         2.04755         1.69474 
        1.09222         2.01906         1.67326 
        1.09836         2.00527         1.65219 
        1.10449         1.98094          1.6315 
        1.11063          1.9529         1.61115 
        1.11677         1.92962         1.59116 
         1.1229         1.91023         1.57155 
        1.12903         1.88683         1.55225 
        1.13518         1.87328         1.53326 
        1.14131         1.84693         1.51461 
        1.14745         1.81677         1.49627 
        1.15359         1.80863         1.47824 
        1.15973         1.78078         1.46051 
        1.16584         1.77509         1.44314 
        1.17197         1.75187         1.42604 
        1.17811         1.73431         1.40916 
        1.18424         1.72319         1.39261 
        1.19038         1.69893         1.37628 
        1.19652         1.67867         1.36022 
        1.20267         1.66799         1.34441 
        1.20881          1.6441         1.32887 
        1.21495         1.63377         1.31359 
        1.22108          1.6173         1.29856 
         1.2272         1.60487          1.2838 
        1.23334         1.58457         1.26924 
        1.23949         1.56742         1.25487 
        1.24562         1.55511         1.24077 
        1.25174         1.53899          1.2269 
        1.25789         1.52543         1.21321 
        1.26402         1.50488         1.19975 
        1.27014         1.49134         1.18653 
        1.27628         1.48417         1.17347 
        1.28244         1.46221         1.16059 
        1.28858         1.45074         1.14791 
        1.29471         1.43935         1.13546 
        1.30084         1.42295          1.1232 
        1.30697         1.41082         1.11111 
        1.31312         1.39081         1.09918 
        1.31925         1.38374         1.08746 
        1.32537         1.37251         1.07593 
        1.33151         1.36095         1.06452 
        1.33765         1.34657         1.05329 
        1.34378         1.33001         1.04224 
        1.34992         1.32458         1.03135 
        1.35606         1.30804         1.02059 
         1.3622         1.29895            1.01 
        1.36833         1.28616        0.999591 
        1.37445         1.27142        0.989334 
        1.38059         1.26055         0.97919 
        1.38675         1.25899        0.969166 
        1.39288         1.24095        0.959322 
        1.39901         1.23097        0.949621 
        1.40515         1.22128        0.940033 
         1.4113         1.20867        0.930582 
        1.41742         1.19837        0.921297 
        1.42355         1.19454        0.912123 
         1.4297         1.17795        0.903046 
        1.43585         1.16948        0.894098 
        1.44198         1.16456        0.885306 
        1.44809         1.14821        0.876649 
        1.45423         1.14008        0.868077 
        1.46036         1.13109        0.859636 
        1.46649          1.1216        0.851305 
        1.47263         1.11099        0.843078 
        1.47877         1.10083        0.834965 
        1.48491          1.0925        0.826946 
        1.49104         1.08252         0.81905 
        1.49718         1.07669        0.811252 
        1.50333         1.06688        0.803544 
        1.50947         1.05943        0.795952 
         1.5156          1.0496         0.78847 
        1.52172         1.04117        0.781085 
        1.52787          1.0319        0.773781 
          1.534         1.02649        0.766579 
        1.54013         1.01379        0.759477 
        1.54627          1.0071        0.752452 
        1.55241        0.998737        0.745516 
        1.55855        0.989976        0.738678 
        1.56467        0.986192        0.731945 
         1.5708        0.974866        0.725277 
        1.57695        0.970449        0.718683 
        1.58308        0.962174        0.712186 
        1.58922        0.954636        0.705766 
        1.59535        0.947288        0.699428 
         1.6015          0.9402        0.693159 
        1.60764        0.933759        0.686971 
        1.61376        0.923913        0.680876 
        1.61989        0.919446         0.67485 
        1.62604        0.911917        0.668884 
        1.63218        0.907228        0.662995 
        1.63831        0.898093         0.65719 
        1.64444        0.891389        0.651453 
        1.65059        0.885397        0.645771 
        1.65673        0.878389        0.640163 
        1.66285        0.871612        0.634638 
        1.66898        0.867304        0.629177 
        1.67512        0.858583         0.62377 
        1.68127        0.852532        0.618422 
         1.6874        0.848712        0.613149 
        1.69353        0.840703        0.607941 
        1.69967        0.835429        0.602781 
        1.70581        0.829343        0.597684 
        1.71193        0.823415        0.592666 
        1.71806        0.817617        0.587695 
        1.72421        0.812026        0.582771 
        1.73035        0.805346        0.577909 
        1.73649        0.801434        0.573105 
        1.74262        0.795509        0.568359 
        1.74876        0.788934        0.563664 
        1.75489        0.783768        0.559032 
        1.76101        0.777043        0.554454 
        1.76715        0.772749        0.549921 
        1.77329        0.767386        0.545433 
        1.77943         0.76198        0.540994 
        1.78557        0.756844        0.536611 
        1.79171        0.752257        0.532276 
        1.79785        0.746938        0.527988 
        1.80399        0.741667        0.523749 
        1.81012        0.737519        0.519562 
        1.81625        0.731684        0.515423 
        1.82239        0.728226        0.511323 
        1.82853        0.720124         0.50727 
        1.83466        0.717319        0.503265 
        1.84078        0.711597        0.499308 
        1.84692        0.708453        0.495387 
        1.85306        0.703338        0.491504 
         1.8592        0.699177        0.487669 
        1.86533          0.6949        0.483877 
        1.87147        0.689904        0.480121 
        1.87761        0.686452        0.476403 
        1.88375        0.679147         0.47273 
        1.88988        0.676836        0.469099 
        1.89601        0.671726        0.465504 
        1.90215        0.668085        0.461945 
        1.90829        0.662866        0.458425 
        1.91442        0.658952        0.454941 
        1.92056         0.65467        0.451497 
         1.9267        0.650278        0.448085 
        1.93284        0.646716        0.444706 
        1.93897        0.643071        0.441369 
        1.94509        0.638948        0.438073 
        1.95123        0.633876        0.434803 
        1.95737        0.631132        0.431564 
        1.96349        0.626429        0.428367 
        1.96964        0.622522        0.425193 
        1.97578        0.618526         0.42205 
        1.98192        0.616836        0.418945 
        1.98805        0.612093        0.415871 
        1.99419        0.607804        0.412828 
        2.00033        0.604911        0.409815 
        2.00647        0.600995        0.406832 
         2.0126        0.597065        0.403884 
        2.01874        0.593984        0.400961 
        2.02488        0.590697        0.398064 
        2.03101        0.586153        0.395202 
        2.03714         0.58246         0.39237 
        2.04328        0.579834        0.389563 
        2.04941        0.576191        0.386786 
        2.05554        0.572763        0.384039 
        2.06167        0.569933        0.381314 
        2.06781        0.564707        0.378615 
        2.07396        0.561547        0.375939 
        2.08009        0.558785        0.373294 
        2.08622        0.555863        0.370677 
        2.09237        0.554324         0.36808 
        2.09851        0.550657        0.365508 
        2.10464        0.547337        0.362964 
        2.11077        0.543386        0.360448 
        2.11691        0.540209        0.357951 
        2.12305        0.537418        0.355477 
        2.12918        0.534124        0.353033 
        2.13531        0.531239        0.350611 
        2.14145        0.528447        0.348207 
         2.1476        0.525255        0.345822 
        2.15372        0.523555        0.343472 
        2.15985        0.519418        0.341142 
        2.16599        0.515906        0.338826 
        2.17213        0.514025        0.336535 
        2.17827        0.511807        0.334265 
         2.1844        0.509008        0.332019 
        2.19054        0.505941        0.329792 
        2.19666        0.502215        0.327589 
         2.2028        0.500453        0.325404 
        2.20893          0.4977        0.323239 
        2.21508        0.494233         0.32109 
        2.22122        0.491696        0.318961 
        2.22736        0.489174        0.316855 
        2.23349        0.487165        0.314769 
        2.23962        0.484494        0.312701 
        2.24577        0.480674        0.310649 
         2.2519        0.479376        0.308619 
        2.25802        0.476099        0.306611 
        2.26417        0.473384        0.304614 
        2.27031        0.470713        0.302634 
        2.27644         0.46904        0.300677 
        2.28257        0.466005        0.298738 
        2.28872        0.463935        0.296812 
        2.29486        0.460989        0.294904 
        2.30099        0.459148        0.293016 
        2.30712        0.457105        0.291144 
        2.31326        0.453849        0.289285 
         2.3194        0.453679        0.287444 
        2.32553        0.450841        0.285622 
        2.33166        0.448209        0.283817 
         2.3378        0.446132        0.282025 
        2.34394         0.44259        0.280247 
        2.35007        0.440693        0.278488 
        2.35619        0.438324        0.276746 
        2.36233        0.435442        0.275015 
        2.36848        0.434276        0.273295 
        2.37462        0.431676        0.271593 
        2.38075        0.430466        0.269908 
        2.38689        0.427512        0.268235 
        2.39303        0.426297        0.266577 
        2.39916        0.423205        0.264935 
        2.40529        0.421209        0.263307 
        2.41143         0.41966        0.261691 
        2.41757        0.417054        0.260089 
         2.4237        0.415025        0.258503 
        2.42983        0.413294         0.25693 
        2.43598         0.41177        0.255366 
        2.44211        0.409702        0.253818 
        2.44823        0.408205        0.252286 
        2.45437        0.405005        0.250763 
        2.46052        0.404169        0.249251 
        2.46665        0.401762        0.247754 
        2.47279         0.39935         0.24627 
        2.47892        0.397466        0.244797 
        2.48507        0.396034        0.243336 
         2.4912        0.394339        0.241888 
