# k  (h/Mpc)    P(k)  (Mpc/h)^3    P_linear(k)  (Mpc/h)^3
     0.00783031         4595.83         4652.66 
       0.013688         6136.26         6121.46 
       0.019231         6526.91         6528.24 
      0.0249154         6250.85         6333.11 
      0.0312784         5714.05         5751.93 
      0.0375637         5087.79         5091.21 
      0.0433917         4499.26         4550.91 
      0.0492413         4109.21         4129.94 
      0.0555754         3730.87         3801.61 
      0.0619321         3560.43         3558.14 
       0.067871         3299.72         3357.85 
      0.0738098         3087.43         3146.87 
      0.0800417         2819.71         2897.56 
      0.0862327         2577.93         2628.89 
      0.0921407         2347.29         2374.08 
      0.0982031         2105.25         2137.83 
       0.104506         1945.61         1936.82 
       0.110769         1794.73         1787.17 
       0.116806         1677.21         1683.63 
       0.122832         1609.52         1606.61 
       0.129052         1518.28         1538.24 
       0.135211         1448.82         1467.58 
       0.141259         1384.84         1387.83 
       0.147318         1304.93         1297.55 
       0.153489         1200.93         1200.71 
       0.159709         1122.96         1106.86 
       0.165845         1063.76         1025.55 
       0.171974         991.695         959.687 
       0.178125         943.269          909.14 
       0.184229         908.603         871.179 
        0.19034         856.573         840.254 
       0.196428          842.66         811.184 
       0.202534         818.605         779.735 
       0.208729         778.798         743.641 
       0.214876         735.672         704.271 
       0.220989         711.205         663.945 
       0.227147         667.249         625.114 
        0.23329         637.999         590.652 
       0.239377         620.486         562.007 
       0.245482         581.957         538.689 
       0.251667         575.252         519.396 
       0.257832         557.134         502.683 
       0.263955         539.413         486.711 
       0.270079         522.233         470.015 
        0.27624         514.185         451.935 
       0.282372         492.673         432.863 
        0.28843         476.361         413.782 
       0.294538         455.463         395.269 
       0.300721         450.109         378.156 
        0.30691         429.502          363.11 
       0.313033         419.718         350.295 
       0.319153         404.375         339.142 
       0.325316          394.78         328.966 
        0.33145         383.192         319.241 
       0.337538         378.354         309.526 
       0.343633         366.296         299.493 
       0.349808         355.359         289.094 
       0.355968         349.608         278.703 
       0.362074         340.596         268.747 
       0.368217          331.78         259.352 
       0.374374         321.216         250.744 
       0.380519         315.543         242.987 
       0.386598         308.089         235.997 
       0.392688         304.575         229.502 
        0.39888          296.68         223.176 
       0.405048         290.773          216.97 
       0.411186         284.577         210.812 
       0.417313         278.922         204.649 
       0.423458         273.611         198.538 
       0.429607         267.208           192.6 
       0.435692         259.658         186.986 
       0.441815         258.075         181.668 
       0.447964         253.779         176.694 
       0.454126         243.463         172.027 
       0.460267         240.915         167.631 
       0.466387          237.75         163.437 
        0.47254         233.301         159.336 
       0.478662         231.116         155.317 
       0.484765         225.209         151.372 
       0.490885         221.826         147.494 
       0.497035         218.956         143.695 
       0.503198          213.35         140.019 
       0.509342         210.501         136.512 
       0.515458         207.748         133.195 
       0.521598         205.287         130.021 
       0.527764         202.033         126.969 
       0.533884         198.799         124.052 
           0.54         196.037         121.231 
       0.546137         194.737         118.473 
       0.552299         191.564         115.761 
       0.558452         187.969         113.112 
       0.564573          184.68         110.546 
       0.570708         182.416         108.054 
       0.576825         179.946         105.655 
       0.582926         177.344         103.347 
       0.589034         174.347         101.116 
       0.595184         172.821         98.9498 
       0.601379         171.257         96.8423 
       0.607522         167.235         94.8175 
       0.613639         167.071         92.8574 
       0.619772         163.251         90.9406 
       0.625918         161.905         89.0642 
       0.632068         160.105         87.2336 
       0.638161         158.642         85.4689 
         0.6443         156.455         83.7425 
       0.650464         154.694         82.0632 
       0.656582          153.14         80.4473 
       0.662703         150.492         78.8782 
       0.668861          149.09         77.3441 
       0.675024         147.416         75.8502 
       0.681124         146.114         74.4101 
       0.687237         143.607         73.0039 
       0.693381         142.054          71.627 
       0.699536          140.67         70.2831 
       0.705665         141.306         68.9795 
       0.711789         137.597         67.7104 
       0.717957         137.079          66.465 
        0.72409         135.175         65.2582 
       0.730186         132.969         64.0891 
       0.736317          132.78         62.9429 
       0.742472         131.428          61.821 
       0.748622         130.514          60.728 
        0.75476          129.15         59.6644 
       0.760888         127.478         58.6283 
       0.767043          126.32         57.6131 
       0.773185         125.045         56.6245 
       0.779291         123.973         55.6649 
       0.785407         123.109         54.7264 
       0.791564         121.603         53.8038 
       0.797719         120.144         52.9031 
       0.803834         119.695          52.029 
       0.809972         117.796         51.1717 
       0.816124         117.306          50.332 
       0.822261         116.344         49.5137 
       0.828378         115.253         48.7162 
       0.834502         114.357         47.9358 
       0.840667         113.332         47.1676 
       0.846816         112.254         46.4187 
       0.852925         111.075         45.6909 
       0.859047          109.85         44.9774 
       0.865192         109.649          44.277 
       0.871341         108.657         43.5912 
       0.877463         107.203         42.9233 
       0.883569         106.566         42.2712 
       0.889708         106.039         41.6296 
       0.895864         105.064         40.9997 
       0.902008          104.31         40.3844 
       0.908149         103.631         39.7822 
       0.914301         102.523         39.1915 
       0.920448         101.845         38.6135 
       0.926574         101.199         38.0493 
       0.932687         100.557         37.4976 
       0.938823         99.1594          36.955 
       0.944975         98.9043         36.4221 
       0.951105         97.9652         35.9016 
       0.957225         96.7986         35.3923 
       0.963368         96.5236         34.8913 
       0.969511         95.9684            34.4 
       0.975621         95.4186          33.921 
       0.981748         94.4601         33.4499 
       0.987916         93.9023         32.9849 
        0.99406         93.4418         32.5306 
        1.00019         92.1911         32.0857 
        1.00632         91.9639         31.6497 
        1.01246         91.0322         31.2213 
        1.01859          90.066         30.8015 
        1.02471         90.4902           30.39 
        1.03085         89.4267         29.9847 
        1.03698          88.619         29.5877 
        1.04314         87.7735         29.1963 
        1.04929         87.5219          28.813 
        1.05541         86.7624         28.4382 
        1.06154         86.4674         28.0691 
        1.06769          85.756         27.7061 
        1.07382          85.383         27.3508 
        1.07993         85.0334         27.0026 
        1.08607         84.2091         26.6591 
        1.09222         83.8388         26.3213 
        1.09836         83.2165         25.9897 
        1.10449         82.6916         25.6644 
        1.11063         81.9448         25.3443 
        1.11677         81.5168         25.0298 
         1.1229         81.1755         24.7212 
        1.12903         80.1263         24.4177 
        1.13518         80.2477          24.119 
        1.14131         79.8338         23.8255 
        1.14745         78.8132         23.5371 
        1.15359         78.6136         23.2535 
        1.15973         77.9861         22.9745 
        1.16584         77.4843         22.7014 
        1.17197         77.1161         22.4323 
        1.17811         76.6892         22.1668 
        1.18424         75.9401         21.9064 
        1.19038         75.8197         21.6495 
        1.19652         75.4101         21.3969 
        1.20267          74.841         21.1483 
        1.20881         74.3672         20.9037 
        1.21495         73.8543         20.6634 
        1.22108         73.4159          20.427 
         1.2272         72.8502         20.1948 
        1.23334         72.5729         19.9658 
        1.23949         72.3166         19.7398 
        1.24562          71.964         19.5179 
        1.25174         71.5064         19.2998 
        1.25789         71.1165         19.0844 
        1.26402          70.579         18.8727 
        1.27014         70.0422         18.6647 
        1.27628         69.8486         18.4593 
        1.28244         69.2384         18.2566 
        1.28858         68.9817         18.0572 
        1.29471         68.7635         17.8613 
        1.30084         68.3094         17.6685 
        1.30697         67.7337         17.4783 
        1.31312         67.3402         17.2906 
        1.31925         67.2358         17.1063 
        1.32537         66.7968         16.9249 
        1.33151         66.3708         16.7455 
        1.33765         66.1918         16.5688 
        1.34378          65.813          16.395 
        1.34992         65.0554         16.2237 
        1.35606         64.8287         16.0544 
         1.3622         64.4113         15.8878 
        1.36833         64.2877         15.7241 
        1.37445         64.0387         15.5627 
        1.38059         63.6507         15.4032 
        1.38675         63.2591         15.2455 
        1.39288         62.9059         15.0906 
        1.39901         62.5531          14.938 
        1.40515         62.2645         14.7872 
         1.4113         62.0626         14.6385 
        1.41742         61.4842         14.4925 
        1.42355           61.39         14.3481 
         1.4297         60.9143         14.2054 
        1.43585         60.7774         14.0646 
        1.44198         60.4384         13.9263 
        1.44809         60.0342         13.7901 
        1.45423         59.8843         13.6553 
        1.46036         59.4932         13.5225 
        1.46649         59.1885         13.3914 
        1.47263         58.9225          13.262 
        1.47877         58.7035         13.1344 
        1.48491         58.3579         13.0083 
        1.49104         58.0308         12.8841 
        1.49718         57.6064         12.7614 
        1.50333         57.4458         12.6401 
        1.50947         57.0742         12.5207 
         1.5156           56.81          12.403 
        1.52172         56.5687         12.2869 
        1.52787         56.4651          12.172 
          1.534         56.0621         12.0587 
        1.54013         55.7185         11.9469 
        1.54627         55.6358         11.8364 
        1.55241         55.2817         11.7273 
        1.55855         54.9105         11.6198 
        1.56467         54.5572         11.5138 
         1.5708         54.4647          11.409 
        1.57695         54.1131         11.3052 
        1.58308         54.0494          11.203 
        1.58922         53.7698          11.102 
        1.59535         53.4317         11.0023 
         1.6015          53.145         10.9037 
        1.60764         53.0288         10.8064 
        1.61376         52.7626         10.7105 
        1.61989         52.2405         10.6157 
        1.62604         52.1795         10.5219 
        1.63218         51.8801         10.4292 
        1.63831         51.6522         10.3379 
        1.64444          51.506         10.2477 
        1.65059         51.0186         10.1583 
        1.65673         50.8786         10.0701 
        1.66285         50.7222         9.98317 
        1.66898         50.3527         9.89727 
        1.67512         50.1526         9.81221 
        1.68127         49.8363         9.72808 
         1.6874           49.78         9.64513 
        1.69353         49.4472         9.56321 
        1.69967         49.2927         9.48205 
        1.70581         49.0939         9.40187 
        1.71193         48.7308         9.32292 
        1.71806         48.5219         9.24472 
        1.72421         48.2487         9.16727 
        1.73035         48.0981          9.0908 
        1.73649         47.8697         9.01522 
        1.74262         47.6066         8.94056 
        1.74876         47.5893         8.86671 
        1.75489         47.1656         8.79384 
        1.76101         46.9816         8.72182 
        1.76715         46.7594         8.65052 
        1.77329         46.5543         8.57992 
        1.77943         46.4049         8.51009 
        1.78557         46.1853         8.44114 
        1.79171         45.8965         8.37295 
        1.79785          45.719          8.3055 
        1.80399          45.519         8.23882 
        1.81012          45.356         8.17296 
        1.81625         45.0616         8.10785 
        1.82239         44.9256         8.04336 
        1.82853         44.5677          7.9796 
        1.83466         44.4279          7.9166 
        1.84078         44.1301         7.85435 
        1.84692         44.0627         7.79268 
        1.85306          43.792         7.73159 
         1.8592         43.6484         7.67126 
        1.86533         43.3459         7.61161 
        1.87147         43.2424         7.55253 
        1.87761          43.162         7.49405 
        1.88375         42.8682         7.43626 
        1.88988         42.8028         7.37915 
        1.89601         42.4994         7.32261 
        1.90215         42.3736         7.26661 
        1.90829         42.2097         7.21124 
        1.91442         41.9247         7.15644 
        1.92056         41.8197         7.10226 
         1.9267         41.5273         7.04858 
        1.93284         41.3093         6.99544 
        1.93897         41.2164         6.94294 
        1.94509         41.0242          6.8911 
        1.95123         40.8235         6.83966 
        1.95737         40.6334         6.78871 
        1.96349         40.4376         6.73842 
        1.96964         40.1825         6.68849 
        1.97578         40.1283         6.63905 
        1.98192          39.912         6.59021 
        1.98805         39.7625         6.54185 
        1.99419         39.4919         6.49399 
        2.00033         39.2961         6.44658 
        2.00647         39.1784         6.39966 
         2.0126         38.9918         6.35328 
        2.01874          38.881          6.3073 
        2.02488         38.7797         6.26174 
        2.03101         38.5339         6.21671 
        2.03714         38.2895         6.17217 
        2.04328          38.138         6.12801 
        2.04941         37.9798         6.08433 
        2.05554         37.8269         6.04111 
        2.06167         37.6445         5.99825 
        2.06781         37.4931          5.9558 
        2.07396         37.2701          5.9137 
        2.08009         37.2255         5.87208 
        2.08622         37.0079         5.83092 
        2.09237         36.9051         5.79007 
        2.09851         36.6771         5.74961 
        2.10464         36.5646          5.7096 
        2.11077         36.3069         5.67002 
        2.11691         36.2931         5.63073 
        2.12305         36.0435         5.59182 
        2.12918         35.9674         5.55337 
        2.13531         35.8126         5.51527 
        2.14145         35.6657         5.47745 
         2.1476         35.4153         5.43994 
        2.15372         35.3057         5.40298 
        2.15985         35.1635         5.36632 
        2.16599         35.0512         5.32989 
        2.17213         34.9272         5.29385 
        2.17827         34.6124         5.25815 
         2.1844         34.5336         5.22281 
        2.19054         34.4262         5.18778 
        2.19666         34.2569         5.15313 
         2.2028         34.1524         5.11876 
        2.20893         33.9853         5.08469 
        2.21508         33.8565          5.0509 
        2.22122         33.6446          5.0174 
        2.22736         33.5497         4.98428 
        2.23349         33.4087         4.95146 
        2.23962          33.248         4.91893 
        2.24577         33.0691         4.88666 
         2.2519         32.9339         4.85472 
        2.25802         32.8543         4.82312 
        2.26417         32.6889         4.79172 
        2.27031         32.5801         4.76057 
        2.27644         32.4537         4.72979 
        2.28257         32.3404         4.69928 
        2.28872         32.1102         4.66899 
        2.29486         31.9917         4.63897 
        2.30099         31.9013         4.60928 
        2.30712          31.807         4.57983 
        2.31326           31.67         4.55059 
         2.3194         31.4951         4.52163 
        2.32553         31.3777         4.49297 
        2.33166         31.2084         4.46457 
         2.3378          31.084         4.43638 
        2.34394         30.9595         4.40842 
        2.35007         30.7991         4.38074 
        2.35619         30.6915         4.35334 
        2.36233         30.5743          4.3261 
        2.36848           30.39         4.29905 
        2.37462         30.2995         4.27228 
        2.38075         30.1653         4.24577 
        2.38689         30.0673         4.21946 
        2.39303         29.9043         4.19338 
        2.39916         29.8092         4.16755 
        2.40529          29.648         4.14194 
        2.41143         29.5646         4.11653 
        2.41757         29.4229         4.09132 
         2.4237         29.2937         4.06636 
        2.42983         29.2045         4.04162 
        2.43598         29.0808         4.01702 
        2.44211         28.9333         3.99267 
        2.44823         28.8018         3.96857 
        2.45437         28.6837         3.94461 
        2.46052         28.5601         3.92083 
        2.46665         28.5168         3.89728 
        2.47279         28.3411         3.87394 
        2.47892         28.2114         3.85078 
        2.48507         28.0991         3.82778 
         2.4912          28.012         3.80501 
