# k  (h/Mpc)    P(k)  (Mpc/h)^3    P_linear(k)  (Mpc/h)^3
     0.00783031         5673.82         5722.66 
       0.013688         7075.83         7215.82 
       0.019231         7337.65         7415.25 
      0.0249154         6941.61          6937.1 
      0.0312784         6025.97         6059.36 
      0.0375637         5125.47         5177.02 
      0.0433917         4496.48         4502.49 
      0.0492413         3976.44         4004.44 
      0.0555754            3638         3638.34 
      0.0619321         3311.13         3384.77 
       0.067871          3151.6         3185.46 
      0.0738098         2954.78          2975.7 
      0.0800417         2712.14         2722.57 
      0.0862327          2426.1         2444.54 
      0.0921407         2168.92         2178.38 
      0.0982031          1945.7         1931.67 
       0.104506         1720.28         1723.87 
       0.110769         1577.89         1572.88 
       0.116806         1500.21         1473.08 
       0.122832         1413.66          1403.9 
       0.129052         1357.83         1346.47 
       0.135211         1312.31         1287.64 
       0.141259         1229.23         1218.69 
       0.147318         1136.76         1137.13 
       0.153489         1058.76          1046.6 
       0.159709         989.447          956.77 
       0.165845         895.526         877.965 
       0.171974         859.874         814.099 
       0.178125         816.057         765.875 
       0.184229         763.773         731.167 
        0.19034         747.448         704.775 
       0.196428         724.484         681.452 
       0.202534         681.711         656.583 
       0.208729         666.951         627.315 
       0.214876         638.588         594.155 
       0.220989         593.512         558.954 
       0.227147         574.876         524.056 
        0.23329         548.463         492.406 
       0.239377         532.066         465.775 
       0.245482         504.056         444.175 
       0.251667         483.533         426.778 
       0.257832         478.166         412.405 
       0.263955         453.409         399.366 
       0.270079         438.233         386.128 
        0.27624         420.153         371.766 
       0.282372         408.949         356.356 
        0.28843         404.482         340.508 
       0.294538         383.709         324.717 
       0.300721         368.698         309.749 
        0.30691         361.983         296.369 
       0.313033         345.939         284.912 
       0.319153         339.799         275.048 
       0.325316         330.622         266.302 
        0.33145          322.16         258.242 
       0.337538         311.439         250.411 
       0.343633         301.991         242.446 
       0.349808         293.539         234.151 
       0.355968         286.819         225.765 
       0.362074         279.409         217.554 
       0.368217         274.849         209.661 
       0.374374         268.203         202.301 
       0.380519         257.116         195.605 
       0.386598         252.754         189.596 
       0.392688         246.275         184.071 
        0.39888         240.957         178.814 
       0.405048         236.189         173.771 
       0.411186         233.368         168.827 
       0.417313         228.292         163.926 
       0.423458         222.365         159.036 
       0.429607         217.452         154.232 
       0.435692         213.581          149.64 
       0.441815         208.746         145.233 
       0.447964         202.897         141.062 
       0.454126         199.513         137.153 
       0.460267         197.455         133.488 
       0.466387         193.267          130.02 
        0.47254         191.033         126.675 
       0.478662         184.963         123.446 
       0.484765         182.621          120.29 
       0.490885         179.445         117.188 
       0.497035         177.656         114.145 
       0.503198         174.639         111.184 
       0.509342         170.052         108.335 
       0.515458         168.111         105.615 
       0.521598         164.126         103.011 
       0.527764         162.427         100.513 
       0.533884         161.687         98.1329 
           0.54         157.512         95.8416 
       0.546137         154.015         93.6169 
       0.552299         152.318         91.4472 
       0.558452         149.617         89.3353 
       0.564573         148.925         87.2859 
       0.570708         145.022         85.2884 
       0.576825         143.349         83.3586 
       0.582926         141.824         81.4986 
       0.589034         139.638         79.6995 
       0.595184         138.266         77.9496 
       0.601379         135.105         76.2469 
       0.607522         132.923         74.6146 
       0.613639         131.862         73.0398 
       0.619772         129.975         71.5068 
       0.625918         128.957          70.012 
       0.632068         126.314         68.5545 
       0.638161         124.656         67.1483 
         0.6443         124.046         65.7702 
       0.650464         121.616         64.4265 
       0.656582         121.102         63.1324 
       0.662703         119.627         61.8762 
       0.668861         117.137         60.6491 
       0.675024         117.165         59.4558 
       0.681124         115.237         58.3072 
       0.687237         113.277         57.1869 
       0.693381         112.612         56.0908 
       0.699536         111.218         55.0215 
       0.705665         109.713         53.9848 
       0.711789         108.362         52.9759 
       0.717957          107.11         51.9859 
        0.72409         106.344          51.027 
       0.730186         105.743         50.0983 
       0.736317         103.881         49.1879 
       0.742472         102.639         48.2972 
       0.748622         101.117         47.4299 
        0.75476         100.887         46.5861 
       0.760888         100.201         45.7647 
       0.767043         98.3292         44.9601 
       0.773185         97.2171          44.177 
       0.779291         96.1624         43.4172 
       0.785407         95.1011         42.6744 
       0.791564          94.909         41.9445 
       0.797719          93.692         41.2322 
       0.803834          92.994         40.5412 
       0.809972         92.3329         39.8636 
       0.816124         91.2032         39.2002 
       0.822261         90.0744         38.5539 
       0.828378         89.8806         37.9243 
       0.834502         88.5416         37.3084 
       0.840667         88.0615         36.7024 
       0.846816         87.2512         36.1116 
       0.852925          86.276         35.5378 
       0.859047         85.9829         34.9754 
       0.865192         84.7791         34.4235 
       0.871341         83.8732         33.8832 
       0.877463         83.3532         33.3572 
       0.883569         83.1579         32.8438 
       0.889708         82.3759         32.3386 
       0.895864         81.6604          31.843 
       0.902008         80.8925         31.3588 
       0.908149         79.9442         30.8852 
       0.914301         79.6994         30.4206 
       0.920448         79.3871         29.9662 
       0.926574         77.8346         29.5227 
       0.932687         77.6036         29.0893 
       0.938823         76.9903         28.6631 
       0.944975         76.0964         28.2445 
       0.951105         75.5275         27.8359 
       0.957225          75.391         27.4362 
       0.963368         74.6168          27.043 
       0.969511         74.0109         26.6576 
       0.975621         73.4623         26.2819 
       0.981748         72.7743         25.9125 
       0.987916         72.2644          25.548 
        0.99406         71.9251          25.192 
        1.00019          71.091         24.8435 
        1.00632         70.6361          24.502 
        1.01246         70.1787         24.1665 
        1.01859         69.9004         23.8379 
        1.02471         69.1255         23.5159 
        1.03085         68.6706         23.1988 
        1.03698         68.2703         22.8882 
        1.04314         67.7687         22.5821 
        1.04929          67.256         22.2824 
        1.05541         66.8891         21.9894 
        1.06154         66.5099          21.701 
        1.06769         65.7429         21.4173 
        1.07382         65.3132         21.1397 
        1.07993         65.0821         20.8677 
        1.08607         64.5628         20.5994 
        1.09222         64.3308         20.3356 
        1.09836         63.7484         20.0768 
        1.10449         63.4167         19.8228 
        1.11063         62.8852          19.573 
        1.11677         62.7001         19.3276 
         1.1229         62.0725         19.0869 
        1.12903         61.8937         18.8501 
        1.13518         61.7087         18.6172 
        1.14131         61.0416         18.3884 
        1.14745         60.5682         18.1636 
        1.15359         59.9705         17.9425 
        1.15973         59.9478          17.725 
        1.16584           59.51         17.5122 
        1.17197         58.8813         17.3025 
        1.17811         58.6808         17.0957 
        1.18424         57.9647         16.8929 
        1.19038         57.9114         16.6929 
        1.19652         57.6533         16.4961 
        1.20267         57.2428         16.3026 
        1.20881         56.8639         16.1123 
        1.21495         56.6415         15.9253 
        1.22108         56.4446         15.7414 
         1.2272         55.8895         15.5608 
        1.23334          55.617         15.3826 
        1.23949         55.2884         15.2069 
        1.24562          54.897         15.0344 
        1.25174         54.5686         14.8649 
        1.25789          54.557         14.6975 
        1.26402         54.0836          14.533 
        1.27014         53.8543         14.3714 
        1.27628         53.3209         14.2118 
        1.28244         53.2502         14.0544 
        1.28858         52.8684         13.8996 
        1.29471         52.5786         13.7475 
        1.30084         52.1343         13.5978 
        1.30697         52.1472         13.4502 
        1.31312         51.6522         13.3045 
        1.31925         51.2723         13.1615 
        1.32537         51.0752         13.0207 
        1.33151         50.7724         12.8815 
        1.33765         50.5576         12.7444 
        1.34378         50.3578         12.6096 
        1.34992         49.9926         12.4767 
        1.35606         49.6704         12.3454 
         1.3622         49.4354         12.2163 
        1.36833         49.2021         12.0893 
        1.37445         48.7642         11.9643 
        1.38059         48.7022         11.8406 
        1.38675         48.1925         11.7184 
        1.39288         48.1997         11.5984 
        1.39901         47.8177         11.4801 
        1.40515         47.6289         11.3633 
         1.4113          47.591         11.2481 
        1.41742         47.2393          11.135 
        1.42355         46.8658         11.0232 
         1.4297         46.6623         10.9127 
        1.43585         46.3647         10.8037 
        1.44198         46.0989         10.6966 
        1.44809         45.8538         10.5912 
        1.45423         45.7239         10.4868 
        1.46036         45.5063         10.3841 
        1.46649         45.2979         10.2827 
        1.47263         44.9913         10.1825 
        1.47877         44.8402         10.0838 
        1.48491         44.6572         9.98623 
        1.49104         44.2858         9.89017 
        1.49718         44.1634          9.7953 
        1.50333         44.0059         9.70154 
        1.50947         43.6933         9.60921 
         1.5156         43.5189         9.51822 
        1.52172         43.2013         9.42842 
        1.52787         43.0508         9.33961 
          1.534         42.8182         9.25206 
        1.54013         42.7654         9.16573 
        1.54627         42.3543         9.08035 
        1.55241         42.1667         8.99606 
        1.55855         42.1031         8.91296 
        1.56467         41.8294         8.83114 
         1.5708         41.6938         8.75013 
        1.57695         41.4655         8.67002 
        1.58308         41.1323         8.59111 
        1.58922         40.9818         8.51313 
        1.59535         40.8541         8.43616 
         1.6015         40.7769         8.36003 
        1.60764         40.4977         8.28489 
        1.61376         40.2549         8.21088 
        1.61989         40.0202         8.13773 
        1.62604         39.8684         8.06531 
        1.63218         39.6629         7.99381 
        1.63831          39.568         7.92336 
        1.64444         39.3377         7.85373 
        1.65059         39.1485         7.78478 
        1.65673         38.9515         7.71674 
        1.66285         38.8906          7.6497 
        1.66898         38.5429         7.58344 
        1.67512         38.4894         7.51785 
        1.68127         38.2723         7.45297 
         1.6874         38.0767         7.38901 
        1.69353         38.0049         7.32584 
        1.69967         37.8403         7.26327 
        1.70581         37.5172         7.20146 
        1.71193         37.3587         7.14061 
        1.71806         37.2628         7.08033 
        1.72421          37.101         7.02064 
        1.73035         36.9001         6.96171 
        1.73649          36.651         6.90347 
        1.74262         36.4392         6.84595 
        1.74876         36.4003         6.78905 
        1.75489         36.1908         6.73292 
        1.76101         36.0729         6.67744 
        1.76715         35.9607         6.62252 
        1.77329         35.6575         6.56815 
        1.77943         35.6345         6.51437 
        1.78557         35.4676         6.46127 
        1.79171         35.3255         6.40877 
        1.79785         35.1389         6.35684 
        1.80399         34.9932          6.3055 
        1.81012         34.8864          6.2548 
        1.81625         34.5822         6.20468 
        1.82239         34.4866         6.15504 
        1.82853         34.3576         6.10597 
        1.83466         34.1808         6.05749 
        1.84078         34.0257         6.00959 
        1.84692          33.904         5.96213 
        1.85306         33.6812         5.91513 
         1.8592         33.6453         5.86871 
        1.86533         33.4583         5.82282 
        1.87147         33.3026         5.77738 
        1.87761         33.1183         5.73239 
        1.88375         33.0813         5.68795 
        1.88988         32.8881         5.64402 
        1.89601         32.6825         5.60054 
        1.90215         32.6028         5.55748 
        1.90829         32.4825          5.5149 
        1.91442         32.2803         5.47276 
        1.92056         32.1711          5.4311 
         1.9267          32.091         5.38984 
        1.93284         31.9182         5.34898 
        1.93897         31.8206         5.30863 
        1.94509         31.6604         5.26878 
        1.95123         31.5535         5.22924 
        1.95737         31.3696         5.19008 
        1.96349         31.2758         5.15143 
        1.96964          31.223         5.11306 
        1.97578         30.9393         5.07506 
        1.98192          30.857         5.03754 
        1.98805         30.6582         5.00038 
        1.99419         30.6124         4.96361 
        2.00033         30.4393         4.92719 
        2.00647          30.386         4.89114 
         2.0126          30.194         4.85552 
        2.01874          30.068          4.8202 
        2.02488         29.9313          4.7852 
        2.03101         29.7663         4.75062 
        2.03714         29.7018         4.71641 
        2.04328         29.5839         4.68251 
        2.04941         29.4352         4.64896 
        2.05554         29.3559         4.61577 
        2.06167         29.1846         4.58286 
        2.06781         29.1207         4.55027 
        2.07396         29.0129         4.51795 
        2.08009         28.8474         4.48601 
        2.08622         28.7298         4.45441 
        2.09237         28.6724         4.42305 
        2.09851         28.4532         4.39199 
        2.10464         28.3206         4.36129 
        2.11077           28.32         4.33091 
        2.11691          28.141         4.30076 
        2.12305         28.0309          4.2709 
        2.12918         27.9219         4.24139 
        2.13531         27.8271         4.21216 
        2.14145         27.7023         4.18315 
         2.1476         27.5308         4.15437 
        2.15372         27.4756         4.12601 
        2.15985         27.3509         4.09788 
        2.16599          27.196         4.06994 
        2.17213         27.1517          4.0423 
        2.17827         26.9906         4.01491 
         2.1844         26.9239         3.98781 
        2.19054         26.8495         3.96094 
        2.19666         26.6756         3.93437 
         2.2028         26.6402         3.90801 
        2.20893         26.4824         3.88189 
        2.21508         26.3859         3.85598 
        2.22122         26.2535         3.83029 
        2.22736         26.1894         3.80489 
        2.23349         26.0162         3.77974 
        2.23962         25.9717         3.75479 
        2.24577         25.8456         3.73005 
         2.2519         25.7673         3.70557 
        2.25802         25.6024         3.68135 
        2.26417         25.5053         3.65728 
        2.27031         25.4529         3.63341 
        2.27644         25.3933         3.60981 
        2.28257         25.2583         3.58643 
        2.28872         25.1928         3.56322 
        2.29486          25.053         3.54021 
        2.30099         24.9181         3.51746 
        2.30712         24.8621          3.4949 
        2.31326         24.7218         3.47249 
         2.3194         24.6561          3.4503 
        2.32553         24.5748         3.42834 
        2.33166         24.4375         3.40658 
         2.3378         24.3976         3.38499 
        2.34394         24.2662         3.36357 
        2.35007          24.209         3.34237 
        2.35619         24.1171         3.32138 
        2.36233         23.9571         3.30052 
        2.36848         23.8608         3.27979 
        2.37462         23.8238         3.25929 
        2.38075          23.708         3.23899 
        2.38689         23.5757         3.21884 
        2.39303         23.5519         3.19887 
        2.39916         23.3969         3.17908 
        2.40529         23.3237         3.15947 
        2.41143          23.234         3.14001 
        2.41757         23.0975         3.12071 
         2.4237         23.0437          3.1016 
        2.42983         22.9625         3.08266 
        2.43598         22.8472         3.06383 
        2.44211         22.7958         3.04518 
        2.44823         22.6831         3.02674 
        2.45437         22.6573         3.00839 
        2.46052         22.5102         2.99019 
        2.46665         22.4756         2.97217 
        2.47279         22.3222          2.9543 
        2.47892         22.2561         2.93657 
        2.48507         22.1913         2.91897 
         2.4912         22.1045         2.90154 
