# k  (h/Mpc)    Pcb(k)  (Mpc/h)^3    Pcb_linear(k)  (Mpc/h)^3
     0.00783031         505.759           510.1 
       0.013688         652.861          654.43 
       0.019231         686.115         686.505 
      0.0249154         654.379         657.468 
      0.0312784          589.88         590.517 
      0.0375637         519.132         518.272 
      0.0433917         459.939         460.425 
      0.0492413         416.153         415.718 
      0.0555754         379.718         380.809 
      0.0619321         355.908          354.72 
       0.067871         332.396         333.213 
      0.0738098          309.85          310.81 
      0.0800417         283.342         284.815 
      0.0862327         256.702         257.297 
      0.0921407         231.434         231.571 
      0.0982031         207.537          207.98 
       0.104506         188.794         188.058 
       0.110769         173.857         173.258 
       0.116806         162.752         162.956 
       0.122832         155.482         155.175 
       0.129052         147.799         148.155 
       0.135211         140.439         140.892 
       0.141259         132.833         132.799 
       0.147318         124.257         123.788 
       0.153489         114.464         114.276 
       0.159709         105.521         105.178 
       0.165845         98.4117         97.3704 
       0.171974         91.5105         91.0764 
       0.178125         86.7967         86.2329 
       0.184229         83.2812         82.5485 
        0.19034         79.5926         79.4849 
       0.196428         77.0489         76.5633 
       0.202534         74.3261         73.4084 
       0.208729         70.4719         69.8369 
       0.214876         66.3882         66.0063 
       0.220989         63.1062         62.1422 
       0.227147         58.9523         58.4663 
        0.23329         55.7892         55.2291 
       0.239377         53.2677         52.5428 
       0.245482         50.8049         50.3432 
       0.251667         49.3353         48.4971 
       0.257832         47.5993         46.8695 
       0.263955         46.0463          45.298 
       0.270079         44.4231         43.6589 
        0.27624          42.941         41.9041 
       0.282372         41.1044         40.0803 
        0.28843          39.154         38.2799 
       0.294538         37.4606         36.5511 
       0.300721         36.1077         34.9621 
        0.30691         34.4959         33.5654 
       0.313033         33.3417         32.3678 
       0.319153         31.9641         31.3134 
       0.325316         31.4003         30.3395 
        0.33145         30.3698          29.402 
       0.337538         29.4489         28.4664 
       0.343633         28.4118         27.5081 
       0.349808         27.5202         26.5255 
       0.355968         26.5663         25.5542 
       0.362074         25.6211         24.6312 
       0.368217         24.7939          23.764 
       0.374374         23.9037         22.9692 
       0.380519         23.2785         22.2495 
       0.386598         22.6578          21.596 
       0.392688         22.1049         20.9837 
        0.39888         21.4562         20.3845 
       0.405048         20.9069         19.7968 
       0.411186         20.3571         19.2161 
       0.417313         19.6742         18.6395 
       0.423458         19.1573         18.0718 
       0.429607         18.5623         17.5236 
       0.435692         18.0237         17.0071 
       0.441815         17.5799          16.518 
       0.447964         17.2247          16.059 
       0.454126         16.6485         15.6266 
       0.460267         16.2669         15.2172 
       0.466387         15.7987         14.8254 
        0.47254         15.4903          14.442 
       0.478662         15.1542         14.0675 
       0.484765         14.7241         13.7013 
       0.490885         14.3576         13.3429 
       0.497035         14.1325         12.9934 
       0.503198          13.742         12.6561 
       0.509342         13.4151         12.3346 
       0.515458         13.0837           12.03 
       0.521598          12.815         11.7379 
       0.527764         12.4971         11.4563 
       0.533884         12.2775         11.1868 
           0.54         11.9984         10.9259 
       0.546137         11.7623         10.6711 
       0.552299         11.5211         10.4212 
       0.558452         11.1892         10.1778 
       0.564573         11.0155         9.94257 
       0.570708         10.7878         9.71451 
       0.576825         10.5144         9.49513 
       0.582926          10.336         9.28407 
       0.589034         10.0443         9.08004 
       0.595184          9.8799         8.88164 
       0.601379         9.67054         8.68841 
       0.607522         9.52618          8.5027 
       0.613639         9.38945         8.32296 
       0.619772         9.13791         8.14737 
       0.625918         9.01987         7.97585 
       0.632068         8.87175         7.80876 
       0.638161         8.66178         7.64786 
         0.6443          8.4848         7.49058 
       0.650464         8.30691         7.33757 
       0.656582         8.21363         7.19034 
       0.662703         8.06219         7.04736 
       0.668861         7.92831         6.90757 
       0.675024         7.76099         6.77146 
       0.681124         7.61589         6.64031 
       0.687237         7.50819          6.5123 
       0.693381         7.38866         6.38704 
       0.699536         7.19161         6.26483 
       0.705665         7.09608         6.14637 
       0.711789         6.98576         6.03111 
       0.717957         6.85995         5.91805 
        0.72409         6.74575         5.80856 
       0.730186         6.64114         5.70254 
       0.736317         6.57296         5.59862 
       0.742472         6.46301         5.49694 
       0.748622         6.34285         5.39791 
        0.75476         6.20998         5.30155 
       0.760888         6.12994         5.20772 
       0.767043         6.05864         5.11581 
       0.773185         5.93302         5.02633 
       0.779291         5.86736         4.93952 
       0.785407         5.77099         4.85464 
       0.791564         5.68288         4.77125 
       0.797719         5.60076         4.68986 
       0.803834         5.53366         4.61091 
       0.809972         5.46007          4.5335 
       0.816124         5.35466         4.45772 
       0.822261         5.26539         4.38388 
       0.828378         5.20284         4.31195 
       0.834502         5.15009         4.24158 
       0.840667         5.04435         4.17234 
       0.846816         4.96874         4.10485 
       0.852925         4.92452         4.03929 
       0.859047         4.85505         3.97503 
       0.865192         4.79549         3.91198 
       0.871341         4.73395         3.85026 
       0.877463         4.67302         3.79016 
       0.883569         4.58961         3.73151 
       0.889708         4.51927         3.67382 
       0.895864         4.47286          3.6172 
       0.902008         4.40396         3.56191 
       0.908149         4.35539         3.50781 
       0.914301         4.27665         3.45476 
       0.920448         4.22554         3.40286 
       0.926574         4.16666         3.35222 
       0.932687         4.12448         3.30272 
       0.938823          4.0793         3.25405 
       0.944975         4.02239         3.20626 
       0.951105         3.97894          3.1596 
       0.957225         3.95012         3.11396 
       0.963368         3.89154         3.06907 
       0.969511         3.83689         3.02507 
       0.975621         3.77894         2.98217 
       0.981748         3.74582            2.94 
       0.987916         3.69964         2.89838 
        0.99406         3.63981         2.85773 
        1.00019         3.60451         2.81795 
        1.00632          3.5637         2.77896 
        1.01246         3.52386         2.74065 
        1.01859         3.48402         2.70314 
        1.02471         3.43871         2.66637 
        1.03085         3.40428         2.63017 
        1.03698          3.3573         2.59472 
        1.04314          3.3269         2.55978 
        1.04929         3.28214         2.52556 
        1.05541         3.24806         2.49211 
        1.06154          3.2128         2.45919 
        1.06769         3.18275         2.42681 
        1.07382         3.14193         2.39513 
        1.07993         3.09712         2.36409 
        1.08607         3.08132         2.33347 
        1.09222         3.04119         2.30337 
        1.09836          3.0191         2.27384 
        1.10449         2.98273         2.24486 
        1.11063         2.94486         2.21636 
        1.11677         2.91343         2.18837 
         1.1229         2.88268         2.16091 
        1.12903         2.84907          2.1339 
        1.13518         2.82768         2.10733 
        1.14131         2.78719         2.08123 
        1.14745         2.74491         2.05559 
        1.15359         2.73362         2.03038 
        1.15973         2.69328         2.00559 
        1.16584         2.68229         1.98132 
        1.17197         2.65037         1.95742 
        1.17811         2.62429         1.93384 
        1.18424         2.60735         1.91072 
        1.19038         2.57472         1.88792 
        1.19652         2.54776          1.8655 
        1.20267         2.52762         1.84344 
        1.20881         2.49453         1.82174 
        1.21495         2.47758         1.80043 
        1.22108         2.45381         1.77947 
         1.2272         2.43777         1.75889 
        1.23334         2.40572         1.73859 
        1.23949         2.37981         1.71856 
        1.24562         2.36544         1.69891 
        1.25174         2.33733         1.67959 
        1.25789         2.31848         1.66051 
        1.26402         2.28902         1.64177 
        1.27014         2.26835         1.62336 
        1.27628         2.25963         1.60518 
        1.28244          2.2273         1.58725 
        1.28858         2.21169         1.56961 
        1.29471         2.19065         1.55228 
        1.30084         2.16845         1.53524 
        1.30697          2.1546         1.51842 
        1.31312         2.12135         1.50183 
        1.31925         2.11295         1.48554 
        1.32537         2.09477         1.46951 
        1.33151         2.07814         1.45366 
        1.33765         2.05425         1.43806 
        1.34378         2.03299         1.42271 
        1.34992          2.0266         1.40758 
        1.35606         1.99892         1.39264 
         1.3622         1.98809         1.37794 
        1.36833         1.96946         1.36349 
        1.37445          1.9489         1.34926 
        1.38059         1.93422         1.33518 
        1.38675         1.92863         1.32128 
        1.39288          1.9021         1.30762 
        1.39901         1.88617         1.29417 
        1.40515         1.87255         1.28088 
         1.4113         1.85614         1.26778 
        1.41742         1.84127         1.25491 
        1.42355         1.83469          1.2422 
         1.4297         1.80936         1.22962 
        1.43585         1.79888         1.21723 
        1.44198         1.78981         1.20505 
        1.44809         1.76499         1.19307 
        1.45423         1.75322          1.1812 
        1.46036         1.74029         1.16952 
        1.46649         1.72487         1.15799 
        1.47263         1.71019         1.14661 
        1.47877         1.69451         1.13538 
        1.48491         1.68188         1.12429 
        1.49104         1.67088         1.11337 
        1.49718         1.66109         1.10259 
        1.50333         1.64493         1.09194 
        1.50947         1.63547         1.08144 
         1.5156         1.62116          1.0711 
        1.52172         1.60816          1.0609 
        1.52787         1.59425         1.05081 
          1.534         1.58693         1.04086 
        1.54013         1.56887         1.03105 
        1.54627         1.55641         1.02136 
        1.55241         1.54485         1.01178 
        1.55855         1.53478         1.00234 
        1.56467         1.52562        0.993048 
         1.5708         1.50806        0.983847 
        1.57695         1.50323         0.97475 
        1.58308         1.49158        0.965788 
        1.58922         1.48033        0.956934 
        1.59535         1.46972        0.948194 
         1.6015         1.45912        0.939551 
        1.60764         1.45022         0.93102 
        1.61376         1.43733        0.922619 
        1.61989         1.42801        0.914315 
        1.62604          1.4164        0.906095 
        1.63218         1.41116        0.897982 
        1.63831         1.39524        0.889986 
        1.64444         1.38578        0.882085 
        1.65059         1.37885        0.874262 
        1.65673         1.36741        0.866542 
        1.66285         1.35678        0.858937 
        1.66898         1.35149        0.851421 
        1.67512         1.33767         0.84398 
        1.68127         1.32927        0.836622 
         1.6874         1.32311        0.829368 
        1.69353         1.30994        0.822205 
        1.69967         1.30121         0.81511 
        1.70581         1.29625        0.808101 
        1.71193         1.28525        0.801202 
        1.71806         1.27892        0.794368 
        1.72421         1.26875        0.787601 
        1.73035         1.25897         0.78092 
        1.73649         1.25271        0.774319 
        1.74262         1.24425        0.767799 
        1.74876          1.2354         0.76135 
        1.75489         1.22517        0.754989 
        1.76101         1.21744        0.748702 
        1.76715         1.21057        0.742478 
        1.77329         1.20298        0.736317 
        1.77943         1.19376        0.730223 
        1.78557         1.18555        0.724208 
        1.79171         1.18075        0.718259 
        1.79785         1.17189        0.712377 
        1.80399          1.1647        0.706561 
        1.81012         1.15912        0.700818 
        1.81625         1.14882        0.695142 
        1.82239         1.14309         0.68952 
        1.82853         1.13096        0.683963 
        1.83466         1.12713        0.678473 
        1.84078         1.11911        0.673049 
        1.84692         1.11478        0.667676 
        1.85306         1.10631        0.662354 
         1.8592         1.10117        0.657099 
        1.86533         1.09296        0.651905 
        1.87147         1.08682         0.64676 
        1.87761         1.08026        0.641669 
        1.88375         1.06988        0.636638 
        1.88988         1.06747        0.631667 
        1.89601         1.05879        0.626747 
        1.90215         1.05304        0.621875 
        1.90829         1.04578        0.617057 
        1.91442         1.03888        0.612289 
        1.92056         1.03403        0.607577 
         1.9267         1.02739        0.602909 
        1.93284         1.02306        0.598288 
        1.93897         1.01646        0.593724 
        1.94509          1.0095        0.589217 
        1.95123         1.00262        0.584746 
        1.95737        0.997715        0.580318 
        1.96349        0.990601        0.575948 
        1.96964        0.985702        0.571609 
        1.97578        0.979626        0.567314 
        1.98192        0.976716        0.563072 
        1.98805        0.967968        0.558872 
        1.99419        0.963886        0.554715 
        2.00033         0.96012        0.550599 
        2.00647        0.952028        0.546525 
         2.0126         0.94789          0.5425 
        2.01874        0.942323        0.538508 
        2.02488        0.937508        0.534554 
        2.03101        0.929965        0.530647 
        2.03714        0.923653        0.526782 
        2.04328        0.921529        0.522951 
        2.04941          0.9151        0.519162 
        2.05554        0.910226        0.515413 
        2.06167         0.90465        0.511696 
        2.06781        0.898852        0.508015 
        2.07396        0.893068        0.504365 
        2.08009        0.889481        0.500758 
        2.08622        0.883608        0.497189 
        2.09237        0.882367        0.493649 
        2.09851        0.877023        0.490142 
        2.10464        0.872414        0.486676 
        2.11077        0.865994        0.483247 
        2.11691        0.860705        0.479843 
        2.12305        0.856999        0.476473 
        2.12918        0.851932        0.473142 
        2.13531        0.847769        0.469844 
        2.14145        0.842753        0.466569 
         2.1476        0.837982        0.463321 
        2.15372        0.835277        0.460121 
        2.15985        0.829001        0.456948 
        2.16599        0.823987        0.453796 
        2.17213        0.820479        0.450677 
        2.17827        0.818334        0.447587 
         2.1844        0.813589         0.44453 
        2.19054        0.809964          0.4415 
        2.19666        0.803956        0.438503 
         2.2028        0.800376         0.43553 
        2.20893        0.795355        0.432584 
        2.21508         0.79278        0.429662 
        2.22122        0.786474        0.426766 
        2.22736        0.782505        0.423903 
        2.23349        0.781771        0.421066 
        2.23962        0.775989        0.418254 
        2.24577        0.770748        0.415465 
         2.2519        0.767713        0.412706 
        2.25802        0.764042        0.409976 
        2.26417        0.758454        0.407263 
        2.27031        0.755711        0.404573 
        2.27644        0.752488        0.401914 
        2.28257        0.748869        0.399279 
        2.28872        0.744514        0.396664 
        2.29486        0.741045        0.394072 
        2.30099         0.73702        0.391508 
        2.30712        0.734309        0.388966 
        2.31326         0.73045        0.386443 
         2.3194        0.728566        0.383943 
        2.32553        0.724416         0.38147 
        2.33166         0.72033        0.379019 
         2.3378        0.716543        0.376587 
        2.34394        0.711228        0.374175 
        2.35007        0.709058        0.371788 
        2.35619        0.706095        0.369425 
        2.36233         0.70107        0.367076 
        2.36848        0.699214        0.364743 
        2.37462        0.695263        0.362435 
        2.38075         0.69379         0.36015 
        2.38689        0.689225        0.357882 
        2.39303        0.687111        0.355634 
        2.39916        0.681672        0.353408 
        2.40529        0.680133        0.351201 
        2.41143        0.677222        0.349011 
        2.41757         0.67318        0.346839 
         2.4237        0.670184         0.34469 
        2.42983        0.667643        0.342559 
        2.43598        0.664329         0.34044 
        2.44211        0.661728        0.338343 
        2.44823        0.658655        0.336268 
        2.45437        0.655339        0.334205 
        2.46052        0.654121        0.332157 
        2.46665        0.649704         0.33013 
        2.47279        0.646266        0.328121 
        2.47892        0.642834        0.326127 
        2.48507        0.640756        0.324148 
         2.4912        0.637641        0.322189 
