# k  (h/Mpc)    Pcb(k)  (Mpc/h)^3    Pcb_linear(k)  (Mpc/h)^3
     0.00783031         11946.3         12107.1 
       0.013688         15639.1         15521.3 
       0.019231         16281.8           16277 
      0.0249154         15260.7         15585.8 
      0.0312784         13815.1         13997.1 
      0.0375637         12229.7         12283.8 
      0.0433917         10671.3         10912.3 
      0.0492413         9729.86         9852.37 
      0.0555754         8705.53          9024.8 
      0.0619321         8354.81         8406.36 
       0.067871         7623.87         7896.57 
      0.0738098         7103.11         7365.58 
      0.0800417         6425.47         6749.48 
      0.0862327         5878.46         6097.31 
      0.0921407         5379.74         5487.64 
      0.0982031         4816.35         4928.57 
       0.104506         4495.91         4456.44 
       0.110769         4145.21         4105.72 
       0.116806         3883.28         3861.58 
       0.122832         3707.16         3677.18 
       0.129052         3461.35         3510.83 
       0.135211         3300.86          3338.7 
       0.141259         3167.06         3146.91 
       0.147318         2990.62         2933.39 
       0.153489         2746.13         2707.98 
       0.159709         2592.85         2492.38 
       0.165845          2486.5         2307.36 
       0.171974         2337.25         2158.21 
       0.178125         2222.33         2043.43 
       0.184229         2132.86         1956.12 
        0.19034         2015.85         1883.52 
       0.196428         1984.11         1814.29 
       0.202534         1915.94         1739.53 
       0.208729         1832.15          1654.9 
       0.214876         1752.35         1564.12 
       0.220989         1695.77         1472.56 
       0.227147         1616.69         1385.45 
        0.23329         1552.69         1308.74 
       0.239377         1527.85         1245.08 
       0.245482         1432.77         1192.96 
       0.251667          1425.7         1149.21 
       0.257832         1372.65         1110.64 
       0.263955         1329.77          1073.4 
       0.270079         1286.48         1034.56 
        0.27624         1273.95         992.978 
       0.282372         1219.69          949.76 
        0.28843         1209.58         907.097 
       0.294538         1150.44          866.13 
       0.300721         1145.61         828.476 
        0.30691         1098.62          795.38 
       0.313033         1078.33         767.001 
       0.319153         1058.56         742.016 
       0.325316         1024.43         718.937 
        0.33145         1001.38         696.723 
       0.337538         987.305         674.551 
       0.343633         962.717         651.843 
       0.349808         931.598         628.559 
       0.355968         926.176         605.543 
       0.362074         915.179          583.67 
       0.368217         888.365         563.121 
       0.374374         854.262         544.287 
       0.380519         854.026         527.232 
       0.386598         832.826         511.747 
       0.392688         830.307         497.237 
        0.39888         806.121         483.038 
       0.405048         795.056         469.112 
       0.411186         783.527         455.352 
       0.417313         767.742         441.689 
       0.423458         755.905         428.237 
       0.429607         744.167         415.246 
       0.435692         728.765         403.005 
       0.441815         724.284         391.417 
       0.447964         708.854          380.54 
       0.454126         698.863         370.292 
       0.460267         684.985         360.593 
       0.466387         677.453         351.308 
        0.47254         668.708         342.224 
       0.478662         665.278         333.349 
       0.484765         646.444         324.671 
       0.490885         641.909         316.179 
       0.497035          629.16         307.897 
       0.503198          623.89         299.903 
       0.509342         617.835         292.284 
       0.515458         613.847         285.066 
       0.521598         599.982         278.144 
       0.527764         587.905         271.473 
       0.533884         587.301         265.087 
           0.54         579.911         258.905 
       0.546137         577.151         252.866 
       0.552299         567.517         246.944 
       0.558452         564.597         241.177 
       0.564573          556.18         235.602 
       0.570708         549.823         230.198 
       0.576825         535.698             225 
       0.582926         536.993         219.998 
       0.589034         532.314         215.164 
       0.595184         527.205         210.462 
       0.601379         520.611         205.884 
       0.607522         513.291         201.483 
       0.613639         513.195         197.224 
       0.619772         500.253         193.063 
       0.625918         498.988         188.998 
       0.632068         492.195         185.039 
       0.638161         490.501         181.226 
         0.6443         481.289         177.499 
       0.650464           479.1         173.874 
       0.656582         477.178         170.385 
       0.662703         474.198         166.996 
       0.668861         465.796         163.684 
       0.675024         462.363         160.459 
       0.681124         459.502         157.351 
       0.687237         455.324         154.318 
       0.693381         449.649         151.349 
       0.699536         443.759         148.453 
       0.705665         442.302         145.646 
       0.711789         439.086         142.915 
       0.717957         435.326         140.236 
        0.72409         432.191         137.642 
       0.730186         427.218         135.129 
       0.736317         423.775         132.667 
       0.742472         422.288         130.257 
       0.748622         417.342         127.911 
        0.75476          412.62         125.627 
       0.760888         408.268         123.404 
       0.767043         409.059         121.226 
       0.773185         403.659         119.106 
       0.779291         398.853         117.048 
       0.785407         396.968         115.037 
       0.791564         392.386         113.061 
       0.797719         390.073         111.132 
       0.803834         387.012         109.261 
       0.809972         385.265         107.427 
       0.816124         384.999         105.631 
       0.822261         378.898         103.882 
       0.828378         376.975         102.177 
       0.834502         374.037          100.51 
       0.840667         370.048          98.869 
       0.846816          368.62         97.2697 
       0.852925         365.529         95.7162 
       0.859047          364.31         94.1936 
       0.865192         360.349         92.6994 
       0.871341         357.568         91.2369 
       0.877463         355.811         89.8129 
       0.883569         353.559         88.4231 
       0.889708         350.662         87.0559 
       0.895864          347.27         85.7143 
       0.902008           345.7          84.404 
       0.908149          343.43         83.1221 
       0.914301         339.717          81.865 
       0.920448         337.533         80.6352 
       0.926574         333.897         79.4352 
       0.932687         334.473         78.2623 
       0.938823          330.38          77.109 
       0.944975         329.877         75.9765 
       0.951105         326.623         74.8709 
       0.957225         324.349         73.7893 
       0.963368         320.717         72.7256 
       0.969511         319.277         71.6829 
       0.975621         316.739         70.6664 
       0.981748         316.693         69.6671 
       0.987916         313.922          68.681 
        0.99406         309.145         67.7177 
        1.00019         309.246         66.7749 
        1.00632         307.242          65.851 
        1.01246         304.627         64.9434 
        1.01859         305.079         64.0543 
        1.02471         300.588         63.1832 
        1.03085         298.374         62.3253 
        1.03698         297.625         61.4852 
        1.04314         294.666         60.6572 
        1.04929         292.492         59.8464 
        1.05541         292.661         59.0538 
        1.06154         288.346         58.2737 
        1.06769         287.631         57.5065 
        1.07382         285.951         56.7558 
        1.07993         283.783         56.0202 
        1.08607         282.938         55.2947 
        1.09222         280.726         54.5814 
        1.09836         278.568         53.8816 
        1.10449         275.808         53.1949 
        1.11063         273.573         52.5195 
        1.11677         273.375         51.8561 
         1.1229         271.523         51.2055 
        1.12903         269.505         50.5654 
        1.13518         267.679         49.9359 
        1.14131         265.898         49.3174 
        1.14745         265.303         48.7099 
        1.15359         262.889         48.1125 
        1.15973         261.669         47.5249 
        1.16584          259.33         46.9498 
        1.17197          259.12         46.3835 
        1.17811         256.458         45.8248 
        1.18424         254.857          45.277 
        1.19038         253.901         44.7366 
        1.19652         251.995         44.2053 
        1.20267          251.36         43.6826 
        1.20881         249.182         43.1686 
        1.21495         247.479         42.6636 
        1.22108         246.306         42.1668 
         1.2272         244.488         41.6791 
        1.23334         243.126         41.1981 
        1.23949         241.915         40.7235 
        1.24562         240.651         40.2577 
        1.25174          238.23            39.8 
        1.25789         236.729          39.348 
        1.26402         235.563         38.9038 
        1.27014         234.038         38.4676 
        1.27628         232.845         38.0368 
        1.28244         232.471         37.6118 
        1.28858         229.937          37.194 
        1.29471         228.038         36.7834 
        1.30084           227.3         36.3794 
        1.30697         225.715         35.9809 
        1.31312         223.905         35.5878 
        1.31925         223.757         35.2018 
        1.32537          222.34          34.822 
        1.33151         220.196         34.4464 
        1.33765         218.896         34.0766 
        1.34378         218.078          33.713 
        1.34992          216.92         33.3544 
        1.35606         216.653         33.0004 
         1.3622         214.716         32.6521 
        1.36833         212.557         32.3097 
        1.37445         211.605         31.9724 
        1.38059         210.035         31.6388 
        1.38675         209.262         31.3093 
        1.39288         207.762         30.9858 
        1.39901         207.599          30.667 
        1.40515         205.574          30.352 
         1.4113         204.241         30.0416 
        1.41742          203.18         29.7367 
        1.42355         201.622         29.4355 
         1.4297          200.52         29.1375 
        1.43585         199.333         28.8438 
        1.44198         198.257         28.5553 
        1.44809           197.5         28.2713 
        1.45423         195.953         27.9901 
        1.46036         195.169         27.7132 
        1.46649         193.639           27.44 
        1.47263         192.294         27.1703 
        1.47877         191.525         26.9044 
        1.48491         189.952         26.6415 
        1.49104         189.467         26.3828 
        1.49718         187.441         26.1273 
        1.50333         186.885         25.8748 
        1.50947         186.081         25.6262 
         1.5156         184.412         25.3812 
        1.52172         183.565         25.1394 
        1.52787         182.165         24.9003 
          1.534         181.772         24.6645 
        1.54013         180.197         24.4321 
        1.54627         179.497         24.2023 
        1.55241         178.125         23.9754 
        1.55855         177.114         23.7517 
        1.56467         176.036         23.5315 
         1.5708         175.459         23.3135 
        1.57695         173.981         23.0979 
        1.58308         173.451         22.8856 
        1.58922         172.105         22.6757 
        1.59535         170.876         22.4686 
         1.6015         170.552         22.2638 
        1.60764         169.197         22.0617 
        1.61376         168.011         21.8626 
        1.61989         167.182         21.6659 
        1.62604         166.344         21.4711 
        1.63218         165.445         21.2788 
        1.63831          164.35         21.0893 
        1.64444         163.706         20.9021 
        1.65059         162.468         20.7167 
        1.65673          161.36         20.5338 
        1.66285         160.937         20.3536 
        1.66898         159.759         20.1755 
        1.67512         159.381         19.9992 
        1.68127          157.68         19.8248 
         1.6874         156.614         19.6529 
        1.69353         156.359         19.4832 
        1.69967         155.152          19.315 
        1.70581         154.341          19.149 
        1.71193          153.28         18.9855 
        1.71806         152.825         18.8235 
        1.72421         151.701         18.6632 
        1.73035         151.291         18.5049 
        1.73649         150.374         18.3485 
        1.74262         149.166          18.194 
        1.74876          148.65         18.0411 
        1.75489          147.34         17.8904 
        1.76101         146.669         17.7414 
        1.76715         146.031         17.5939 
        1.77329         145.562         17.4479 
        1.77943         144.237         17.3036 
        1.78557         143.536          17.161 
        1.79171         142.783           17.02 
        1.79785         141.805         16.8806 
        1.80399         141.112         16.7428 
        1.81012         140.286         16.6068 
        1.81625         139.587         16.4722 
        1.82239         138.981          16.339 
        1.82853         138.273         16.2074 
        1.83466         137.325         16.0773 
        1.84078         136.761         15.9487 
        1.84692         135.518         15.8214 
        1.85306         135.281         15.6953 
         1.8592         134.174         15.5708 
        1.86533         133.226         15.4477 
        1.87147         132.567         15.3258 
        1.87761         132.177         15.2051 
        1.88375         130.835         15.0859 
        1.88988         130.372         14.9681 
        1.89601         129.489         14.8515 
        1.90215         128.943         14.7361 
        1.90829         128.333         14.6219 
        1.91442          127.65          14.509 
        1.92056         126.875         14.3973 
         1.9267         126.331         14.2867 
        1.93284         125.711         14.1772 
        1.93897         124.715          14.069 
        1.94509         124.342         13.9622 
        1.95123         123.588         13.8563 
        1.95737         122.976         13.7514 
        1.96349         122.255         13.6478 
        1.96964          121.26          13.545 
        1.97578         120.623         13.4432 
        1.98192         120.268         13.3427 
        1.98805         119.197         13.2432 
        1.99419         118.846         13.1447 
        2.00033         118.137         13.0471 
        2.00647          117.62         12.9506 
         2.0126         116.712         12.8552 
        2.01874         116.193         12.7606 
        2.02488         115.702         12.6669 
        2.03101         114.773         12.5743 
        2.03714         114.211         12.4827 
        2.04328          113.73          12.392 
        2.04941          112.99         12.3022 
        2.05554         112.226         12.2133 
        2.06167         111.935         12.1253 
        2.06781         111.344          12.038 
        2.07396         110.442         11.9516 
        2.08009         109.951         11.8661 
        2.08622         109.564         11.7815 
        2.09237         108.581         11.6976 
        2.09851         108.244         11.6145 
        2.10464          107.58         11.5324 
        2.11077         107.187         11.4511 
        2.11691         106.624         11.3705 
        2.12305         105.668         11.2906 
        2.12918         105.191         11.2117 
        2.13531         104.759         11.1335 
        2.14145         103.999         11.0559 
         2.1476         103.389          10.979 
        2.15372         103.022         10.9031 
        2.15985         102.591         10.8279 
        2.16599         102.052         10.7532 
        2.17213         101.205         10.6793 
        2.17827         100.992         10.6061 
         2.1844         100.163         10.5337 
        2.19054         99.8478         10.4619 
        2.19666         99.3461         10.3908 
         2.2028         98.7993         10.3204 
        2.20893         98.1438         10.2506 
        2.21508         97.5163         10.1814 
        2.22122         97.0934         10.1127 
        2.22736         96.6616         10.0449 
        2.23349         96.2913         9.97767 
        2.23962         95.5135         9.91103 
        2.24577         95.2072         9.84495 
         2.2519          94.789         9.77956 
        2.25802         93.9136         9.71488 
        2.26417         93.6298         9.65059 
        2.27031         93.1052         9.58683 
        2.27644         92.5852         9.52383 
        2.28257         92.0839          9.4614 
        2.28872         91.5285         9.39942 
        2.29486         91.1278           9.338 
        2.30099         90.6863         9.27726 
        2.30712         90.1517         9.21703 
        2.31326         89.7358         9.15723 
         2.3194         89.1476           9.098 
        2.32553         88.7602         9.03939 
        2.33166         88.2474         8.98132 
         2.3378         87.7779         8.92368 
        2.34394         87.4265         8.86653 
        2.35007         86.8334         8.80996 
        2.35619         86.4045         8.75396 
        2.36233         85.9931         8.69831 
        2.36848          85.432         8.64302 
        2.37462         84.9986         8.58834 
        2.38075         84.7036         8.53418 
        2.38689         84.1173         8.48044 
        2.39303         83.6272         8.42717 
        2.39916         83.2008         8.37442 
        2.40529         82.9834         8.32212 
        2.41143         82.4398         8.27024 
        2.41757         82.0167         8.21877 
         2.4237         81.6737         8.16783 
        2.42983         81.1615         8.11733 
        2.43598         80.7729         8.06713 
        2.44211         80.4278         8.01743 
        2.44823         79.9747         7.96826 
        2.45437         79.4441         7.91937 
        2.46052         78.9841         7.87085 
        2.46665         78.6985         7.82282 
        2.47279         78.2759         7.77521 
        2.47892          77.922         7.72797 
        2.48507         77.4013         7.68107 
         2.4912         77.0969         7.63465 
