# k  (h/Mpc)    Pcb(k)  (Mpc/h)^3    Pcb_linear(k)  (Mpc/h)^3
     0.00783031         14426.4         14629.4 
       0.013688         18167.2         18012.8 
       0.019231         18154.6         18120.8 
      0.0249154         16236.9         16571.1 
      0.0312784         13959.8           14107 
      0.0375637         11791.7         11782.4 
      0.0433917         9932.16           10089 
      0.0492413         8852.06         8894.83 
      0.0555754         7833.16         8058.23 
      0.0619321         7521.06         7497.27 
       0.067871         6863.56         7047.66 
      0.0738098         6379.21         6552.04 
      0.0800417         5721.27         5937.69 
      0.0862327         5148.76         5263.68 
      0.0921407         4629.27         4631.35 
      0.0982031         4058.52         4064.05 
       0.104506         3735.83         3607.23 
       0.110769         3418.71         3293.92 
       0.116806         3207.72         3099.71 
       0.122832         3070.15         2970.04 
       0.129052         2877.33         2856.45 
       0.135211         2748.83         2726.21 
       0.141259         2633.38         2563.05 
       0.147318          2470.7         2367.87 
       0.153489         2248.22         2155.64 
       0.159709          2101.1         1953.18 
       0.165845         1993.65         1784.55 
       0.171974         1869.03         1656.15 
       0.178125         1774.53         1565.75 
       0.184229         1699.92         1504.29 
        0.19034         1609.52         1457.03 
       0.196428         1583.77         1410.56 
       0.202534            1530         1354.93 
       0.208729         1457.48         1285.75 
       0.214876         1389.41          1207.3 
       0.220989         1336.44         1126.48 
       0.227147         1272.06         1050.06 
        0.23329         1216.33         984.694 
       0.239377         1191.38         933.106 
       0.245482         1114.66         893.681 
       0.251667         1108.47         862.911 
       0.257832         1066.27         836.707 
       0.263955         1032.72         810.734 
       0.270079         995.934         781.903 
        0.27624         984.931         749.072 
       0.282372         943.443         713.655 
        0.28843         930.074         678.106 
       0.294538         882.225         644.137 
       0.300721         876.822         613.567 
        0.30691         839.946         587.655 
       0.313033         823.583         566.412 
       0.319153         804.724         548.412 
       0.325316         779.881          532.08 
        0.33145         760.609         516.163 
       0.337538          748.39         499.755 
       0.343633         728.632         482.387 
       0.349808         703.206         464.094 
       0.355968         698.254         445.837 
       0.362074         689.191         428.475 
       0.368217         668.613         412.414 
       0.374374         641.195         397.988 
       0.380519         640.355         385.252 
       0.386598         622.982         373.948 
       0.392688         620.761         363.433 
        0.39888         602.204          353.13 
       0.405048          592.42         342.882 
       0.411186         583.501         332.547 
       0.417313         571.634         322.174 
       0.423458         561.194         311.865 
       0.429607         552.812         301.889 
       0.435692         540.133         292.584 
       0.441815         535.525         283.863 
       0.447964         524.302         275.765 
       0.454126          515.63         268.248 
       0.460267         504.964         261.181 
       0.466387         499.195         254.393 
        0.47254          492.18         247.724 
       0.478662         489.609          241.18 
       0.484765         473.381         234.717 
       0.490885         469.771         228.351 
       0.497035         460.594         222.151 
       0.503198         456.051         216.197 
       0.509342         452.353          210.54 
       0.515458         448.129         205.201 
       0.521598         436.954         200.126 
       0.527764         429.765         195.265 
       0.533884         427.602         190.613 
           0.54          421.94         186.088 
       0.546137         419.979         181.655 
       0.552299         412.159         177.309 
       0.558452         409.897         173.073 
       0.564573         404.127         168.968 
       0.570708         398.016         164.982 
       0.576825         388.937         161.155 
       0.582926         388.067         157.493 
       0.589034         384.673         153.974 
       0.595184         381.371         150.557 
       0.601379         375.646         147.227 
       0.607522         370.335         144.019 
       0.613639         369.238         140.912 
       0.619772         361.106         137.881 
       0.625918          359.87         134.925 
       0.632068         354.193         132.046 
       0.638161         352.862          129.27 
         0.6443         346.982         126.555 
       0.650464         344.179         123.912 
       0.656582         341.683         121.372 
       0.662703         340.638         118.912 
       0.668861         334.698         116.515 
       0.675024         331.488         114.184 
       0.681124          329.14         111.941 
       0.687237         326.055         109.749 
       0.693381         321.322         107.601 
       0.699536         317.855         105.502 
       0.705665         315.832         103.467 
       0.711789         314.025         101.488 
       0.717957         311.714         99.5488 
        0.72409         308.915         97.6743 
       0.730186         305.252         95.8625 
       0.736317         302.292          94.089 
       0.742472          300.68         92.3552 
       0.748622         297.919         90.6672 
        0.75476         294.825         89.0247 
       0.760888         291.569         87.4245 
       0.767043         291.945         85.8564 
       0.773185         288.271         84.3295 
       0.779291         283.868         82.8483 
       0.785407         283.322         81.4005 
       0.791564         279.943         79.9787 
       0.797719         277.397         78.5922 
       0.803834         275.177         77.2482 
       0.809972         274.354         75.9315 
       0.816124         273.781         74.6434 
       0.822261         270.254          73.389 
       0.828378         268.104         72.1677 
       0.834502         266.268         70.9734 
       0.840667         263.644         69.7986 
       0.846816         262.197         68.6537 
       0.852925         260.756         67.5418 
       0.859047          258.68         66.4522 
       0.865192         255.643         65.3831 
       0.871341         253.814         64.3369 
       0.877463         252.618         63.3185 
       0.883569         251.524         62.3248 
       0.889708         248.785         61.3475 
       0.895864         246.537         60.3889 
       0.902008         245.165         59.4529 
       0.908149          243.92         58.5374 
       0.914301         240.983           57.64 
       0.920448         239.689         56.7623 
       0.926574         237.579         55.9062 
       0.932687         237.723         55.0696 
       0.938823         234.863         54.2473 
       0.944975         233.718         53.4401 
       0.951105         232.321         52.6523 
       0.957225         230.641         51.8818 
       0.963368         227.672         51.1243 
       0.969511         226.774         50.3819 
       0.975621         224.737         49.6584 
       0.981748         224.661         48.9474 
       0.987916         222.739         48.2459 
        0.99406         220.119         47.5608 
        1.00019          220.08         46.8906 
        1.00632          218.35         46.2339 
        1.01246         216.639         45.5889 
        1.01859         216.801         44.9573 
        1.02471         213.438         44.3386 
        1.03085         211.967         43.7294 
        1.03698          211.15          43.133 
        1.04314         209.138         42.5453 
        1.04929         207.958           41.97 
        1.05541         208.203         41.4077 
        1.06154          205.36         40.8544 
        1.06769         205.119         40.3104 
        1.07382         203.454         39.7782 
        1.07993         201.954         39.2568 
        1.08607         201.409         38.7427 
        1.09222         200.016         38.2373 
        1.09836         198.479         37.7416 
        1.10449         196.487         37.2552 
        1.11063         194.944          36.777 
        1.11677         194.629         36.3073 
         1.1229         193.138         35.8468 
        1.12903          192.28         35.3938 
        1.13518         191.068         34.9484 
        1.14131         189.368         34.5109 
        1.14745         189.336         34.0811 
        1.15359          187.72         33.6587 
        1.15973         186.457         33.2433 
        1.16584         185.036         32.8368 
        1.17197         184.802         32.4365 
        1.17811         182.987         32.0418 
        1.18424         182.139         31.6547 
        1.19038         181.734          31.273 
        1.19652         180.202         30.8978 
        1.20267         179.565         30.5288 
        1.20881         178.042         30.1659 
        1.21495         177.121         29.8094 
        1.22108         176.055         29.4589 
         1.2272         174.735         29.1148 
        1.23334         174.235         28.7755 
        1.23949         172.875         28.4408 
        1.24562         172.024         28.1123 
        1.25174         170.806         27.7896 
        1.25789         169.719          27.471 
        1.26402         168.438         27.1579 
        1.27014         167.291         26.8506 
        1.27628         166.854          26.547 
        1.28244         166.607         26.2476 
        1.28858         164.882         25.9533 
        1.29471         163.523         25.6641 
        1.30084         163.264         25.3796 
        1.30697         161.809          25.099 
        1.31312         160.904         24.8223 
        1.31925         160.124         24.5506 
        1.32537         159.502         24.2833 
        1.33151         157.952         24.0191 
        1.33765          157.23         23.7589 
        1.34378         156.638         23.5031 
        1.34992         155.934         23.2509 
        1.35606         155.664         23.0019 
         1.3622         153.988          22.757 
        1.36833         152.788         22.5162 
        1.37445         152.257         22.2791 
        1.38059           151.2         22.0447 
        1.38675         150.644         21.8131 
        1.39288           149.9         21.5857 
        1.39901         149.662         21.3617 
        1.40515         147.971         21.1404 
         1.4113         147.279         20.9224 
        1.41742         146.353         20.7082 
        1.42355           145.6         20.4967 
         1.4297         144.807         20.2875 
        1.43585         143.944         20.0813 
        1.44198         143.263         19.8788 
        1.44809         142.658         19.6794 
        1.45423         141.893         19.4821 
        1.46036         140.877         19.2878 
        1.46649         139.991         19.0961 
        1.47263         139.214         18.9069 
        1.47877         138.557         18.7204 
        1.48491         137.245          18.536 
        1.49104         137.214         18.3546 
        1.49718         135.945         18.1755 
        1.50333         135.404         17.9984 
        1.50947         134.837         17.8241 
         1.5156         133.983         17.6524 
        1.52172         133.252         17.4829 
        1.52787         132.306         17.3154 
          1.534         131.836         17.1502 
        1.54013         131.073         16.9874 
        1.54627          130.47         16.8264 
        1.55241         129.473         16.6674 
        1.55855         128.709         16.5108 
        1.56467         128.259         16.3566 
         1.5708         127.304         16.2039 
        1.57695         126.883          16.053 
        1.58308          126.21         15.9043 
        1.58922         125.766         15.7574 
        1.59535         124.822         15.6124 
         1.6015         124.381         15.4691 
        1.60764         123.676         15.3276 
        1.61376          122.97         15.1883 
        1.61989         122.229         15.0506 
        1.62604         121.536         14.9143 
        1.63218         121.226         14.7798 
        1.63831         120.259         14.6473 
        1.64444         119.774         14.5163 
        1.65059         119.202         14.3867 
        1.65673         118.178         14.2587 
        1.66285         117.876         14.1327 
        1.66898         117.259         14.0082 
        1.67512          116.78         13.8849 
        1.68127         115.944          13.763 
         1.6874         115.072         13.6429 
        1.69353          114.81         13.5243 
        1.69967         114.313         13.4068 
        1.70581         113.547         13.2907 
        1.71193         113.059         13.1765 
        1.71806         112.465         13.0633 
        1.72421         111.693         12.9513 
        1.73035         111.542         12.8407 
        1.73649          110.72         12.7315 
        1.74262         109.963         12.6236 
        1.74876         109.681         12.5168 
        1.75489          108.83         12.4116 
        1.76101         108.217         12.3076 
        1.76715          107.65         12.2046 
        1.77329         107.365         12.1027 
        1.77943         106.466         12.0019 
        1.78557         106.151         11.9024 
        1.79171         105.305          11.804 
        1.79785         104.875         11.7067 
        1.80399           104.2         11.6106 
        1.81012          103.81         11.5156 
        1.81625         103.326         11.4218 
        1.82239         102.983         11.3288 
        1.82853         102.276          11.237 
        1.83466         101.582         11.1462 
        1.84078          101.29         11.0566 
        1.84692         100.561         10.9677 
        1.85306         100.175         10.8798 
         1.8592         99.7075          10.793 
        1.86533         98.8944         10.7071 
        1.87147         98.5792         10.6221 
        1.87761         98.0116          10.538 
        1.88375           97.37         10.4549 
        1.88988         97.0503         10.3728 
        1.89601         96.4317         10.2915 
        1.90215         95.9407          10.211 
        1.90829         95.4867         10.1315 
        1.91442         95.0415         10.0527 
        1.92056         94.4178         9.97493 
         1.9267         94.1137         9.89786 
        1.93284         93.6132         9.82156 
        1.93897         93.0728         9.74621 
        1.94509         92.7227         9.67181 
        1.95123         92.1976           9.598 
        1.95737         91.6571         9.52491 
        1.96349         91.1884         9.45277 
        1.96964         90.5545         9.38117 
        1.97578         90.1623         9.31029 
        1.98192          90.011         9.24028 
        1.98805         89.2101         9.17098 
        1.99419         88.9909         9.10239 
        2.00033         88.5188         9.03447 
        2.00647          88.041         8.96727 
         2.0126         87.5689         8.90086 
        2.01874         86.9216         8.83503 
        2.02488         86.6147          8.7698 
        2.03101         86.0543         8.70536 
        2.03714         85.5205         8.64162 
        2.04328         85.2962         8.57846 
        2.04941         84.9061         8.51597 
        2.05554         84.4592         8.45416 
        2.06167         84.0456         8.39287 
        2.06781         83.4667         8.33219 
        2.07396         83.1014         8.27201 
        2.08009         82.8245         8.21254 
        2.08622         82.2847         8.15372 
        2.09237         81.8955         8.09536 
        2.09851         81.5851         8.03757 
        2.10464         81.0407         7.98043 
        2.11077         80.7072         7.92392 
        2.11691         80.4028         7.86783 
        2.12305         79.7686         7.81228 
        2.12918         79.3846          7.7574 
        2.13531         79.1386         7.70305 
        2.14145         78.4928         7.64909 
         2.1476         78.1298         7.59559 
        2.15372         77.8779         7.54287 
        2.15985          77.446         7.49059 
        2.16599         77.0219         7.43867 
        2.17213         76.7008         7.38729 
        2.17827         76.2392         7.33641 
         2.1844         75.8442         7.28606 
        2.19054         75.6821         7.23616 
        2.19666         75.1624          7.1868 
         2.2028         74.9334         7.13786 
        2.20893         74.4142         7.08935 
        2.21508         74.0862         7.04123 
        2.22122         73.6811         6.99355 
        2.22736         73.3647         6.94641 
        2.23349         72.9515         6.89971 
        2.23962           72.59         6.85342 
        2.24577         72.2804         6.80752 
         2.2519         71.9808          6.7621 
        2.25802         71.6176         6.71716 
        2.26417         71.1145         6.67251 
        2.27031         70.8905         6.62823 
        2.27644         70.4546         6.58447 
        2.28257         70.1025         6.54112 
        2.28872         69.7687         6.49807 
        2.29486         69.2435         6.45542 
        2.30099          68.877         6.41324 
        2.30712         68.7626         6.37142 
        2.31326         68.4621          6.3299 
         2.3194         68.0623         6.28878 
        2.32553         67.7119         6.24809 
        2.33166         67.3918         6.20778 
         2.3378         66.9156         6.16777 
        2.34394         66.6731          6.1281 
        2.35007         66.3534         6.08883 
        2.35619         66.0673         6.04996 
        2.36233         65.7252         6.01134 
        2.36848         65.4332         5.97297 
        2.37462         64.9524         5.93502 
        2.38075          64.818         5.89744 
        2.38689         64.4297         5.86015 
        2.39303         64.0678         5.82319 
        2.39916         63.7673         5.78658 
        2.40529         63.5805          5.7503 
        2.41143            63.2          5.7143 
        2.41757         62.8593         5.67859 
         2.4237         62.6854         5.64325 
        2.42983         62.2541         5.60822 
        2.43598         61.8984         5.57339 
        2.44211         61.6532         5.53892 
        2.44823         61.3862         5.50481 
        2.45437         60.9724          5.4709 
        2.46052         60.7729         5.43725 
        2.46665         60.5407         5.40394 
        2.47279         60.0884         5.37092 
        2.47892         59.9148         5.33815 
        2.48507         59.5506         5.30563 
         2.4912           59.27         5.27344 
