# k  (h/Mpc)    P(k)  (Mpc/h)^3    P_linear(k)  (Mpc/h)^3
     0.00783031         8148.28         8270.14 
       0.013688           10367         10325.5 
       0.019231         10515.1         10509.7 
      0.0249154         9563.97          9716.5 
      0.0312784         8309.86         8370.05 
      0.0375637         7081.34         7072.03 
      0.0433917         6048.96         6116.62 
      0.0492413         5420.19         5437.22 
      0.0555754         4854.15         4953.85 
      0.0619321          4636.9         4618.22 
       0.067871         4259.76         4338.22 
      0.0738098         3950.21         4025.83 
      0.0800417         3546.31         3643.08 
      0.0862327          3181.4         3231.36 
      0.0921407         2849.02         2852.64 
      0.0982031         2508.16         2519.06 
       0.104506         2306.03         2254.92 
       0.110769         2121.94         2075.75 
       0.116806          1992.6         1963.59 
       0.122832         1917.18         1884.26 
       0.129052         1804.66         1808.22 
       0.135211          1717.3         1717.91 
       0.141259         1631.99         1607.16 
       0.147318         1521.23         1479.68 
       0.153489         1382.03         1346.47 
       0.159709         1284.41         1224.16 
       0.165845         1213.22          1125.8 
       0.171974         1134.61          1053.1 
       0.178125         1082.25         1002.55 
       0.184229         1043.59         966.986 
        0.19034         984.463         936.747 
       0.196428         968.811         903.987 
       0.202534         937.045          863.88 
       0.208729         886.619         815.436 
       0.214876         835.182         762.985 
       0.220989         801.501         711.519 
       0.227147          755.14         665.089 
        0.23329          721.38         627.043 
       0.239377          703.71         597.958 
       0.245482         658.625         575.819 
       0.251667          653.46         557.725 
       0.257832         631.725         540.847 
       0.263955         611.149         522.734 
       0.270079         588.674         502.123 
        0.27624         579.615         479.078 
       0.282372         554.551         455.145 
        0.28843         537.919         432.218 
       0.294538          511.49         411.276 
       0.300721          506.98         393.194 
        0.30691         483.673         378.232 
       0.313033         473.773          365.95 
       0.319153         458.248         355.121 
       0.325316          445.93         344.658 
        0.33145         432.626         333.851 
       0.337538         426.673         322.442 
       0.343633         412.536         310.402 
       0.349808         398.868         298.066 
       0.355968         393.847         286.179 
       0.362074         385.032         275.291 
       0.368217          374.53         265.539 
       0.374374         360.311         256.925 
       0.380519         356.295         249.313 
       0.386598         347.464         242.376 
       0.392688         344.299         235.666 
        0.39888         334.832         228.849 
       0.405048         327.463         221.902 
       0.411186         320.784         214.898 
       0.417313         314.756         207.957 
       0.423458         308.633         201.215 
       0.429607         302.046         194.862 
       0.435692         294.012         189.067 
       0.441815         291.817         183.696 
       0.447964         286.148         178.716 
       0.454126          275.87         174.027 
       0.460267         272.475         169.518 
       0.466387         269.255         165.087 
        0.47254         263.457         160.671 
       0.478662         262.213         156.314 
       0.484765          254.11         152.033 
       0.490885         250.848         147.869 
       0.497035         247.058         143.878 
       0.503198         241.455         140.098 
       0.509342         239.007         136.534 
       0.515458         235.861         133.176 
       0.521598         231.771         129.965 
       0.527764         228.218         126.857 
       0.533884         225.377         123.844 
           0.54         222.039         120.883 
       0.546137         220.791          117.97 
       0.552299         216.435         115.119 
       0.558452         213.816         112.356 
       0.564573         210.368         109.699 
       0.570708         206.581         107.137 
       0.576825         203.982         104.688 
       0.582926         201.149         102.352 
       0.589034         198.771         100.102 
       0.595184         196.647         97.9089 
       0.601379         194.574         95.7575 
       0.607522         190.626         93.6719 
       0.613639         189.772         91.6454 
       0.619772         185.603         89.6675 
       0.625918         184.069         87.7426 
       0.632068          181.82          85.876 
       0.638161          180.65         84.0839 
         0.6443         177.933          82.334 
       0.650464         176.131         80.6317 
       0.656582         174.356          78.994 
       0.662703         172.331         77.4049 
       0.668861         169.676         75.8526 
       0.675024         167.766          74.342 
       0.681124         166.934         72.8866 
       0.687237         164.134         71.4645 
       0.693381         161.881         70.0706 
       0.699536         160.765         68.7095 
       0.705665         160.551         67.3896 
       0.711789         157.198         66.1059 
       0.717957         156.707         64.8484 
        0.72409         154.576         63.6331 
       0.730186         152.267         62.4584 
       0.736317         151.324         61.3086 
       0.742472         150.395         60.1845 
       0.748622         149.052           59.09 
        0.75476         147.756          58.025 
       0.760888         145.673         56.9871 
       0.767043         144.982         55.9698 
       0.773185         143.438         54.9789 
       0.779291         141.321         54.0173 
       0.785407         140.667         53.0773 
       0.791564         139.387         52.1538 
       0.797719         137.364          51.253 
       0.803834         136.761         50.3797 
       0.809972         135.195          49.524 
       0.816124         134.945         48.6868 
       0.822261         133.359         47.8715 
       0.828378         132.144         47.0777 
       0.834502         131.736         46.3014 
       0.840667          129.84         45.5379 
       0.846816         128.649         44.7938 
       0.852925         127.844         44.0711 
       0.859047         126.337          43.363 
       0.865192         125.675         42.6682 
       0.871341         124.485         41.9882 
       0.877463          123.38         41.3262 
       0.883569         122.577         40.6803 
       0.889708          121.69          40.045 
       0.895864         120.533         39.4217 
       0.902008           119.7         38.8131 
       0.908149         119.102         38.2178 
       0.914301         117.842         37.6341 
       0.920448         117.041         37.0632 
       0.926574         116.305         36.5062 
       0.932687         115.919          35.962 
       0.938823         114.205         35.4269 
       0.944975         113.232         34.9016 
       0.951105         112.693         34.3889 
       0.957225         111.392         33.8874 
       0.963368         110.704         33.3943 
       0.969511         110.394          32.911 
       0.975621         109.882           32.44 
       0.981748         108.999          31.977 
       0.987916         107.871         31.5202 
        0.99406         107.242         31.0741 
        1.00019         106.556         30.6375 
        1.00632         105.826         30.2098 
        1.01246         105.063         29.7897 
        1.01859          103.83         29.3783 
        1.02471         103.812         28.9752 
        1.03085         102.765         28.5783 
        1.03698         102.175         28.1897 
        1.04314         101.242         27.8067 
        1.04929         100.663         27.4318 
        1.05541         99.9402         27.0654 
        1.06154         99.4779         26.7048 
        1.06769         99.1126         26.3502 
        1.07382         98.5625         26.0033 
        1.07993         97.8108         25.6635 
        1.08607         97.0463         25.3284 
        1.09222         96.6251          24.999 
        1.09836         95.8503         24.6758 
        1.10449         95.2938         24.3588 
        1.11063         94.6845          24.047 
        1.11677         94.2414         23.7408 
         1.1229         93.2592         23.4405 
        1.12903         92.4915         23.1452 
        1.13518         92.7501         22.8548 
        1.14131         91.9291         22.5695 
        1.14745         91.1047         22.2893 
        1.15359         90.6781         22.0138 
        1.15973         90.2808         21.7429 
        1.16584          89.571         21.4777 
        1.17197         89.0803         21.2167 
        1.17811         88.5423         20.9592 
        1.18424         87.9345         20.7067 
        1.19038         87.4615         20.4577 
        1.19652         87.0775         20.2128 
        1.20267         86.3178         19.9721 
        1.20881         85.8963         19.7353 
        1.21495         85.3117         19.5027 
        1.22108         84.8933         19.2739 
         1.2272         84.1825         19.0493 
        1.23334         83.8884         18.8279 
        1.23949          83.319         18.6094 
        1.24562         83.0081          18.395 
        1.25174         82.4753         18.1844 
        1.25789         82.1005         17.9764 
        1.26402         81.6942          17.772 
        1.27014         80.9426         17.5713 
        1.27628         80.7471         17.3732 
        1.28244         80.0682         17.1777 
        1.28858          79.772         16.9855 
        1.29471         79.3621         16.7967 
        1.30084         78.8728         16.6109 
        1.30697         78.4076         16.4277 
        1.31312         78.0021          16.247 
        1.31925         77.6623         16.0696 
        1.32537         77.3313          15.895 
        1.33151         76.5521         15.7224 
        1.33765         76.2116         15.5525 
        1.34378         75.7675         15.3855 
        1.34992         75.5522         15.2208 
        1.35606         75.1216         15.0581 
         1.3622         74.4539         14.8981 
        1.36833         74.3455         14.7409 
        1.37445         73.8662          14.586 
        1.38059         73.3239         14.4329 
        1.38675         72.9401         14.2816 
        1.39288         72.5375          14.133 
        1.39901         72.4351         13.9867 
        1.40515         71.9634         13.8421 
         1.4113         71.5161         13.6997 
        1.41742         71.3832         13.5598 
        1.42355         70.7457         13.4215 
         1.4297         70.4792         13.2848 
        1.43585         69.9572         13.1501 
        1.44198         69.7191         13.0178 
        1.44809         69.3688         12.8875 
        1.45423          69.009         12.7585 
        1.46036         68.7723         12.6316 
        1.46649         68.3434         12.5063 
        1.47263         67.9098         12.3826 
        1.47877         67.7393         12.2607 
        1.48491         67.4122         12.1402 
        1.49104         66.9498         12.0216 
        1.49718         66.4969         11.9045 
        1.50333         66.2519         11.7887 
        1.50947         65.9018         11.6748 
         1.5156         65.6183         11.5625 
        1.52172         65.3323         11.4517 
        1.52787         65.1562         11.3421 
          1.534          64.719         11.2341 
        1.54013         64.3144         11.1277 
        1.54627         64.0968         11.0224 
        1.55241         63.6613         10.9184 
        1.55855         63.3424          10.816 
        1.56467         62.9054         10.7152 
         1.5708         62.8468         10.6153 
        1.57695         62.5713         10.5166 
        1.58308         62.0913         10.4194 
        1.58922         62.0306         10.3234 
        1.59535         61.7827         10.2285 
         1.6015         61.1734         10.1348 
        1.60764         61.0436         10.0423 
        1.61376         60.6737         9.95117 
        1.61989         60.3357         9.86112 
        1.62604         60.2045         9.77199 
        1.63218          59.982         9.68402 
        1.63831         59.6032         9.59733 
        1.64444         59.2968         9.51168 
        1.65059         58.8844         9.42688 
        1.65673         58.7333          9.3432 
        1.66285         58.3988         9.26077 
        1.66898         58.1447         9.17931 
        1.67512         57.7902         9.09868 
        1.68127         57.4854         9.01894 
         1.6874          57.343         8.94034 
        1.69353         57.0153         8.86272 
        1.69967         56.7276         8.78584 
        1.70581         56.6359         8.70991 
        1.71193         56.3592         8.63516 
        1.71806         55.8279         8.56113 
        1.72421         55.7575         8.48783 
        1.73035         55.4307         8.41546 
        1.73649         55.0302         8.34396 
        1.74262         54.9748         8.27335 
        1.74876         54.7002         8.20351 
        1.75489         54.3851         8.13462 
        1.76101         54.2028         8.06654 
        1.76715         53.8466         7.99915 
        1.77329         53.6508         7.93245 
        1.77943         53.3584         7.86649 
        1.78557         53.2138         7.80137 
        1.79171         52.8889         7.73698 
        1.79785         52.6962         7.67331 
        1.80399         52.4659         7.61036 
        1.81012         52.2801         7.54821 
        1.81625         51.7882         7.48678 
        1.82239         51.6704         7.42595 
        1.82853         51.2998         7.36582 
        1.83466         51.2116         7.30641 
        1.84078         50.8186         7.24773 
        1.84692          50.625         7.18959 
        1.85306         50.4381         7.13203 
         1.8592         50.1217         7.07518 
        1.86533         49.9874         7.01899 
        1.87147         49.7607         6.96335 
        1.87761         49.5787         6.90828 
        1.88375         49.3129         6.85388 
        1.88988         49.2615         6.80012 
        1.89601         48.8509         6.74691 
        1.90215          48.672         6.69423 
        1.90829         48.5382         6.64214 
        1.91442         48.2548         6.59059 
        1.92056         47.9731         6.53965 
         1.9267         47.7027         6.48919 
        1.93284         47.5518         6.43923 
        1.93897         47.3419         6.38989 
        1.94509         47.0316         6.34118 
        1.95123         46.9632         6.29285 
        1.95737         46.6938         6.24499 
        1.96349         46.4493         6.19775 
        1.96964         46.3702         6.15087 
        1.97578         46.0479         6.10445 
        1.98192         45.8867          6.0586 
        1.98805         45.7119         6.01322 
        1.99419         45.3907          5.9683 
        2.00033         45.2181         5.92382 
        2.00647         45.0306         5.87981 
         2.0126         44.7942         5.83632 
        2.01874           44.65          5.7932 
        2.02488         44.5074         5.75048 
        2.03101         44.2098         5.70827 
        2.03714         44.0236         5.66652 
        2.04328         43.7958         5.62515 
        2.04941         43.5738         5.58422 
        2.05554         43.3333         5.54373 
        2.06167         43.2929         5.50359 
        2.06781         43.0513         5.46384 
        2.07396         42.8307         5.42443 
        2.08009         42.6805         5.38547 
        2.08622         42.4136         5.34694 
        2.09237         42.2402         5.30871 
        2.09851         42.0439         5.27085 
        2.10464         41.8779         5.23342 
        2.11077         41.7513          5.1964 
        2.11691         41.4967         5.15966 
        2.12305         41.2586         5.12327 
        2.12918         41.1261         5.08732 
        2.13531         40.8941         5.05171 
        2.14145         40.8027         5.01636 
         2.1476         40.5736         4.98131 
        2.15372         40.3347         4.94677 
        2.15985         40.2098         4.91253 
        2.16599          40.157          4.8785 
        2.17213         40.0088         4.84484 
        2.17827         39.6886         4.81151 
         2.1844         39.5099         4.77852 
        2.19054         39.3191         4.74582 
        2.19666         39.1748         4.71348 
         2.2028         38.9919         4.68142 
        2.20893          38.886         4.64963 
        2.21508         38.7141         4.61811 
        2.22122         38.4768         4.58686 
        2.22736          38.335         4.55598 
        2.23349         38.2071         4.52538 
        2.23962         37.9271         4.49505 
        2.24577         37.7838         4.46497 
         2.2519         37.6028         4.43521 
        2.25802         37.5311         4.40576 
        2.26417         37.3329          4.3765 
        2.27031         37.2342         4.34748 
        2.27644         36.9348         4.31881 
        2.28257          36.852          4.2904 
        2.28872         36.6192         4.26219 
        2.29486         36.5517         4.23424 
        2.30099         36.3874          4.2066 
        2.30712          36.211         4.17919 
        2.31326         36.0934         4.15199 
         2.3194           35.91         4.12503 
        2.32553         35.7386         4.09837 
        2.33166         35.5954         4.07195 
         2.3378         35.4085         4.04573 
        2.34394         35.1905         4.01973 
        2.35007         35.0913           3.994 
        2.35619         35.0225         3.96852 
        2.36233         34.8963         3.94321 
        2.36848          34.625         3.91806 
        2.37462         34.5692         3.89319 
        2.38075         34.3874         3.86855 
        2.38689         34.3272         3.84411 
        2.39303         34.1058         3.81989 
        2.39916         33.9106          3.7959 
        2.40529         33.6796         3.77212 
        2.41143         33.6598         3.74852 
        2.41757         33.5512         3.72511 
         2.4237         33.3563         3.70195 
        2.42983         33.2369         3.67899 
        2.43598         33.0278         3.65616 
        2.44211         32.9107         3.63356 
        2.44823         32.7825         3.61121 
        2.45437         32.6851         3.58898 
        2.46052         32.4661         3.56692 
        2.46665          32.404         3.54508 
        2.47279         32.2578         3.52344 
        2.47892         32.0585         3.50196 
        2.48507         31.9507         3.48064 
         2.4912         31.8158         3.45954 
