# k  (h/Mpc)    P(k)  (Mpc/h)^3    P_linear(k)  (Mpc/h)^3
     0.00783031         3359.68         3385.25 
       0.013688         4237.06         4304.88 
       0.019231         4423.17         4458.37 
      0.0249154         4213.26          4210.5 
      0.0312784         3720.23         3733.89 
      0.0375637         3234.33         3257.82 
      0.0433917         2897.78         2898.75 
      0.0492413         2619.43         2633.74 
      0.0555754         2428.88         2429.29 
      0.0619321         2227.02         2266.33 
       0.067871         2099.35          2116.4 
      0.0738098         1940.83         1950.58 
      0.0800417         1758.18         1760.41 
      0.0862327         1564.43         1570.69 
      0.0921407         1403.18         1406.94 
      0.0982031         1275.67         1269.33 
       0.104506         1156.91         1162.76 
       0.110769         1084.47            1088 
       0.116806         1042.31          1034.3 
       0.122832         984.178         986.736 
       0.129052         935.985         934.301 
       0.135211          885.16         874.774 
       0.141259         815.844         810.508 
       0.147318         745.693         745.578 
       0.153489           692.5         685.005 
       0.159709         650.034         634.099 
       0.165845         599.921         595.187 
       0.171974         583.774         565.949 
       0.178125         560.693         542.789 
       0.184229         530.576         521.973 
        0.19034         515.227         500.139 
       0.196428         492.697         475.892 
       0.202534          458.71          449.37 
       0.208729         441.075         421.848 
       0.214876         419.737         396.008 
       0.220989         389.958         373.394 
       0.227147         379.621         354.453 
        0.23329         365.387         339.123 
       0.239377         355.537         326.472 
       0.245482          339.68         315.049 
       0.251667         325.917         303.589 
       0.257832         320.341         291.583 
       0.263955         302.402         278.989 
       0.270079          290.24         266.097 
        0.27624         276.441         253.486 
       0.282372         267.298         241.883 
        0.28843         263.611         231.708 
       0.294538         251.617         222.793 
       0.300721         241.642         214.903 
        0.30691         237.707         207.754 
       0.313033         228.293         200.995 
       0.319153         224.236         194.261 
       0.325316         215.861         187.363 
        0.33145           209.2         180.446 
       0.337538         202.275         173.685 
       0.343633         195.922         167.222 
       0.349808         189.808         161.145 
       0.355968         184.738         155.609 
       0.362074         180.998         150.623 
       0.368217         176.877         145.991 
       0.374374         172.983         141.609 
       0.380519          165.76         137.369 
       0.386598         162.085         133.228 
       0.392688         157.619         129.128 
        0.39888         154.562         125.024 
       0.405048         151.073         121.066 
       0.411186         148.138         117.314 
       0.417313         144.352         113.781 
       0.423458          140.64         110.463 
       0.429607         138.057         107.347 
       0.435692           135.7         104.421 
       0.441815         131.564         101.591 
       0.447964          127.77         98.8375 
       0.454126         125.447         96.1401 
       0.460267         124.422         93.5117 
       0.466387         121.425         90.9674 
        0.47254         119.949         88.4985 
       0.478662         115.893         86.1405 
       0.484765         114.107          83.895 
       0.490885         111.435         81.7509 
       0.497035         110.538         79.6907 
       0.503198         107.906          77.706 
       0.509342         105.218         75.7932 
       0.515458         104.015         73.9471 
       0.521598         101.503         72.1463 
       0.527764         100.368         70.3866 
       0.533884         99.3242         68.6911 
           0.54         96.8113         67.0526 
       0.546137          94.364         65.4678 
       0.552299         93.0249         63.9359 
       0.558452          91.279         62.4617 
       0.564573         90.8771         61.0451 
       0.570708         88.2029         59.6714 
       0.576825         87.3158         58.3445 
       0.582926         86.2686         57.0607 
       0.589034         84.7568         55.8117 
       0.595184         83.6746         54.5888 
       0.601379         81.5358         53.3925 
       0.607522         80.4144         52.2415 
       0.613639         79.6196         51.1308 
       0.619772         78.2191         50.0526 
       0.625918         77.1594          49.006 
       0.632068         76.2118         47.9904 
       0.638161         74.7966         47.0133 
         0.6443          74.182         46.0561 
       0.650464         72.5952         45.1212 
       0.656582         72.2678         44.2185 
       0.662703         71.3765         43.3401 
       0.668861         69.7322         42.4808 
       0.675024         69.4599         41.6446 
       0.681124         68.5216           40.84 
       0.687237         67.1487         40.0557 
       0.693381         66.5586         39.2888 
       0.699536         65.9449          38.541 
       0.705665         64.8399         37.8161 
       0.711789         63.9116         37.1105 
       0.717957         63.0208         36.4182 
        0.72409         62.4536         35.7475 
       0.730186         62.0827         35.0979 
       0.736317         60.9552         34.4611 
       0.742472         60.3005          33.838 
       0.748622         59.4004          33.231 
        0.75476         58.4836         32.6405 
       0.760888         58.3856         32.0654 
       0.767043         57.3113         31.5021 
       0.773185         56.7741         30.9536 
       0.779291         56.0889         30.4215 
       0.785407         55.2718         29.9012 
       0.791564         55.2748         29.3899 
       0.797719         54.3769          28.891 
       0.803834         53.9026         28.4069 
       0.809972         53.2393         27.9322 
       0.816124         52.7014         27.4675 
       0.822261         52.0716         27.0147 
       0.828378         51.7891         26.5736 
       0.834502         51.1594         26.1421 
       0.840667         50.7571         25.7175 
       0.846816         49.9316         25.3036 
       0.852925         49.7196         24.9016 
       0.859047         49.4091         24.5075 
       0.865192         48.6129         24.1208 
       0.871341         48.0985         23.7423 
       0.877463         47.7292         23.3737 
       0.883569          47.537          23.014 
       0.889708         46.9812           22.66 
       0.895864         46.4831         22.3127 
       0.902008         45.9836         21.9735 
       0.908149         45.6337         21.6415 
       0.914301         45.3219          21.316 
       0.920448         44.9028         20.9975 
       0.926574         44.2202         20.6867 
       0.932687         43.9505          20.383 
       0.938823         43.4801         20.0842 
       0.944975         43.1032         19.7909 
       0.951105         42.7598         19.5045 
       0.957225         42.5466         19.2243 
       0.963368         42.0412         18.9487 
       0.969511         41.7081         18.6785 
       0.975621         41.3784         18.4151 
       0.981748         40.9361         18.1562 
       0.987916         40.6849         17.9006 
        0.99406         40.2552          17.651 
        1.00019          39.995         17.4066 
        1.00632         39.6856         17.1672 
        1.01246         39.3764         16.9319 
        1.01859         39.0094         16.7014 
        1.02471         38.6462         16.4756 
        1.03085          38.523         16.2532 
        1.03698         38.2117         16.0354 
        1.04314         37.8935         15.8207 
        1.04929         37.4826         15.6104 
        1.05541         37.3473         15.4049 
        1.06154         37.1395         15.2026 
        1.06769         36.6091         15.0037 
        1.07382         36.4451          14.809 
        1.07993         36.1223         14.6182 
        1.08607         35.8921           14.43 
        1.09222         35.6616          14.245 
        1.09836         35.3318         14.0635 
        1.10449         35.1754         13.8853 
        1.11063         34.8723         13.7101 
        1.11677         34.8266          13.538 
         1.1229         34.4535         13.3692 
        1.12903         34.2233         13.2031 
        1.13518         34.0771         13.0398 
        1.14131         33.7715         12.8793 
        1.14745         33.4003         12.7216 
        1.15359         33.1446         12.5666 
        1.15973           32.97         12.4141 
        1.16584         32.7539         12.2648 
        1.17197         32.3927         12.1178 
        1.17811         32.2705         11.9728 
        1.18424         31.9393         11.8305 
        1.19038         31.8435         11.6902 
        1.19652         31.6018         11.5522 
        1.20267         31.4483         11.4165 
        1.20881         31.2126          11.283 
        1.21495         31.0273         11.1519 
        1.22108         30.9528         11.0228 
         1.2272         30.7223         10.8962 
        1.23334         30.5097         10.7712 
        1.23949         30.2801         10.6479 
        1.24562         29.9925         10.5269 
        1.25174          29.885          10.408 
        1.25789         29.7787         10.2906 
        1.26402          29.589         10.1752 
        1.27014         29.3972         10.0618 
        1.27628         29.1167         9.94989 
        1.28244         29.1044         9.83944 
        1.28858         28.8042         9.73084 
        1.29471         28.6262         9.62412 
        1.30084         28.4283         9.51911 
        1.30697         28.3198         9.41553 
        1.31312         28.0822         9.31334 
        1.31925         27.9156         9.21301 
        1.32537         27.7439         9.11426 
        1.33151         27.5761         9.01662 
        1.33765         27.5196         8.92047 
        1.34378          27.343         8.82593 
        1.34992         27.1832          8.7327 
        1.35606         26.9838         8.64062 
         1.3622         26.7835         8.55005 
        1.36833         26.7012         8.46099 
        1.37445         26.5491         8.37326 
        1.38059         26.3919         8.28651 
        1.38675         26.1859         8.20079 
        1.39288         26.0594         8.11664 
        1.39901         25.9163         8.03371 
        1.40515         25.8052         7.95175 
         1.4113         25.6993         7.87098 
        1.41742         25.5688         7.79165 
        1.42355         25.3546         7.71327 
         1.4297         25.2085         7.63573 
        1.43585         25.0786          7.5593 
        1.44198         24.9985         7.48421 
        1.44809         24.8495         7.41028 
        1.45423         24.7101         7.33709 
        1.46036         24.5845         7.26502 
        1.46649         24.4418          7.1939 
        1.47263         24.3195         7.12367 
        1.47877         24.2293         7.05442 
        1.48491         24.0891         6.98599 
        1.49104         23.9298         6.91861 
        1.49718         23.8412         6.85208 
        1.50333         23.7494         6.78632 
        1.50947         23.6202         6.72156 
         1.5156         23.4734         6.65775 
        1.52172         23.3246         6.59477 
        1.52787         23.2264         6.53248 
          1.534         23.1503         6.47108 
        1.54013         23.0523         6.41054 
        1.54627         22.8685         6.35066 
        1.55241         22.7518         6.29154 
        1.55855          22.661         6.23327 
        1.56467         22.6139         6.17589 
         1.5708         22.4816         6.11908 
        1.57695         22.3577         6.06291 
        1.58308         22.1748         6.00757 
        1.58922         22.0934         5.95289 
        1.59535          21.995         5.89891 
         1.6015         21.8605         5.84553 
        1.60764         21.7919         5.79284 
        1.61376         21.7211         5.74095 
        1.61989         21.5546         5.68965 
        1.62604         21.4886         5.63887 
        1.63218         21.3835         5.58875 
        1.63831          21.252         5.53935 
        1.64444         21.1675         5.49054 
        1.65059          21.064          5.4422 
        1.65673         21.0059         5.39449 
        1.66285         20.8497          5.3475 
        1.66898         20.8077         5.30105 
        1.67512         20.7423         5.25506 
        1.68127         20.6018         5.20958 
         1.6874         20.5367         5.16474 
        1.69353         20.3693         5.12046 
        1.69967         20.3004         5.07659 
        1.70581         20.2376         5.03326 
        1.71193           20.08          4.9906 
        1.71806         20.0494         4.94835 
        1.72421         19.9609          4.9065 
        1.73035         19.8389         4.86519 
        1.73649         19.7707         4.82436 
        1.74262         19.6496         4.78404 
        1.74876         19.5808         4.74415 
        1.75489         19.5207          4.7048 
        1.76101          19.402         4.66592 
        1.76715         19.3353         4.62742 
        1.77329         19.2363         4.58931 
        1.77943         19.1399         4.55161 
        1.78557         19.0914          4.5144 
        1.79171         18.9656         4.47759 
        1.79785         18.9141         4.44119 
        1.80399         18.8085         4.40521 
        1.81012         18.7644         4.36967 
        1.81625         18.6381         4.33455 
        1.82239         18.5648         4.29975 
        1.82853          18.496         4.26536 
        1.83466         18.3837         4.23138 
        1.84078         18.3539         4.19781 
        1.84692         18.3125         4.16455 
        1.85306         18.2073         4.13161 
         1.8592         18.1339         4.09908 
        1.86533         17.9845         4.06692 
        1.87147         17.9378         4.03507 
        1.87761         17.8684         4.00355 
        1.88375         17.8333          3.9724 
        1.88988         17.6846         3.94162 
        1.89601         17.6555         3.91115 
        1.90215         17.5479         3.88098 
        1.90829         17.4725         3.85114 
        1.91442         17.3609         3.82162 
        1.92056         17.3807         3.79243 
         1.9267         17.2927         3.76352 
        1.93284         17.2648         3.73489 
        1.93897         17.1523         3.70662 
        1.94509         17.0796          3.6787 
        1.95123         16.9888           3.651 
        1.95737         16.9575         3.62357 
        1.96349         16.8457         3.59649 
        1.96964          16.819          3.5696 
        1.97578         16.7535         3.54299 
        1.98192         16.6681          3.5167 
        1.98805         16.5726         3.49067 
        1.99419         16.5344          3.4649 
        2.00033         16.4793         3.43939 
        2.00647         16.3932         3.41414 
         2.0126         16.3425         3.38919 
        2.01874         16.2473         3.36445 
        2.02488          16.175         3.33993 
        2.03101         16.1314         3.31571 
        2.03714         16.0585         3.29175 
        2.04328         15.9876           3.268 
        2.04941         15.9075          3.2445 
        2.05554         15.9022         3.22126 
        2.06167         15.8321         3.19821 
        2.06781         15.7502         3.17538 
        2.07396         15.7483         3.15274 
        2.08009          15.614         3.13037 
        2.08622         15.5816         3.10824 
        2.09237         15.5351         3.08628 
        2.09851         15.4272         3.06453 
        2.10464         15.4058         3.04302 
        2.11077         15.3238         3.02175 
        2.11691         15.2932         3.00063 
        2.12305         15.2164         2.97972 
        2.12918         15.1136         2.95905 
        2.13531          15.102         2.93859 
        2.14145         15.0252         2.91826 
         2.1476         14.9496         2.89811 
        2.15372         14.9335         2.87825 
        2.15985         14.8718         2.85856 
        2.16599         14.8126         2.83899 
        2.17213         14.7895         2.81964 
        2.17827         14.6856         2.80046 
         2.1844         14.6359         2.78148 
        2.19054         14.6167         2.76268 
        2.19666         14.5473         2.74407 
         2.2028         14.4984         2.72562 
        2.20893         14.4101         2.70733 
        2.21508         14.3835         2.68918 
        2.22122         14.2979          2.6712 
        2.22736         14.2797         2.65342 
        2.23349         14.2281         2.63581 
        2.23962         14.1859         2.61835 
        2.24577         14.1266         2.60103 
         2.2519         14.0665         2.58389 
        2.25802          13.964         2.56694 
        2.26417         13.9911         2.55009 
        2.27031          13.924         2.53337 
        2.27644         13.8897         2.51686 
        2.28257         13.7849         2.50049 
        2.28872         13.7837         2.48424 
        2.29486         13.7226         2.46814 
        2.30099         13.6733         2.45221 
        2.30712         13.5772         2.43642 
        2.31326         13.5348         2.42074 
         2.3194         13.5086         2.40521 
        2.32553         13.4436         2.38984 
        2.33166         13.3979         2.37461 
         2.3378         13.3585          2.3595 
        2.34394         13.3118         2.34451 
        2.35007         13.2649         2.32967 
        2.35619         13.2057         2.31498 
        2.36233          13.134         2.30038 
        2.36848         13.1065         2.28588 
        2.37462          13.061         2.27154 
        2.38075         13.0244         2.25733 
        2.38689         12.9878         2.24323 
        2.39303          12.907         2.22926 
        2.39916         12.9001         2.21541 
        2.40529          12.856         2.20169 
        2.41143         12.7885         2.18808 
        2.41757         12.7284         2.17457 
         2.4237         12.7084          2.1612 
        2.42983         12.6543         2.14795 
        2.43598         12.6167         2.13477 
        2.44211         12.5578         2.12173 
        2.44823         12.5277         2.10882 
        2.45437         12.4835         2.09599 
        2.46052         12.4625         2.08325 
        2.46665         12.4094         2.07064 
        2.47279         12.3498         2.05814 
        2.47892         12.2969         2.04574 
        2.48507         12.2727         2.03342 
         2.4912         12.2364         2.02124 
