# k  (h/Mpc)    P(k)  (Mpc/h)^3    P_linear(k)  (Mpc/h)^3
     0.00783031         15813.6         16097.7 
       0.013688         20673.8         20523.6 
       0.019231         21397.4         21427.1 
      0.0249154         19935.4         20463.6 
      0.0312784         18051.4         18370.1 
      0.0375637         16029.3         16150.8 
      0.0433917         13979.7         14387.2 
      0.0492413         12794.7         13023.5 
      0.0555754         11415.2         11945.1 
      0.0619321           10985         11115.9 
       0.067871         9955.88         10413.9 
      0.0738098         9248.23         9679.77 
      0.0800417          8325.2         8841.09 
      0.0862327         7619.78         7973.65 
      0.0921407         7004.21         7180.56 
      0.0982031         6292.76         6466.63 
       0.104506         5916.34         5871.38 
       0.110769         5472.43          5429.7 
       0.116806         5147.12         5116.04 
       0.122832         4902.33          4868.2 
       0.129052         4557.19         4633.39 
       0.135211         4332.04         4386.85 
       0.141259         4159.86         4117.76 
       0.147318         3932.64         3828.24 
       0.153489         3612.99         3533.14 
       0.159709         3426.19         3259.29 
       0.165845         3312.68         3029.28 
       0.171974         3127.33         2845.33 
       0.178125         2977.99         2701.82 
       0.184229         2849.87          2587.9 
        0.19034         2711.77         2487.36 
       0.196428         2660.04         2387.62 
       0.202534         2557.14         2280.22 
       0.208729         2453.22         2162.43 
       0.214876         2363.17         2041.13 
       0.220989         2285.96         1923.27 
       0.227147         2194.45         1814.33 
        0.23329         2112.53          1719.9 
       0.239377         2087.65         1641.37 
       0.245482         1965.01         1575.44 
       0.251667         1956.69         1517.51 
       0.257832         1881.71         1463.89 
       0.263955         1821.16         1410.85 
       0.270079         1764.17         1355.95 
        0.27624         1743.79          1298.9 
       0.282372         1673.05         1241.73 
        0.28843         1673.58          1187.1 
       0.294538            1596         1135.84 
       0.300721          1585.4         1089.16 
        0.30691         1529.27         1047.82 
       0.313033         1498.52         1011.47 
       0.319153          1483.1          978.32 
       0.325316         1432.65         946.685 
        0.33145         1404.05         915.775 
       0.337538         1379.32         885.096 
       0.343633            1354         854.339 
       0.349808          1312.9         823.624 
       0.355968         1302.59         794.023 
       0.362074         1292.73         766.349 
       0.368217         1251.62         740.485 
       0.374374         1210.75         716.614 
       0.380519         1214.38         694.588 
       0.386598         1180.97         674.135 
       0.392688         1174.75         654.574 
        0.39888         1143.96         635.241 
       0.405048         1133.36         616.339 
       0.411186         1116.82         597.883 
       0.417313         1093.66         579.878 
       0.423458         1076.12         562.435 
       0.429607         1063.41         545.772 
       0.435692          1044.6         530.131 
       0.441815         1036.99         515.257 
       0.447964         1014.97         501.139 
       0.454126         1009.26         487.659 
       0.460267         985.388          474.75 
       0.466387         971.246         462.308 
        0.47254         970.363          450.14 
       0.478662         957.404         438.332 
       0.484765         934.534         426.895 
       0.490885         929.255         415.802 
       0.497035         908.656         405.062 
       0.503198          904.86         394.726 
       0.509342         893.224         384.858 
       0.515458         890.134         375.449 
       0.521598         870.095         366.364 
       0.527764         853.484         357.555 
       0.533884         852.698         349.089 
           0.54         845.975         340.883 
       0.546137         835.008         332.886 
       0.552299         826.846         325.082 
       0.558452         819.166         317.525 
       0.564573         808.506         310.246 
       0.570708         801.027         303.199 
       0.576825         780.223         296.415 
       0.582926         784.821         289.875 
       0.589034         776.197         283.537 
       0.595184         768.928         277.354 
       0.601379         759.159         271.316 
       0.607522         748.365         265.504 
       0.613639         749.316         259.882 
       0.619772         734.104         254.401 
       0.625918           728.1         249.062 
       0.632068         720.184         243.872 
       0.638161         717.404         238.879 
         0.6443         704.836         233.997 
       0.650464         703.839         229.242 
       0.656582         698.199          224.66 
       0.662703         694.533         220.205 
       0.668861          682.84         215.847 
       0.675024         676.622         211.602 
       0.681124         673.548         207.513 
       0.687237         668.039         203.523 
       0.693381         660.454         199.619 
       0.699536         648.127         195.812 
       0.705665         649.249         192.122 
       0.711789         644.396         188.533 
       0.717957         638.434         185.013 
        0.72409         635.167         181.604 
       0.730186         625.575         178.303 
       0.736317         622.855         175.066 
       0.742472         618.944         171.899 
       0.748622         612.455         168.813 
        0.75476         602.791          165.81 
       0.760888          599.02         162.886 
       0.767043         596.703         160.021 
       0.773185          591.64         157.231 
       0.779291         586.845         154.525 
       0.785407         580.601          151.88 
       0.791564         575.234          149.28 
       0.797719         573.075         146.744 
       0.803834         567.215         144.283 
       0.809972         563.813          141.87 
       0.816124         562.589         139.507 
       0.822261         553.932         137.206 
       0.828378         550.874         134.963 
       0.834502         545.382         132.769 
       0.840667          541.08          130.61 
       0.846816         537.869         128.506 
       0.852925         533.561         126.462 
       0.859047         532.952         124.458 
       0.865192         525.501         122.491 
       0.871341         521.221         120.567 
       0.877463         520.803         118.692 
       0.883569         514.561         116.863 
       0.889708          512.39         115.063 
       0.895864         510.057         113.296 
       0.902008         505.715         111.571 
       0.908149         498.776         109.883 
       0.914301          497.17         108.228 
       0.920448          494.54         106.609 
       0.926574         486.033         105.028 
       0.932687         485.213         103.484 
       0.938823         480.714         101.965 
       0.944975         480.613         100.473 
       0.951105         474.635          99.017 
       0.957225         471.167         97.5924 
       0.963368         466.914         96.1913 
       0.969511         465.364         94.8178 
       0.975621         462.252         93.4788 
       0.981748         458.595         92.1624 
       0.987916          455.74         90.8633 
        0.99406         448.638         89.5943 
        1.00019         447.167         88.3522 
        1.00632         445.005          87.135 
        1.01246         441.568          85.939 
        1.01859         440.544         84.7677 
        1.02471         435.121         83.6197 
        1.03085         433.202         82.4893 
        1.03698         431.093         81.3823 
        1.04314         426.951          80.291 
        1.04929         422.021         79.2224 
        1.05541          423.18         78.1777 
        1.06154         416.998         77.1494 
        1.06769         414.185         76.1382 
        1.07382         411.509         75.1485 
        1.07993         409.177         74.1788 
        1.08607         407.914         73.2223 
        1.09222         403.304         72.2818 
        1.09836           400.7          71.359 
        1.10449         397.695         70.4536 
        1.11063         392.497          69.563 
        1.11677         393.812         68.6881 
         1.1229         390.979           67.83 
        1.12903         387.679         66.9859 
        1.13518         383.195         66.1555 
        1.14131         382.174         65.3398 
        1.14745         378.688         64.5383 
        1.15359         377.019         63.7503 
        1.15973         374.476         62.9751 
        1.16584         371.765         62.2164 
        1.17197         369.992         61.4693 
        1.17811         366.624         60.7321 
        1.18424         363.227         60.0093 
        1.19038          361.29         59.2963 
        1.19652         359.782         58.5952 
        1.20267         357.409         57.9055 
        1.20881         355.347         57.2271 
        1.21495         352.353         56.5607 
        1.22108         350.295          55.905 
         1.2272         347.593         55.2614 
        1.23334         345.531         54.6265 
        1.23949         342.827         54.0001 
        1.24562          341.31         53.3854 
        1.25174         338.834         52.7812 
        1.25789         334.916         52.1845 
        1.26402          333.15         51.5982 
        1.27014         331.124         51.0224 
        1.27628         328.676         50.4537 
        1.28244         328.977         49.8926 
        1.28858          324.97         49.3409 
        1.29471         323.582         48.7987 
        1.30084         321.145         48.2653 
        1.30697         319.448          47.739 
        1.31312         315.836         47.2199 
        1.31925         314.783         46.7102 
        1.32537         313.578         46.2085 
        1.33151         310.102         45.7124 
        1.33765         308.047         45.2239 
        1.34378         307.017         44.7436 
        1.34992         304.792           44.27 
        1.35606          302.79         43.8022 
         1.3622         300.751          43.342 
        1.36833         299.076         42.8896 
        1.37445         296.949          42.444 
        1.38059         294.358         42.0033 
        1.38675         292.606         41.5679 
        1.39288         291.065         41.1404 
        1.39901         289.697         40.7191 
        1.40515          287.64         40.3028 
         1.4113         286.006         39.8925 
        1.41742         283.598         39.4896 
        1.42355          281.89         39.0914 
         1.4297         280.148         38.6976 
        1.43585         278.725         38.3094 
        1.44198         276.923         37.9281 
        1.44809         273.918         37.5527 
        1.45423         272.529          37.181 
        1.46036         271.409          36.815 
        1.46649         269.344         36.4538 
        1.47263          267.93         36.0973 
        1.47877         265.593         35.7456 
        1.48491         263.526         35.3981 
        1.49104         262.592          35.056 
        1.49718         260.677         34.7182 
        1.50333         259.213         34.3843 
        1.50947         257.621         34.0555 
         1.5156         255.297         33.7315 
        1.52172          254.62         33.4117 
        1.52787         252.439         33.0954 
          1.534         251.502         32.7837 
        1.54013         248.821         32.4762 
        1.54627         247.824         32.1722 
        1.55241         246.401         31.8721 
        1.55855         244.238         31.5762 
        1.56467         243.261         31.2849 
         1.5708         242.102         30.9964 
        1.57695         239.913         30.7112 
        1.58308         238.783         30.4303 
        1.58922         235.791         30.1526 
        1.59535         235.242         29.8786 
         1.6015         234.077         29.6076 
        1.60764         232.236         29.3401 
        1.61376         231.293         29.0767 
        1.61989         229.548         28.8162 
        1.62604         227.767         28.5585 
        1.63218         226.782          28.304 
        1.63831         225.218         28.0532 
        1.64444         223.987         27.8054 
        1.65059         222.891           27.56 
        1.65673         221.133         27.3179 
        1.66285         219.424         27.0793 
        1.66898         218.231         26.8436 
        1.67512         217.231         26.6101 
        1.68127          214.97         26.3793 
         1.6874         213.728         26.1517 
        1.69353         212.918          25.927 
        1.69967         211.365         25.7044 
        1.70581         210.261         25.4845 
        1.71193         208.556          25.268 
        1.71806         207.734         25.0535 
        1.72421         206.118         24.8412 
        1.73035         205.439         24.6315 
        1.73649         204.072         24.4244 
        1.74262         202.342         24.2197 
        1.74876         201.007         24.0173 
        1.75489         200.127         23.8177 
        1.76101          198.64         23.6203 
        1.76715          197.61          23.425 
        1.77329         196.591         23.2316 
        1.77943         195.353         23.0403 
        1.78557          193.52         22.8514 
        1.79171         193.124         22.6647 
        1.79785         191.372           22.48 
        1.80399         190.509         22.2974 
        1.81012         189.308         22.1171 
        1.81625         188.019         21.9389 
        1.82239         186.828         21.7623 
        1.82853         186.143         21.5879 
        1.83466         184.908         21.4154 
        1.84078         183.734         21.2451 
        1.84692         182.493         21.0764 
        1.85306         181.476         20.9093 
         1.8592          180.32         20.7442 
        1.86533         179.651         20.5811 
        1.87147         178.337         20.4195 
        1.87761         177.304         20.2596 
        1.88375         175.956         20.1015 
        1.88988         174.412         19.9454 
        1.89601         174.278         19.7908 
        1.90215         173.082         19.6378 
        1.90829         171.727         19.4864 
        1.91442         170.867         19.3366 
        1.92056         169.932         19.1886 
         1.9267         168.285         19.0419 
        1.93284         167.652         18.8967 
        1.93897         166.935         18.7533 
        1.94509         165.764         18.6117 
        1.95123          164.81         18.4712 
        1.95737          163.68         18.3321 
        1.96349         162.758         18.1947 
        1.96964         161.691         18.0584 
        1.97578         160.851         17.9234 
        1.98192         159.755         17.7901 
        1.98805         158.687         17.6581 
        1.99419         157.977         17.5274 
        2.00033         156.973          17.398 
        2.00647          156.16           17.27 
         2.0126         154.955         17.1435 
        2.01874         154.623          17.018 
        2.02488         153.545         16.8937 
        2.03101         152.357         16.7708 
        2.03714         151.571         16.6493 
        2.04328         150.469         16.5289 
        2.04941         150.064         16.4097 
        2.05554         148.552         16.2919 
        2.06167         148.047          16.175 
        2.06781          147.06         16.0592 
        2.07396         146.228         15.9445 
        2.08009         145.395          15.831 
        2.08622         144.315         15.7188 
        2.09237         143.518         15.6074 
        2.09851         142.751         15.4972 
        2.10464         142.209         15.3881 
        2.11077         141.226         15.2803 
        2.11691         140.358         15.1732 
        2.12305         139.627         15.0672 
        2.12918         138.763         14.9624 
        2.13531         138.203         14.8587 
        2.14145          136.88         14.7556 
         2.1476         136.093         14.6535 
        2.15372         135.741         14.5528 
        2.15985          135.14          14.453 
        2.16599         133.997         14.3538 
        2.17213         133.254         14.2557 
        2.17827         132.445         14.1585 
         2.1844         131.607         14.0622 
        2.19054         130.886         13.9669 
        2.19666         130.074         13.8726 
         2.2028          129.57         13.7791 
        2.20893         128.895         13.6863 
        2.21508          128.11         13.5944 
        2.22122         127.088         13.5032 
        2.22736         126.433         13.4131 
        2.23349         125.665         13.3239 
        2.23962         124.927         13.2353 
        2.24577         124.352         13.1476 
         2.2519         123.805         13.0607 
        2.25802         122.955         12.9748 
        2.26417         122.407         12.8894 
        2.27031         121.565         12.8047 
        2.27644         120.823          12.721 
        2.28257         120.188         12.6381 
        2.28872         119.673         12.5557 
        2.29486         118.632         12.4741 
        2.30099         118.115         12.3934 
        2.30712         117.566         12.3134 
        2.31326         116.795         12.2339 
         2.3194         116.161         12.1552 
        2.32553         115.534         12.0773 
        2.33166         114.972         12.0002 
         2.3378         114.445         11.9236 
        2.34394         113.739         11.8476 
        2.35007         113.041         11.7724 
        2.35619          112.32          11.698 
        2.36233         111.729          11.624 
        2.36848         111.168         11.5506 
        2.37462         110.609         11.4779 
        2.38075         109.799         11.4059 
        2.38689         109.402         11.3344 
        2.39303         108.814         11.2636 
        2.39916         108.292         11.1935 
        2.40529          107.78          11.124 
        2.41143         107.175          11.055 
        2.41757         106.341         10.9866 
         2.4237         105.779         10.9189 
        2.42983         105.182         10.8517 
        2.43598         104.712          10.785 
        2.44211         104.189         10.7189 
        2.44823         103.518         10.6535 
        2.45437         103.134         10.5885 
        2.46052         102.308          10.524 
        2.46665         101.815         10.4601 
        2.47279         101.557         10.3968 
        2.47892         100.864          10.334 
        2.48507          100.21         10.2716 
         2.4912         99.6097         10.2099 
