# k  (h/Mpc)    P(k)  (Mpc/h)^3    P_linear(k)  (Mpc/h)^3
     0.00783031         3168.92         3200.69 
       0.013688         3575.79         3630.84 
       0.019231            3350         3373.11 
      0.0249154         2839.37         2829.72 
      0.0312784         2195.46         2191.85 
      0.0375637          1696.3         1698.03 
      0.0433917         1404.01         1397.02 
      0.0492413         1221.89         1220.63 
      0.0555754         1124.87         1118.35 
      0.0619321         1040.52         1050.63 
       0.067871         977.684         979.057 
      0.0738098         883.333         882.586 
      0.0800417         764.539         760.184 
      0.0862327         640.195         637.214 
      0.0921407         541.519         537.434 
      0.0982031         470.997         463.209 
       0.104506         419.179         416.598 
       0.110769          396.63         393.619 
       0.116806         387.948         382.737 
       0.122832         373.911         372.294 
       0.129052         356.695         354.015 
       0.135211         331.136         326.036 
       0.141259          295.85         292.084 
       0.147318         260.529         257.495 
       0.153489         232.105         227.277 
       0.159709         211.823         205.128 
       0.165845         195.277         191.659 
       0.171974         191.171         184.505 
       0.178125         185.943         180.445 
       0.184229         179.567         176.238 
        0.19034         174.137         169.524 
       0.196428         164.519         159.646 
       0.202534         150.204         147.426 
       0.208729         140.231         134.512 
       0.214876         130.012          123.04 
       0.220989         119.378         114.115 
       0.227147         114.816         107.885 
        0.23329         110.606          103.91 
       0.239377         108.135         101.212 
       0.245482          104.48         98.6784 
       0.251667         100.235         95.4378 
       0.257832         97.6251         91.1873 
       0.263955         91.3157         86.1354 
       0.270079         86.0256         80.7668 
        0.27624         80.9291         75.6746 
       0.282372         77.0715         71.3603 
        0.28843         74.9699         68.0242 
       0.294538         71.7828         65.5038 
       0.300721         68.9927         63.5243 
        0.30691         67.7832         61.7574 
       0.313033         65.2585         59.9027 
       0.319153         63.8379         57.7787 
       0.325316         60.7792         55.3551 
        0.33145          58.134         52.8013 
       0.337538         55.7483          50.313 
       0.343633         53.7899         48.0382 
       0.349808         51.6693         46.0626 
       0.355968         49.9437         44.4172 
       0.362074         48.9661         43.0499 
       0.368217         47.4954         41.8149 
       0.374374         46.3519         40.6104 
       0.380519         44.4851         39.3632 
       0.386598         43.0942         38.0504 
       0.392688         41.5584         36.6913 
        0.39888         40.6193           35.31 
       0.405048         39.4312         33.9977 
       0.411186         38.1861         32.8074 
       0.417313         37.0192         31.7424 
       0.423458         35.8725         30.7891 
       0.429607         35.2161         29.9229 
       0.435692         34.6067          29.109 
       0.441815         33.2628         28.2987 
       0.447964         32.1583         27.4826 
       0.454126         31.5592         26.6571 
       0.460267         31.0963         25.8355 
       0.466387          30.117           25.04 
        0.47254         29.5858         24.2834 
       0.478662         28.5574         23.5798 
       0.484765         27.9039         22.9263 
       0.490885          27.043         22.3167 
       0.497035          26.576         21.7383 
       0.503198          26.035         21.1789 
       0.509342         25.2354         20.6294 
       0.515458         24.8272         20.0896 
       0.521598         24.2156         19.5576 
       0.527764          23.806         19.0363 
       0.533884         23.2314         18.5352 
           0.54         22.7376         18.0547 
       0.546137         22.0276         17.5961 
       0.552299         21.5991         17.1608 
       0.558452         21.0933         16.7465 
       0.564573          20.846         16.3496 
       0.570708         20.3132         15.9623 
       0.576825         20.0001         15.5849 
       0.582926         19.6032         15.2178 
       0.589034         19.1741         14.8602 
       0.595184         18.9219         14.5109 
       0.601379         18.3922         14.1704 
       0.607522         18.0242          13.844 
       0.613639         17.7272         13.5302 
       0.619772         17.3759         13.2268 
       0.625918         17.0391         12.9339 
       0.632068         16.8417         12.6508 
       0.638161         16.4757         12.3791 
         0.6443         16.1993          12.113 
       0.650464         15.7759         11.8528 
       0.656582         15.6532         11.6009 
       0.662703         15.4064         11.3555 
       0.668861         15.0036         11.1154 
       0.675024         14.7669         10.8821 
       0.681124         14.7033         10.6584 
       0.687237         14.3773         10.4414 
       0.693381         14.0394         10.2299 
       0.699536         13.9439         10.0244 
       0.705665         13.6486         9.82554 
       0.711789         13.4134         9.63226 
       0.717957         13.1198         9.44264 
        0.72409         12.9818         9.25886 
       0.730186         12.9012         9.08085 
       0.736317         12.5992         8.90639 
       0.742472          12.453         8.73579 
       0.748622         12.2349         8.56981 
        0.75476         11.9168         8.40856 
       0.760888         11.8686         8.25182 
       0.767043         11.6298         8.09859 
       0.773185         11.4748         7.94967 
       0.779291         11.3574         7.80541 
       0.785407          11.169         7.66459 
       0.791564         11.0523          7.5264 
       0.797719         10.7915         7.39169 
       0.803834         10.7465         7.26114 
       0.809972         10.5182         7.13326 
       0.816124         10.3985         7.00818 
       0.822261         10.2666         6.88642 
       0.828378         10.1424         6.76793 
       0.834502         10.0204         6.65213 
       0.840667         9.89493         6.53829 
       0.846816         9.67189         6.42745 
       0.852925         9.63429         6.31988 
       0.859047         9.48742         6.21456 
       0.865192         9.35093         6.11131 
       0.871341         9.23185         6.01034 
       0.877463         9.10242         5.91212 
       0.883569         9.03055         5.81635 
       0.889708         8.87437         5.72223 
       0.895864         8.75736         5.62995 
       0.902008         8.65713         5.53991 
       0.908149         8.52064          5.4519 
       0.914301         8.44839         5.36567 
       0.920448         8.34052         5.28139 
       0.926574         8.28001         5.19921 
       0.932687         8.13591         5.11897 
       0.938823          8.0166         5.04014 
       0.944975         7.97421         4.96279 
       0.951105         7.85952         4.88734 
       0.957225         7.79985          4.8136 
       0.963368         7.67153         4.74113 
       0.969511         7.58489         4.67016 
       0.975621         7.50915         4.60102 
       0.981748         7.40395          4.5331 
       0.987916         7.34165         4.46614 
        0.99406         7.25207         4.40077 
        1.00019         7.18887         4.33685 
        1.00632         7.13305         4.27426 
        1.01246         7.02457         4.21282 
        1.01859         6.95417         4.15268 
        1.02471         6.86102         4.09379 
        1.03085         6.82045         4.03585 
        1.03698         6.75004         3.97915 
        1.04314         6.65889          3.9233 
        1.04929         6.57231         3.86866 
        1.05541         6.51806         3.81527 
        1.06154         6.45398         3.76277 
        1.06769          6.4094         3.71117 
        1.07382         6.30535         3.66072 
        1.07993         6.24962         3.61132 
        1.08607          6.2047         3.56263 
        1.09222          6.1247         3.51479 
        1.09836         6.08844         3.46789 
        1.10449         6.00104          3.4219 
        1.11063         5.97239         3.37669 
        1.11677         5.91754         3.33232 
         1.1229         5.85534         3.28883 
        1.12903         5.79963         3.24608 
        1.13518         5.72789         3.20405 
        1.14131          5.6794         3.16279 
        1.14745         5.59716         3.12228 
        1.15359         5.54137         3.08247 
        1.15973         5.50038         3.04335 
        1.16584         5.45129         3.00508 
        1.17197         5.39068         2.96741 
        1.17811         5.34826         2.93027 
        1.18424         5.30723         2.89388 
        1.19038         5.27358           2.858 
        1.19652         5.21551         2.82274 
        1.20267         5.17952         2.78808 
        1.20881           5.108         2.75401 
        1.21495         5.07366         2.72055 
        1.22108         5.02368         2.68766 
         1.2272         4.97685         2.65539 
        1.23334         4.95611         2.62358 
        1.23949         4.89738         2.59221 
        1.24562         4.85903         2.56145 
        1.25174         4.83002         2.53122 
        1.25789         4.75969          2.5014 
        1.26402         4.73329         2.47211 
        1.27014         4.70664         2.44335 
        1.27628         4.64756         2.41497 
        1.28244         4.62799         2.38699 
        1.28858         4.58302         2.35949 
        1.29471         4.52912         2.33248 
        1.30084          4.4926         2.30592 
        1.30697         4.47555         2.27974 
        1.31312          4.4287         2.25392 
        1.31925         4.39505         2.22858 
        1.32537         4.35985         2.20366 
        1.33151         4.31999         2.17903 
        1.33765         4.28549          2.1548 
        1.34378         4.27443         2.13098 
        1.34992         4.23019          2.1075 
        1.35606         4.19261         2.08433 
         1.3622         4.15404         2.06154 
        1.36833         4.13003         2.03915 
        1.37445         4.08989         2.01711 
        1.38059         4.05038         1.99532 
        1.38675         4.02718         1.97381 
        1.39288         4.00428         1.95269 
        1.39901         3.95956          1.9319 
        1.40515         3.93622         1.91136 
         1.4113         3.90591         1.89113 
        1.41742         3.88665         1.87126 
        1.42355         3.84539         1.85165 
         1.4297         3.81498         1.83225 
        1.43585         3.79904         1.81315 
        1.44198         3.76765         1.79438 
        1.44809         3.73865         1.77592 
        1.45423         3.70874         1.75765 
        1.46036          3.6877         1.73967 
        1.46649         3.66113         1.72194 
        1.47263         3.63589         1.70443 
        1.47877         3.60706         1.68718 
        1.48491         3.58976         1.67014 
        1.49104         3.56152         1.65337 
        1.49718         3.54039         1.63682 
        1.50333          3.5079         1.62047 
        1.50947         3.48294         1.60437 
         1.5156         3.46492         1.58852 
        1.52172          3.4346         1.57288 
        1.52787         3.42148         1.55742 
          1.534         3.39038         1.54218 
        1.54013         3.37849         1.52717 
        1.54627         3.34462         1.51233 
        1.55241         3.31935         1.49768 
        1.55855         3.30729         1.48325 
        1.56467         3.29293         1.46904 
         1.5708          3.2547         1.45499 
        1.57695         3.23025         1.44109 
        1.58308         3.20945         1.42741 
        1.58922         3.20131          1.4139 
        1.59535         3.18072         1.40056 
         1.6015         3.14509         1.38738 
        1.60764          3.1333         1.37438 
        1.61376          3.1119         1.36158 
        1.61989          3.0865         1.34893 
        1.62604         3.07456         1.33641 
        1.63218         3.05569         1.32406 
        1.63831         3.03638         1.31189 
        1.64444         3.01285         1.29988 
        1.65059         2.99895         1.28798 
        1.65673          2.9794         1.27625 
        1.66285         2.96011         1.26469 
        1.66898         2.94438         1.25327 
        1.67512         2.92551         1.24198 
        1.68127          2.8995         1.23081 
         1.6874         2.88613          1.2198 
        1.69353         2.86516         1.20893 
        1.69967         2.84964         1.19817 
        1.70581          2.8314         1.18755 
        1.71193         2.81406          1.1771 
        1.71806         2.79863         1.16674 
        1.72421         2.78258         1.15649 
        1.73035         2.76636         1.14638 
        1.73649         2.75142         1.13639 
        1.74262         2.73205         1.12653 
        1.74876         2.72152         1.11677 
        1.75489         2.70214         1.10715 
        1.76101         2.68106         1.09765 
        1.76715         2.67903         1.08825 
        1.77329         2.65668         1.07894 
        1.77943         2.63433         1.06974 
        1.78557          2.6295         1.06066 
        1.79171         2.60949         1.05168 
        1.79785         2.60142         1.04281 
        1.80399         2.57934         1.03404 
        1.81012         2.56884         1.02538 
        1.81625         2.55009         1.01682 
        1.82239         2.54138         1.00835 
        1.82853         2.52307        0.999983 
        1.83466         2.50199        0.991716 
        1.84078         2.49001         0.98355 
        1.84692          2.4764        0.975464 
        1.85306          2.4641        0.967458 
         1.8592          2.4534        0.959554 
        1.86533         2.44138        0.951743 
        1.87147         2.43182         0.94401 
        1.87761         2.41588        0.936359 
        1.88375         2.40025        0.928802 
        1.88988         2.38888        0.921336 
        1.89601          2.3705        0.913948 
        1.90215         2.36055        0.906635 
        1.90829         2.35336        0.899405 
        1.91442         2.33856        0.892254 
        1.92056         2.33047        0.885186 
         1.9267         2.31382        0.878188 
        1.93284         2.30429        0.871261 
        1.93897         2.28822        0.864422 
        1.94509         2.26732        0.857671 
        1.95123         2.26762        0.850975 
        1.95737         2.25591        0.844345 
        1.96349         2.24246        0.837803 
        1.96964         2.22886        0.831311 
        1.97578         2.21878        0.824885 
        1.98192          2.2042         0.81854 
        1.98805         2.19587        0.812261 
        1.99419         2.18395        0.806046 
        2.00033         2.16814        0.799894 
        2.00647         2.16467        0.793808 
         2.0126         2.15363        0.787795 
        2.01874            2.14        0.781835 
        2.02488         2.13524        0.775931 
        2.03101          2.1164        0.770099 
        2.03714         2.10789        0.764332 
        2.04328         2.09978        0.758618 
        2.04941         2.08663        0.752967 
        2.05554         2.07882        0.747377 
        2.06167         2.07169        0.741836 
        2.06781         2.05908        0.736351 
        2.07396         2.04763        0.730913 
        2.08009         2.04141        0.725539 
        2.08622         2.03325        0.720225 
        2.09237         2.02333        0.714955 
        2.09851         2.00932        0.709735 
        2.10464         2.00027        0.704577 
        2.11077         1.99332        0.699476 
        2.11691         1.98152        0.694413 
        2.12305         1.97223        0.689401 
        2.12918         1.96377         0.68445 
        2.13531         1.95678        0.679547 
        2.14145         1.94547        0.674681 
         2.1476         1.93197        0.669856 
        2.15372         1.92282        0.665103 
        2.15985         1.91904        0.660391 
        2.16599         1.91032        0.655711 
        2.17213         1.90427        0.651081 
        2.17827         1.88744        0.646497 
         2.1844         1.88368        0.641961 
        2.19054         1.87463        0.637467 
        2.19666         1.86858        0.633022 
         2.2028         1.85285        0.628616 
        2.20893         1.85469        0.624249 
        2.21508         1.83917        0.619919 
        2.22122         1.82918        0.615629 
        2.22736         1.82205        0.611387 
        2.23349         1.81442        0.607187 
        2.23962         1.80815        0.603024 
        2.24577         1.79794        0.598896 
         2.2519         1.79649        0.594813 
        2.25802         1.77896        0.590774 
        2.26417         1.77522        0.586761 
        2.27031         1.76735        0.582781 
        2.27644         1.75836         0.57885 
        2.28257         1.75248        0.574956 
        2.28872          1.7432        0.571089 
        2.29486         1.73502        0.567259 
        2.30099         1.72889        0.563472 
        2.30712         1.72209        0.559718 
        2.31326         1.71715        0.555991 
         2.3194         1.70606        0.552301 
        2.32553         1.70033         0.54865 
        2.33166         1.69288        0.545033 
         2.3378         1.68835        0.541444 
        2.34394         1.67647        0.537886 
        2.35007         1.67037        0.534366 
        2.35619         1.66703         0.53088 
        2.36233          1.6577        0.527418 
        2.36848         1.65022        0.523979 
        2.37462         1.64515        0.520578 
        2.38075         1.63833        0.517211 
        2.38689         1.63125         0.51387 
        2.39303          1.6246         0.51056 
        2.39916         1.61861        0.507282 
        2.40529         1.61011        0.504033 
        2.41143         1.60595         0.50081 
        2.41757         1.60053        0.497613 
         2.4237         1.59171        0.494451 
        2.42983         1.58612        0.491316 
        2.43598         1.57946          0.4882 
        2.44211         1.57158        0.485116 
        2.44823         1.56698        0.482065 
        2.45437         1.55878        0.479032 
        2.46052         1.55466        0.476023 
        2.46665         1.54718        0.473045 
        2.47279         1.54158        0.470093 
        2.47892         1.53786        0.467164 
        2.48507         1.52895        0.464258 
         2.4912         1.52493        0.461382 
