# k  (h/Mpc)    P(k)  (Mpc/h)^3    P_linear(k)  (Mpc/h)^3
     0.00783031           10972         11155.8 
       0.013688         13670.1         13598.4 
       0.019231         13689.8         13682.5 
      0.0249154         12365.9         12595.2 
      0.0312784         10747.5         10846.1 
      0.0375637         9164.98          9159.6 
      0.0433917         7785.26         7891.91 
      0.0492413         6931.97         6960.58 
      0.0555754         6127.43          6274.2 
      0.0619321         5824.84         5797.29 
       0.067871          5314.8         5426.74 
      0.0738098         4939.84         5046.44 
      0.0800417         4458.49         4598.13 
      0.0862327         4037.15         4112.98 
      0.0921407         3644.64         3651.98 
      0.0982031         3209.59         3225.71 
       0.104506         2943.95         2866.11 
       0.110769         2680.25         2603.27 
       0.116806         2492.56         2427.92 
       0.122832         2374.69         2305.43 
       0.129052         2222.46         2204.42 
       0.135211         2123.51         2103.41 
       0.141259         2036.63         1987.53 
       0.147318         1917.61         1851.97 
       0.153489         1754.41            1702 
       0.159709          1640.3         1552.99 
       0.165845         1549.25         1421.61 
       0.171974         1443.14         1314.29 
       0.178125         1364.99         1232.42 
       0.184229         1304.31          1172.9 
        0.19034         1226.38         1127.56 
       0.196428         1207.28         1088.09 
       0.202534         1169.76         1047.01 
       0.208729         1114.51         999.551 
       0.214876         1059.73         946.189 
       0.220989         1021.26          889.55 
       0.227147         967.642         833.143 
        0.23329         923.609         781.594 
       0.239377         900.365           737.8 
       0.245482         839.204         701.916 
       0.251667         831.674         672.792 
       0.257832         800.696         648.752 
       0.263955         775.238         627.215 
       0.270079         747.456         605.754 
        0.27624         739.019         582.827 
       0.282372         708.225          558.42 
        0.28843          692.87         533.348 
       0.294538         657.732         508.271 
       0.300721         653.085         484.342 
        0.30691         623.171         462.766 
       0.313033         610.453         444.139 
       0.319153         592.804         428.016 
       0.325316         575.147         413.729 
        0.33145         559.276         400.657 
       0.337538         551.266         388.109 
       0.343633         534.435         375.487 
       0.349808         516.342         362.444 
       0.355968         511.765         349.292 
       0.362074         502.665         336.398 
       0.368217         488.389          323.95 
       0.374374         468.221         312.273 
       0.380519         465.218         301.591 
       0.386598         453.373         291.965 
       0.392688         450.612         283.114 
        0.39888         437.483          274.72 
       0.405048         428.705          266.72 
       0.411186         421.011         258.936 
       0.417313         412.991         251.263 
       0.423458         405.325         243.633 
       0.429607          397.72         236.143 
       0.435692         388.121         228.968 
       0.441815         384.899         222.062 
       0.447964         376.874         215.506 
       0.454126         366.597         209.344 
       0.460267         360.874         203.561 
       0.466387          356.71         198.099 
        0.47254         349.642         192.847 
       0.478662          348.58         187.794 
       0.484765         337.064         182.877 
       0.490885         333.645         178.059 
       0.497035          327.69         173.339 
       0.503198         322.221         168.744 
       0.509342         319.668         164.318 
       0.515458         315.807          160.09 
       0.521598         309.037         156.034 
       0.527764         304.046         152.139 
       0.533884         301.499         148.431 
           0.54         297.224         144.868 
       0.546137         295.905         141.415 
       0.552299          289.72         138.054 
       0.558452          287.64         134.789 
       0.564573         283.246         131.625 
       0.570708          278.01         128.544 
       0.576825         273.525         125.568 
       0.582926         271.028         122.698 
       0.589034         268.435         119.919 
       0.595184         265.757         117.217 
       0.601379          262.57         114.589 
       0.607522         258.098         112.072 
       0.613639         256.761         109.645 
       0.619772          251.05         107.286 
       0.625918         249.843         104.987 
       0.632068         246.108         102.748 
       0.638161         245.042          100.59 
         0.6443         241.046          98.477 
       0.650464          238.65         96.4174 
       0.656582         236.915         94.4337 
       0.662703         235.374         92.5077 
       0.668861         231.149         90.6265 
       0.675024         228.501         88.7977 
       0.681124         227.517          87.039 
       0.687237           224.6         85.3251 
       0.693381         221.213         83.6499 
       0.699536         219.476          82.017 
       0.705665         218.107         80.4347 
       0.711789         215.463         78.8954 
       0.717957         214.525         77.3853 
        0.72409         211.956         75.9229 
       0.730186          209.45         74.5072 
       0.736317         207.215           73.12 
       0.742472         206.184         71.7636 
       0.748622         204.484         70.4434 
        0.75476         202.791         69.1601 
       0.760888         200.093         67.9112 
       0.767043         199.891         66.6888 
       0.773185         197.534         65.4994 
       0.779291         193.965          64.346 
       0.785407         193.538         63.2189 
       0.791564         191.675         62.1116 
       0.797719         189.186         61.0315 
       0.803834          188.21          59.984 
       0.809972         186.938         58.9574 
       0.816124         186.687         57.9527 
       0.822261         184.188         56.9743 
       0.828378          182.53         56.0217 
       0.834502          182.23         55.0902 
       0.840667         179.463         54.1741 
       0.846816         178.106         53.2815 
       0.852925         177.417         52.4149 
       0.859047          175.54         51.5659 
       0.865192         173.971          50.733 
       0.871341         172.482         49.9181 
       0.877463         171.241         49.1248 
       0.883569         170.553          48.351 
       0.889708         168.931         47.5899 
       0.895864         166.925         46.8433 
       0.902008         166.245         46.1144 
       0.908149         165.656         45.4015 
       0.914301         163.665         44.7026 
       0.920448         162.484         44.0191 
       0.926574         161.614         43.3524 
       0.932687         161.316          42.701 
       0.938823         159.176         42.0607 
       0.944975         157.742         41.4321 
       0.951105         157.167         40.8186 
       0.957225         155.562         40.2188 
       0.963368          153.85         39.6289 
       0.969511         153.491          39.051 
       0.975621         152.508         38.4878 
       0.981748         152.052         37.9343 
       0.987916         150.342         37.3883 
        0.99406         149.186         36.8551 
        1.00019         149.049         36.3334 
        1.00632         147.551         35.8224 
        1.01246         146.692         35.3205 
        1.01859         145.823         34.8291 
        1.02471         144.472         34.3477 
        1.03085         143.131         33.8738 
        1.03698         142.602         33.4099 
        1.04314          141.33         32.9528 
        1.04929         140.427         32.5053 
        1.05541         139.939          32.068 
        1.06154         138.936         31.6377 
        1.06769         138.815         31.2147 
        1.07382         137.587         30.8008 
        1.07993         136.431         30.3954 
        1.08607         135.622         29.9957 
        1.09222         135.151         29.6028 
        1.09836         133.965         29.2174 
        1.10449         132.819         28.8394 
        1.11063         131.899         28.4676 
        1.11677         131.599         28.1026 
         1.1229         130.341         27.7446 
        1.12903         129.696         27.3926 
        1.13518         129.504         27.0464 
        1.14131         128.146         26.7064 
        1.14745         127.656         26.3724 
        1.15359         126.761         26.0441 
        1.15973         126.341         25.7213 
        1.16584         125.022         25.4054 
        1.17197         124.508         25.0943 
        1.17811         123.822         24.7876 
        1.18424         123.234         24.4869 
        1.19038         122.848         24.1903 
        1.19652         121.902         23.8988 
        1.20267         121.128          23.612 
        1.20881         120.189         23.3301 
        1.21495         119.664         23.0532 
        1.22108         119.082         22.7809 
         1.2272         118.008         22.5137 
        1.23334         117.565         22.2501 
        1.23949         116.589         21.9901 
        1.24562         116.107         21.7351 
        1.25174          115.13         21.4844 
        1.25789          114.73          21.237 
        1.26402         114.022          20.994 
        1.27014         113.402         20.7553 
        1.27628         112.866         20.5197 
        1.28244         112.316         20.2873 
        1.28858         111.913         20.0588 
        1.29471         110.719         19.8343 
        1.30084         110.432         19.6135 
        1.30697         109.651         19.3957 
        1.31312         109.298          19.181 
        1.31925         108.352         18.9702 
        1.32537         107.957         18.7627 
        1.33151         106.948         18.5576 
        1.33765         106.652         18.3558 
        1.34378         106.017         18.1573 
        1.34992         105.795         17.9616 
        1.35606         105.083         17.7684 
         1.3622           104.2         17.5784 
        1.36833         103.847         17.3917 
        1.37445         103.202         17.2077 
        1.38059         102.697         17.0259 
        1.38675         101.973         16.8462 
        1.39288         101.639         16.6699 
        1.39901         101.242         16.4962 
        1.40515         100.507         16.3245 
         1.4113         99.7938         16.1554 
        1.41742          99.631         15.9893 
        1.42355         98.8394         15.8253 
         1.4297          98.417          15.663 
        1.43585         97.6643         15.5031 
        1.44198         97.3795         15.3461 
        1.44809         96.7379         15.1915 
        1.45423         96.1936         15.0385 
        1.46036         95.9812         14.8878 
        1.46649         95.2708         14.7392 
        1.47263         94.7288         14.5925 
        1.47877         94.5284         14.4479 
        1.48491         93.6435          14.305 
        1.49104         93.4291         14.1643 
        1.49718         92.7561         14.0254 
        1.50333         92.3213         13.8882 
        1.50947         91.9099         13.7531 
         1.5156         91.3556           13.62 
        1.52172         90.8396         13.4887 
        1.52787          90.556         13.3588 
          1.534         89.9221         13.2308 
        1.54013         89.3963         13.1047 
        1.54627         89.1154         12.9799 
        1.55241         88.5066         12.8568 
        1.55855         88.2267         12.7354 
        1.56467         87.7965         12.6159 
         1.5708         87.2009         12.4977 
        1.57695         87.1087         12.3807 
        1.58308         86.1908         12.2656 
        1.58922         86.1315         12.1518 
        1.59535         85.6822         12.0395 
         1.6015         85.0704         11.9285 
        1.60764         84.7039         11.8189 
        1.61376         84.4478          11.711 
        1.61989         83.8661         11.6044 
        1.62604          83.639         11.4989 
        1.63218         83.1586         11.3947 
        1.63831         82.4367         11.2921 
        1.64444         82.2266         11.1907 
        1.65059         81.7441         11.0903 
        1.65673         81.1717         10.9912 
        1.66285          80.956         10.8937 
        1.66898         80.4966         10.7972 
        1.67512         80.0373         10.7018 
        1.68127         79.7324         10.6074 
         1.6874         79.3179         10.5144 
        1.69353         78.9003         10.4226 
        1.69967         78.3734         10.3316 
        1.70581         78.2494         10.2418 
        1.71193         77.9586         10.1533 
        1.71806         77.3334         10.0658 
        1.72421         76.9659         9.97905 
        1.73035         76.6171         9.89346 
        1.73649          76.252          9.8089 
        1.74262         75.8802         9.72539 
        1.74876         75.5437          9.6428 
        1.75489         74.9582         9.56134 
        1.76101            74.8         9.48084 
        1.76715         74.3012         9.40117 
        1.77329         74.0546         9.32231 
        1.77943         73.5186         9.24432 
        1.78557         73.3891         9.16735 
        1.79171          72.847         9.09123 
        1.79785         72.5445         9.01597 
        1.80399         72.2961         8.94158 
        1.81012         72.0205         8.86813 
        1.81625           71.47         8.79553 
        1.82239         71.2138         8.72365 
        1.82853         70.9299          8.6526 
        1.83466         70.5356         8.58241 
        1.84078         70.2468         8.51307 
        1.84692         69.7314         8.44439 
        1.85306          69.443         8.37638 
         1.8592         69.0387         8.30923 
        1.86533         68.7923         8.24286 
        1.87147         68.3114         8.17713 
        1.87761         68.1073         8.11208 
        1.88375         67.7691         8.04783 
        1.88988         67.5029         7.98433 
        1.89601         67.0862         7.92149 
        1.90215         66.7811         7.85927 
        1.90829         66.5551         7.79775 
        1.91442         66.1794         7.73689 
        1.92056           65.68         7.67673 
         1.9267         65.5609         7.61714 
        1.93284          65.132         7.55816 
        1.93897         64.7655         7.49991 
        1.94509         64.5177          7.4424 
        1.95123         64.2081         7.38535 
        1.95737         63.9894         7.32885 
        1.96349         63.4934          7.2731 
        1.96964         63.3406         7.21776 
        1.97578         63.0624         7.16297 
        1.98192         62.7303         7.10886 
        1.98805          62.556         7.05531 
        1.99419         62.0711         7.00231 
        2.00033          61.805         6.94982 
        2.00647         61.5793         6.89789 
         2.0126         61.1037         6.84657 
        2.01874          60.872          6.7957 
        2.02488         60.6911         6.74531 
        2.03101         60.3979         6.69551 
        2.03714         60.0435         6.64627 
        2.04328         59.8509         6.59746 
        2.04941         59.5144         6.54919 
        2.05554         59.2233         6.50143 
        2.06167         58.9255         6.45409 
        2.06781         58.6807         6.40721 
        2.07396         58.3489         6.36073 
        2.08009         58.1638         6.31479 
        2.08622         57.8805         6.26936 
        2.09237         57.5239         6.22429 
        2.09851         57.3906         6.17965 
        2.10464         57.0174         6.13552 
        2.11077         56.6782         6.09188 
        2.11691          56.457         6.04857 
        2.12305         56.2481         6.00567 
        2.12918         55.9771          5.9633 
        2.13531         55.6268         5.92133 
        2.14145          55.402         5.87967 
         2.1476         55.1932         5.83835 
        2.15372         54.9012         5.79765 
        2.15985         54.6148         5.75729 
        2.16599         54.3613          5.7172 
        2.17213         54.1609         5.67753 
        2.17827         53.8753         5.63825 
         2.1844         53.5696         5.59937 
        2.19054         53.2928         5.56085 
        2.19666         53.0532         5.52275 
         2.2028         52.9565         5.48497 
        2.20893         52.6959         5.44752 
        2.21508         52.4173         5.41038 
        2.22122         52.1774         5.37357 
        2.22736         51.9768         5.33719 
        2.23349          51.712         5.30115 
        2.23962          51.358         5.26542 
        2.24577         51.1143         5.22999 
         2.2519         50.8373         5.19494 
        2.25802         50.7807         5.16026 
        2.26417         50.4107          5.1258 
        2.27031         50.2576         5.09163 
        2.27644         50.0399         5.05787 
        2.28257         49.7392         5.02441 
        2.28872         49.4614          4.9912 
        2.29486         49.3257         4.95829 
        2.30099         49.1194         4.92574 
        2.30712         48.8903         4.89348 
        2.31326         48.5639         4.86144 
         2.3194         48.3286         4.82972 
        2.32553         48.0988         4.79833 
        2.33166          47.913         4.76723 
         2.3378         47.6456         4.73636 
        2.34394         47.4057         4.70576 
        2.35007         47.1447         4.67547 
        2.35619         47.0042         4.64548 
        2.36233         46.8973         4.61569 
        2.36848         46.5793          4.5861 
        2.37462         46.3608         4.55682 
        2.38075         46.1895         4.52784 
        2.38689         46.0013         4.49908 
        2.39303         45.7808         4.47057 
        2.39916         45.5678         4.44234 
        2.40529         45.3609         4.41436 
        2.41143         45.1771          4.3866 
        2.41757          44.891         4.35906 
         2.4237         44.8072         4.33181 
        2.42983         44.5398          4.3048 
        2.43598         44.3019         4.27794 
        2.44211         44.1506         4.25136 
        2.44823         43.9129         4.22507 
        2.45437         43.7307         4.19892 
        2.46052          43.415         4.17298 
        2.46665         43.2816         4.14729 
        2.47279         43.1419         4.12184 
        2.47892         42.9459         4.09658 
        2.48507          42.684         4.07151 
         2.4912         42.5815         4.04669 
