# k  (h/Mpc)    P(k)  (Mpc/h)^3    P_linear(k)  (Mpc/h)^3
     0.00783031         7092.87         7144.27 
       0.013688          9258.5          9463.1 
       0.019231         10078.2         10209.3 
      0.0249154         10047.4         10070.2 
      0.0312784         9240.19         9347.95 
      0.0375637         8295.09          8448.8 
      0.0433917         7594.94         7666.79 
      0.0492413         6892.06         7019.14 
      0.0555754          6398.4         6478.83 
      0.0619321         5824.15         6055.94 
       0.067871         5556.83         5708.39 
      0.0738098         5238.22         5359.13 
      0.0800417         4861.03         4965.84 
      0.0862327         4433.56         4551.71 
      0.0921407         4056.31         4157.61 
      0.0982031         3728.93         3783.27 
       0.104506         3364.14         3450.59 
       0.110769         3119.23         3187.17 
       0.116806         2980.76         2991.69 
       0.122832         2794.66          2838.7 
       0.129052         2668.27         2704.64 
       0.135211         2580.18         2576.83 
       0.141259         2417.64         2444.13 
       0.147318         2248.15         2300.76 
       0.153489         2128.75         2148.42 
       0.159709         2030.38         1997.77 
       0.165845         1856.11         1861.57 
       0.171974         1804.19         1744.42 
       0.178125         1732.55         1647.85 
       0.184229         1609.07         1570.47 
        0.19034         1578.76         1506.13 
       0.196428         1531.77         1448.74 
       0.202534         1442.42         1392.25 
       0.208729         1415.47         1332.44 
       0.214876         1362.31         1269.74 
       0.220989          1281.4          1205.6 
       0.227147          1252.9         1142.13 
        0.23329         1205.56            1083 
       0.239377         1185.09         1030.67 
       0.245482         1127.36         985.201 
       0.251667         1085.41         945.731 
       0.257832         1074.15         911.343 
       0.263955         1021.65          880.05 
       0.270079         993.245          849.77 
        0.27624         952.872         819.083 
       0.282372         936.657          787.93 
        0.28843         929.073         756.885 
       0.294538         883.719         726.102 
       0.300721         859.259         696.435 
        0.30691         845.364         668.958 
       0.313033         811.906         644.332 
       0.319153         799.929         622.133 
       0.325316         786.864         601.812 
        0.33145         771.839         582.975 
       0.337538         745.836         565.071 
       0.343633         725.643         547.483 
       0.349808         709.191         529.816 
       0.355968         696.832         512.349 
       0.362074          677.14         495.391 
       0.368217         672.844         478.956 
       0.374374         661.273         463.328 
       0.380519         637.028         448.733 
       0.386598         630.475         435.265 
       0.392688          618.97         422.653 
        0.39888         602.607         410.554 
       0.405048         593.984         399.024 
       0.411186          590.88         387.916 
       0.417313         584.639         377.089 
       0.423458         567.308         366.455 
       0.429607         553.975         356.085 
       0.435692         545.715         346.145 
       0.441815         537.715         336.523 
       0.447964         527.276         327.302 
       0.454126         520.892         318.517 
       0.460267         513.333         310.182 
       0.466387         506.254         302.255 
        0.47254         498.863         294.607 
       0.478662          488.03         287.256 
       0.484765         483.825         280.139 
       0.490885         479.031         273.202 
       0.497035         471.027         266.423 
       0.503198         469.806         259.828 
       0.509342         458.218         253.466 
       0.515458         452.185         247.362 
       0.521598         444.977         241.464 
       0.527764         438.685         235.764 
       0.533884          437.84         230.315 
           0.54         431.164         225.065 
       0.546137         422.552         219.969 
       0.552299         422.068         215.006 
       0.558452         415.898         210.192 
       0.564573         411.319         205.537 
       0.570708         406.834         201.006 
       0.576825         399.852         196.621 
       0.582926         396.546          192.38 
       0.589034         391.816         188.263 
       0.595184         389.512         184.249 
       0.601379         382.713         180.335 
       0.607522         377.107         176.575 
       0.613639         374.975         172.942 
       0.619772         373.185         169.404 
       0.625918         368.298         165.956 
       0.632068         362.781           162.6 
       0.638161          359.58         159.365 
         0.6443         357.582         156.195 
       0.650464         352.477         153.101 
       0.656582         349.469         150.113 
       0.662703         347.211         147.207 
       0.668861         342.128         144.362 
       0.675024         340.309         141.594 
       0.681124          336.77         138.928 
       0.687237         333.681         136.328 
       0.693381         330.981         133.784 
       0.699536         327.036         131.301 
       0.705665         323.976         128.892 
       0.711789         322.208         126.545 
       0.717957         318.179         124.241 
        0.72409         315.873         122.007 
       0.730186         316.784         119.843 
       0.736317         311.241         117.719 
       0.742472         307.404         115.641 
       0.748622         304.079         113.617 
        0.75476         304.595         111.646 
       0.760888         301.129         109.726 
       0.767043         298.157         107.844 
       0.773185         296.441         106.011 
       0.779291         292.046         104.232 
       0.785407         291.194         102.491 
       0.791564         288.158         100.779 
       0.797719         284.399         99.1073 
       0.803834         286.109         97.4848 
       0.809972           283.3         95.8933 
       0.816124          279.97         94.3344 
       0.822261         276.823         92.8149 
       0.828378         277.317         91.3339 
       0.834502         272.712         89.8846 
       0.840667         272.402         88.4578 
       0.846816         269.067         87.0664 
       0.852925          267.69         85.7141 
       0.859047         264.966         84.3881 
       0.865192         264.809         83.0862 
       0.871341         261.221         81.8112 
       0.877463         259.086          80.569 
       0.883569         258.767          79.356 
       0.889708          256.83         78.1621 
       0.895864         254.697           76.99 
       0.902008         252.646         75.8446 
       0.908149         250.417         74.7235 
       0.914301         249.768         73.6236 
       0.920448         248.084          72.547 
       0.926574         245.982         71.4961 
       0.932687         244.642         70.4684 
       0.938823         242.827         69.4575 
       0.944975           240.9         68.4643 
       0.951105         239.178         67.4944 
       0.957225         238.083         66.5451 
       0.963368         236.572         65.6111 
       0.969511         233.542         64.6953 
       0.975621         232.608          63.802 
       0.981748         230.941         62.9236 
       0.987916         229.958         62.0563 
        0.99406         228.272         61.2088 
        1.00019          226.97         60.3791 
        1.00632         226.226         59.5656 
        1.01246         224.487         58.7662 
        1.01859         222.365         57.9829 
        1.02471         220.767         57.2149 
        1.03085         219.942         56.4584 
        1.03698         218.171         55.7174 
        1.04314         217.744         54.9866 
        1.04929         216.427         54.2708 
        1.05541         214.846         53.5708 
        1.06154         213.684         52.8815 
        1.06769         211.431         52.2034 
        1.07382         211.017         51.5396 
        1.07993         209.471          50.889 
        1.08607         207.608          50.247 
        1.09222         207.004         49.6155 
        1.09836         205.539         48.9958 
        1.10449         203.749         48.3875 
        1.11063         202.757         47.7889 
        1.11677         202.046         47.2008 
         1.1229         200.343         46.6237 
        1.12903         199.894         46.0558 
        1.13518         198.488          45.497 
        1.14131          197.33         44.9479 
        1.14745          195.59         44.4082 
        1.15359         193.855         43.8774 
        1.15973         193.477         43.3551 
        1.16584          192.68         42.8437 
        1.17197         191.606           42.34 
        1.17811         189.801         41.8429 
        1.18424         188.805         41.3553 
        1.19038           187.9         40.8741 
        1.19652         186.409         40.4009 
        1.20267         185.595         39.9352 
        1.20881         184.338          39.477 
        1.21495         184.063         39.0268 
        1.22108         182.432         38.5838 
         1.2272         181.206         38.1488 
        1.23334         180.698         37.7196 
        1.23949          180.14          37.296 
        1.24562         178.499         36.8801 
        1.25174         177.034         36.4713 
        1.25789         176.646         36.0675 
        1.26402         175.846         35.6706 
        1.27014         174.752         35.2807 
        1.27628         172.813         34.8955 
        1.28244         172.541         34.5153 
        1.28858           171.4         34.1414 
        1.29471         170.411         33.7739 
        1.30084         169.488         33.4122 
        1.30697         168.916         33.0553 
        1.31312          167.74         32.7031 
        1.31925         166.307         32.3573 
        1.32537          165.97         32.0168 
        1.33151         165.068           31.68 
        1.33765         163.461         31.3483 
        1.34378         163.645         31.0221 
        1.34992         162.744         30.7003 
        1.35606         161.498         30.3825 
         1.3622         161.024         30.0697 
        1.36833         159.301         29.7621 
        1.37445         159.026          29.459 
        1.38059          157.97         29.1593 
        1.38675           157.1          28.863 
        1.39288         156.241         28.5721 
        1.39901         155.005         28.2853 
        1.40515         154.714         28.0019 
         1.4113          153.95         27.7224 
        1.41742          152.75         27.4479 
        1.42355         152.314         27.1767 
         1.4297         151.218         26.9083 
        1.43585         150.159         26.6436 
        1.44198          149.18         26.3836 
        1.44809         148.243         26.1275 
        1.45423         148.007          25.874 
        1.46036          146.94         25.6243 
        1.46649         146.002         25.3778 
        1.47263         145.694         25.1344 
        1.47877         144.451         24.8943 
        1.48491         143.598          24.657 
        1.49104         142.325         24.4234 
        1.49718         142.558         24.1926 
        1.50333         141.546         23.9644 
        1.50947         140.891         23.7397 
         1.5156         139.969         23.5182 
        1.52172         139.187         23.2996 
        1.52787         138.385         23.0833 
          1.534         138.069         22.8701 
        1.54013         137.186         22.6598 
        1.54627         136.141         22.4517 
        1.55241         135.433         22.2463 
        1.55855         134.894         22.0438 
        1.56467         133.774         21.8443 
         1.5708         133.459         21.6468 
        1.57695         132.807         21.4515 
        1.58308         132.076          21.259 
        1.58922         131.666         21.0688 
        1.59535         131.069         20.8809 
         1.6015         129.982         20.6952 
        1.60764         129.195         20.5117 
        1.61376         128.567         20.3311 
        1.61989         127.909         20.1524 
        1.62604         127.217         19.9756 
        1.63218         126.807          19.801 
        1.63831         125.744         19.6288 
        1.64444          125.16         19.4587 
        1.65059          124.41         19.2902 
        1.65673         123.809         19.1239 
        1.66285         123.354         18.9601 
        1.66898         122.348         18.7981 
        1.67512         122.078         18.6377 
        1.68127         121.253         18.4791 
         1.6874         120.632         18.3226 
        1.69353         119.819         18.1681 
        1.69967         119.657          18.015 
        1.70581         119.018         17.8638 
        1.71193         118.279         17.7148 
        1.71806         117.405         17.5673 
        1.72421         116.945         17.4212 
        1.73035         116.626         17.2769 
        1.73649         115.774         17.1343 
        1.74262         115.077         16.9934 
        1.74876         114.525          16.854 
        1.75489         113.882         16.7165 
        1.76101         113.297         16.5806 
        1.76715         112.682          16.446 
        1.77329         112.098         16.3127 
        1.77943         111.482         16.1809 
        1.78557         111.085         16.0508 
        1.79171         110.414          15.922 
        1.79785         109.735         15.7947 
        1.80399          109.28         15.6688 
        1.81012          108.61         15.5444 
        1.81625         108.274         15.4214 
        1.82239         107.895         15.2996 
        1.82853         107.086         15.1792 
        1.83466         106.338         15.0602 
        1.84078         105.964         14.9427 
        1.84692          105.66         14.8261 
        1.85306         105.035         14.7107 
         1.8592         104.604         14.5967 
        1.86533         103.874          14.484 
        1.87147          103.27         14.3724 
        1.87761         102.757         14.2619 
        1.88375         102.074         14.1527 
        1.88988         101.589         14.0447 
        1.89601         101.179         13.9379 
        1.90215         100.577          13.832 
        1.90829         99.9688         13.7274 
        1.91442          99.749         13.6238 
        1.92056         99.0302         13.5213 
         1.9267         98.6834         13.4199 
        1.93284          98.248         13.3194 
        1.93897         97.7931         13.2201 
        1.94509         97.0789         13.1221 
        1.95123         96.7451         13.0248 
        1.95737         95.9581         12.9285 
        1.96349         95.6414         12.8333 
        1.96964         95.2584         12.7389 
        1.97578          94.606         12.6454 
        1.98192         94.1879          12.553 
        1.98805         93.6316         12.4615 
        1.99419          93.111          12.371 
        2.00033          92.512         12.2813 
        2.00647         92.4055         12.1925 
         2.0126         91.8519         12.1048 
        2.01874         91.3704         12.0178 
        2.02488          91.017         11.9315 
        2.03101         90.5363         11.8463 
        2.03714          90.179          11.762 
        2.04328         89.5905         11.6785 
        2.04941         88.8729         11.5958 
        2.05554         88.7929          11.514 
        2.06167         88.2932         11.4328 
        2.06781         87.6376         11.3525 
        2.07396         87.3502         11.2728 
        2.08009         87.0163          11.194 
        2.08622         86.4838         11.1161 
        2.09237         85.9881         11.0387 
        2.09851         85.4889         10.9621 
        2.10464         85.2553         10.8863 
        2.11077         84.7436         10.8114 
        2.11691         84.4375          10.737 
        2.12305         83.9115         10.6633 
        2.12918          83.426         10.5905 
        2.13531         83.0739         10.5183 
        2.14145         82.4615         10.4467 
         2.1476         82.1816         10.3756 
        2.15372         81.8618         10.3056 
        2.15985         81.3523         10.2361 
        2.16599         80.9281         10.1671 
        2.17213         80.6445         10.0988 
        2.17827         80.0683         10.0312 
         2.1844         79.7717         9.96419 
        2.19054         79.4061         9.89781 
        2.19666         78.8213         9.83214 
         2.2028         78.7118         9.76701 
        2.20893         78.0965         9.70244 
        2.21508         77.7284         9.63839 
        2.22122         77.2324         9.57489 
        2.22736         76.9042         9.51211 
        2.23349         76.6798          9.4499 
        2.23962         76.2864         9.38823 
        2.24577          75.859         9.32705 
         2.2519         75.4815          9.2665 
        2.25802         75.1407         9.20659 
        2.26417         74.6799         9.14705 
        2.27031         74.2923         9.08798 
        2.27644         73.9994         9.02961 
        2.28257         73.7249         8.97176 
        2.28872          73.331         8.91431 
        2.29486         73.1118         8.85737 
        2.30099         72.4579         8.80105 
        2.30712          72.291          8.7452 
        2.31326         71.8867         8.68974 
         2.3194         71.5147          8.6348 
        2.32553         71.2879         8.58042 
        2.33166         70.6673         8.52654 
         2.3378         70.4393         8.47306 
        2.34394         70.1537         8.42001 
        2.35007         69.7489          8.3675 
        2.35619         69.4595          8.3155 
        2.36233         69.0133         8.26382 
        2.36848         68.7007         8.21248 
        2.37462         68.3527         8.16169 
        2.38075         68.1004         8.11137 
        2.38689         67.7518         8.06145 
        2.39303         67.5354         8.01195 
        2.39916         67.1989         7.96292 
        2.40529         66.7323         7.91431 
        2.41143         66.4864         7.86607 
        2.41757         66.0667         7.81821 
         2.4237         65.9204         7.77084 
        2.42983         65.3612         7.72387 
        2.43598         65.1201         7.67717 
        2.44211         64.8513         7.63093 
        2.44823          64.538         7.58518 
        2.45437         64.2435         7.53968 
        2.46052         63.8865         7.49452 
        2.46665         63.5348         7.44981 
        2.47279         63.3476         7.40548 
        2.47892              63         7.36148 
        2.48507         62.6234          7.3178 
         2.4912         62.3726         7.27456 
