# k  (h/Mpc)    P(k)  (Mpc/h)^3    P_linear(k)  (Mpc/h)^3
     0.00783031         14822.1         15047.3 
       0.013688         18983.2         18824.5 
       0.019231         19231.9         19215.9 
      0.0249154         17487.3         17883.3 
      0.0312784         15405.1         15606.4 
      0.0375637         13390.2         13423.8 
      0.0433917         11572.1         11821.3 
      0.0492413         10549.7           10668 
      0.0555754         9454.37         9804.11 
      0.0619321         9091.45          9133.3 
       0.067871         8229.63         8519.17 
      0.0738098         7569.77         7833.36 
      0.0800417         6729.41         7038.79 
      0.0862327         6064.06          6242.1 
      0.0921407         5513.59         5554.95 
      0.0982031         4929.48         4981.19 
       0.104506         4642.24         4543.08 
       0.110769         4321.08         4243.47 
       0.116806         4085.91         4035.17 
       0.122832         3903.12         3854.06 
       0.129052         3619.91         3652.38 
       0.135211         3413.33         3418.19 
       0.141259         3243.32         3160.56 
       0.147318         3035.92         2897.26 
       0.153489         2773.87         2650.49 
       0.159709         2623.18         2443.59 
       0.165845         2532.54         2287.19 
       0.171974         2400.75         2172.21 
       0.178125         2292.14          2083.8 
       0.184229         2199.28         2005.92 
        0.19034         2079.14         1923.95 
       0.196428         2033.77         1831.26 
       0.202534         1951.28         1727.94 
       0.208729            1858         1619.18 
       0.214876         1778.07         1516.19 
       0.220989         1717.14         1425.88 
       0.227147         1644.85         1350.63 
        0.23329         1583.19         1290.56 
       0.239377         1560.67         1241.97 
       0.245482          1465.2         1198.89 
       0.251667         1457.54         1155.96 
       0.257832         1399.88         1110.67 
       0.263955         1353.27         1062.58 
       0.270079         1306.81         1012.72 
        0.27624         1291.53         963.487 
       0.282372         1237.43         917.971 
        0.28843         1229.47         878.056 
       0.294538         1168.91         843.321 
       0.300721         1163.29         812.911 
        0.30691         1117.33         785.718 
       0.313033         1095.78         760.225 
       0.319153         1077.32         734.881 
       0.325316         1042.06         708.786 
        0.33145         1018.45         682.436 
       0.337538         1001.18         656.472 
       0.343633         978.454         631.528 
       0.349808         945.626         608.007 
       0.355968         939.451          586.63 
       0.362074         929.904         567.464 
       0.368217         901.205         549.788 
       0.374374         866.703         533.186 
       0.380519         868.202         517.177 
       0.386598         844.217         501.561 
       0.392688         841.225         486.051 
        0.39888         817.002         470.459 
       0.405048         806.059         455.368 
       0.411186         794.917         441.018 
       0.417313         778.485         427.492 
       0.423458         764.882          414.82 
       0.429607          754.96         402.952 
       0.435692         738.716         391.845 
       0.441815         733.056         381.154 
       0.447964         717.652         370.765 
       0.454126         710.011         360.582 
       0.460267         693.497         350.655 
       0.466387         685.706         341.029 
        0.47254         679.105         331.662 
       0.478662         673.836         322.706 
       0.484765         653.846         314.184 
       0.490885         649.533         306.055 
       0.497035         636.414         298.252 
       0.503198          631.87          290.75 
       0.509342         625.601         283.538 
       0.515458         621.726         276.586 
       0.521598         606.365           269.8 
       0.527764         595.187         263.162 
       0.533884         593.617         256.764 
           0.54         586.811         250.581 
       0.546137         582.668         244.599 
       0.552299         573.795         238.813 
       0.558452         570.308         233.246 
       0.564573         562.507         227.903 
       0.570708         555.948         222.732 
       0.576825         541.026         217.742 
       0.582926          543.01         212.915 
       0.589034         537.818         208.216 
       0.595184         532.747         203.613 
       0.601379         525.197         199.111 
       0.607522         517.998         194.781 
       0.613639         517.781         190.604 
       0.619772         505.932         186.551 
       0.625918          503.84         182.616 
       0.632068         496.712         178.797 
       0.638161         494.943         175.124 
         0.6443          486.11         171.527 
       0.650464         483.842         168.017 
       0.656582         480.569          164.63 
       0.662703         478.501         161.335 
       0.668861         470.224         158.113 
       0.675024         466.483         154.977 
       0.681124         463.191         151.958 
       0.687237         459.092         149.015 
       0.693381         453.154         146.138 
       0.699536         446.583         143.333 
       0.705665         445.381         140.614 
       0.711789         442.889          137.97 
       0.717957         438.767         135.376 
        0.72409         436.258         132.865 
       0.730186         430.045         130.433 
       0.736317          427.04          128.05 
       0.742472         425.033         125.717 
       0.748622         420.057         123.446 
        0.75476          414.57         121.236 
       0.760888         410.591         119.084 
       0.767043         411.165         116.976 
       0.773185         406.426         114.924 
       0.779291          401.52         112.934 
       0.785407          399.44         110.988 
       0.791564         394.579         109.076 
       0.797719         392.473         107.211 
       0.803834         388.603         105.401 
       0.809972         387.593         103.627 
       0.816124         386.451         101.891 
       0.822261         380.979           100.2 
       0.828378         378.672          98.552 
       0.834502         375.043         96.9406 
       0.840667         371.861         95.3551 
       0.846816         370.205           93.81 
       0.852925          367.32         92.3092 
       0.859047         365.649         90.8384 
       0.865192         361.234         89.3953 
       0.871341         358.359         87.9828 
       0.877463         357.603         86.6076 
       0.883569         354.654         85.2655 
       0.889708         351.699         83.9453 
       0.895864          349.57         82.6499 
       0.902008          346.94         81.3848 
       0.908149         343.636         80.1473 
       0.914301         340.787         78.9336 
       0.920448         338.902         77.7465 
       0.926574         334.261         76.5882 
       0.932687         334.654         75.4561 
       0.938823         330.903         74.3431 
       0.944975         330.762         73.2501 
       0.951105         327.069         72.1832 
       0.957225         324.921         71.1395 
       0.963368         321.057         70.1132 
       0.969511         320.052         69.1072 
       0.975621         317.652         68.1265 
       0.981748         316.606         67.1625 
       0.987916         314.515         66.2112 
        0.99406          309.49          65.282 
        1.00019         308.763         64.3727 
        1.00632          307.26         63.4816 
        1.01246         304.665         62.6062 
        1.01859         305.171         61.7488 
        1.02471         300.306         60.9087 
        1.03085         298.634         60.0814 
        1.03698         297.667         59.2713 
        1.04314         294.672         58.4729 
        1.04929         292.264         57.6911 
        1.05541         292.906          56.927 
        1.06154         287.908         56.1748 
        1.06769         287.255         55.4353 
        1.07382         285.237         54.7116 
        1.07993         283.414         54.0025 
        1.08607          282.58         53.3032 
        1.09222          279.89         52.6157 
        1.09836         278.089         51.9412 
        1.10449         275.329         51.2794 
        1.11063         272.915         50.6286 
        1.11677         272.731         49.9893 
         1.1229         270.703         49.3622 
        1.12903         268.938         48.7455 
        1.13518         266.805         48.1389 
        1.14131         265.102          47.543 
        1.14745         264.372         46.9576 
        1.15359         262.164          46.382 
        1.15973         260.375         45.8159 
        1.16584         258.447         45.2618 
        1.17197         258.357         44.7162 
        1.17811         255.163         44.1779 
        1.18424         253.497         43.6502 
        1.19038         252.742         43.1296 
        1.19652         250.608         42.6177 
        1.20267         250.052         42.1142 
        1.20881         247.899          41.619 
        1.21495         246.146         41.1326 
        1.22108         244.763          40.654 
         1.2272         243.155         40.1843 
        1.23334          241.92          39.721 
        1.23949         240.185         39.2638 
        1.24562         239.151         38.8152 
        1.25174         237.266         38.3743 
        1.25789         235.453          37.939 
        1.26402         233.663         37.5112 
        1.27014         232.327         37.0911 
        1.27628         231.126         36.6762 
        1.28244         230.829         36.2669 
        1.28858         228.295         35.8644 
        1.29471         226.725          35.469 
        1.30084         225.535         35.0799 
        1.30697         224.139         34.6961 
        1.31312         222.049         34.3176 
        1.31925         221.514         33.9459 
        1.32537         220.537         33.5801 
        1.33151         218.347         33.2185 
        1.33765         216.829         32.8624 
        1.34378         216.144         32.5123 
        1.34992         214.912          32.167 
        1.35606         214.745         31.8261 
         1.3622         212.562         31.4907 
        1.36833         210.533          31.161 
        1.37445         209.768         30.8363 
        1.38059         208.003         30.5152 
        1.38675         207.288         30.1979 
        1.39288         205.933         29.8864 
        1.39901         205.351         29.5795 
        1.40515         203.379         29.2762 
         1.4113          202.36         28.9773 
        1.41742         200.845         28.6838 
        1.42355         199.836         28.3937 
         1.4297         198.221         28.1069 
        1.43585         197.332         27.8241 
        1.44198         196.287         27.5463 
        1.44809          195.32         27.2729 
        1.45423         194.153         27.0021 
        1.46036         192.939         26.7356 
        1.46649         191.484         26.4725 
        1.47263         190.279         26.2128 
        1.47877         189.206         25.9568 
        1.48491         187.532         25.7037 
        1.49104         187.155         25.4546 
        1.49718          185.34         25.2086 
        1.50333         184.738         24.9655 
        1.50947         183.664         24.7261 
         1.5156         182.072         24.4902 
        1.52172         181.372         24.2574 
        1.52787         179.748         24.0272 
          1.534         179.421         23.8003 
        1.54013         178.011         23.5765 
        1.54627         176.954         23.3553 
        1.55241         175.865         23.1368 
        1.55855         174.768         22.9215 
        1.56467         173.517         22.7095 
         1.5708         172.996         22.4996 
        1.57695         171.915          22.292 
        1.58308         170.947         22.0876 
        1.58922         169.697         21.8856 
        1.59535         168.314         21.6862 
         1.6015         167.907          21.489 
        1.60764         166.696         21.2944 
        1.61376         165.689         21.1028 
        1.61989         164.876         20.9133 
        1.62604         163.706         20.7258 
        1.63218         162.964         20.5407 
        1.63831         161.793         20.3583 
        1.64444         161.087         20.1781 
        1.65059         159.986         19.9996 
        1.65673         158.804         19.8235 
        1.66285          158.14         19.6499 
        1.66898         156.995         19.4785 
        1.67512         156.733         19.3087 
        1.68127         155.075         19.1408 
         1.6874         154.198         18.9753 
        1.69353         153.549         18.8119 
        1.69967         152.324           18.65 
        1.70581         151.679         18.4901 
        1.71193         150.521         18.3326 
        1.71806         150.052         18.1767 
        1.72421         149.033         18.0223 
        1.73035         148.542         17.8699 
        1.73649         147.557         17.7193 
        1.74262         146.465         17.5705 
        1.74876         145.736         17.4233 
        1.75489         144.821         17.2782 
        1.76101         143.679         17.1347 
        1.76715           143.4         16.9927 
        1.77329         142.647         16.8522 
        1.77943         141.618         16.7131 
        1.78557         140.941         16.5759 
        1.79171         140.117         16.4401 
        1.79785         139.102         16.3059 
        1.80399         138.314         16.1732 
        1.81012         137.546         16.0422 
        1.81625         136.967         15.9126 
        1.82239         136.118         15.7844 
        1.82853         135.494         15.6576 
        1.83466         134.473         15.5323 
        1.84078         133.963         15.4085 
        1.84692         132.642         15.2859 
        1.85306         132.512         15.1645 
         1.8592         131.512         15.0445 
        1.86533         130.689          14.926 
        1.87147         129.754         14.8086 
        1.87761         129.183         14.6924 
        1.88375         128.161         14.5776 
        1.88988         127.544         14.4642 
        1.89601         126.989         14.3519 
        1.90215         126.176         14.2407 
        1.90829         125.569         14.1308 
        1.91442         124.873          14.022 
        1.92056         124.119         13.9144 
         1.9267         123.588         13.8079 
        1.93284         122.704         13.7024 
        1.93897         122.013         13.5982 
        1.94509          121.44         13.4954 
        1.95123         120.897         13.3933 
        1.95737         120.236         13.2923 
        1.96349         119.501         13.1925 
        1.96964         118.458         13.0935 
        1.97578         117.804         12.9954 
        1.98192         117.504         12.8986 
        1.98805         116.595         12.8027 
        1.99419         116.081         12.7078 
        2.00033         115.331         12.6139 
        2.00647         114.911         12.5209 
         2.0126         113.893          12.429 
        2.01874         113.379         12.3379 
        2.02488         113.031         12.2476 
        2.03101          111.99         12.1584 
        2.03714         111.549         12.0702 
        2.04328         110.894         11.9827 
        2.04941         110.283         11.8962 
        2.05554          109.57         11.8107 
        2.06167         109.253         11.7258 
        2.06781         108.482         11.6418 
        2.07396         107.778         11.5584 
        2.08009         107.335         11.4761 
        2.08622         106.614         11.3946 
        2.09237         106.032         11.3138 
        2.09851         105.466         11.2337 
        2.10464         105.038         11.1546 
        2.11077         104.471         11.0763 
        2.11691         103.957         10.9986 
        2.12305         103.064         10.9216 
        2.12918         102.522         10.8456 
        2.13531         102.068         10.7702 
        2.14145         101.334         10.6955 
         2.1476         100.651         10.6213 
        2.15372         100.358         10.5482 
        2.15985         99.9233         10.4758 
        2.16599         99.1714         10.4038 
        2.17213          98.647         10.3326 
        2.17827         98.2022          10.262 
         2.1844         97.4266         10.1922 
        2.19054         97.1125          10.123 
        2.19666          96.668         10.0546 
         2.2028         95.9523          9.9867 
        2.20893         95.5787         9.91942 
        2.21508         94.9739         9.85268 
        2.22122         94.4501         9.78654 
        2.22736         94.0145         9.72115 
        2.23349         93.5292         9.65636 
        2.23962          92.936         9.59214 
        2.24577         92.5089         9.52845 
         2.2519         92.1811         9.46543 
        2.25802         91.2734         9.40307 
        2.26417         90.9795         9.34111 
        2.27031          90.453         9.27965 
        2.27644         89.9584         9.21892 
        2.28257         89.3721         9.15875 
        2.28872         89.1107         9.09899 
        2.29486         88.4276         9.03979 
        2.30099         88.0587         8.98123 
        2.30712         87.6523         8.92317 
        2.31326         87.0449         8.86552 
         2.3194         86.5285         8.80842 
        2.32553         86.2304         8.75192 
        2.33166         85.6959         8.69594 
         2.3378         85.2576         8.64037 
        2.34394         84.8379         8.58528 
        2.35007         84.3506         8.53074 
        2.35619         83.9949         8.47675 
        2.36233         83.4221         8.42309 
        2.36848         82.9079         8.36979 
        2.37462         82.5395         8.31706 
        2.38075         82.1022         8.26484 
        2.38689         81.6864         8.21303 
        2.39303         81.0448         8.16167 
        2.39916         80.8281          8.1108 
        2.40529         80.4616         8.06037 
        2.41143         79.8564         8.01034 
        2.41757         79.5755         7.96071 
         2.4237         79.1415         7.91159 
        2.42983         78.6058         7.86289 
        2.43598         78.1861         7.81447 
        2.44211          78.044         7.76654 
        2.44823         77.4843         7.71913 
        2.45437         76.8231         7.67198 
        2.46052         76.5067         7.62518 
        2.46665         76.2639         7.57886 
        2.47279         75.7323         7.53294 
        2.47892           75.45         7.48737 
        2.48507         74.9851         7.44214 
         2.4912         74.6998         7.39737 
