# k  (h/Mpc)    P(k)  (Mpc/h)^3    P_linear(k)  (Mpc/h)^3
     0.00783031         5663.13         5710.25 
       0.013688          6808.3         6937.94 
       0.019231         6902.24         6970.71 
      0.0249154         6426.17         6415.53 
      0.0312784         5515.93          5539.5 
      0.0375637         4669.84         4710.17 
      0.0433917         4095.95         4096.89 
      0.0492413          3630.3         3650.26 
      0.0555754         3320.18         3316.35 
      0.0619321         3009.51         3069.12 
       0.067871         2835.73         2859.35 
      0.0738098         2624.72         2635.22 
      0.0800417         2376.27         2376.01 
      0.0862327          2103.4         2109.49 
      0.0921407         1872.01         1870.83 
      0.0982031         1682.35          1662.8 
       0.104506         1498.64         1496.78 
       0.110769         1387.65            1380 
       0.116806         1325.84         1301.12 
       0.122832          1249.4         1239.76 
       0.129052         1191.82         1179.24 
       0.135211         1137.37         1111.82 
       0.141259         1051.69         1035.68 
       0.147318         961.956         953.311 
       0.153489         889.798         870.682 
       0.159709           831.1         796.345 
       0.165845         756.603         736.485 
       0.171974         731.641         690.907 
       0.178125         698.586         656.956 
       0.184229         657.093         630.519 
        0.19034         641.188         606.476 
       0.196428         617.463         581.167 
       0.202534         575.892         552.604 
       0.208729         558.105         520.695 
       0.214876         530.577         488.038 
       0.220989         491.405         457.033 
       0.227147         475.906         429.334 
        0.23329         455.175         406.257 
       0.239377         442.861         387.773 
       0.245482          421.01         372.619 
       0.251667         404.036         359.226 
       0.257832         398.831         346.391 
       0.263955         376.778         333.154 
       0.270079         362.202          319.05 
        0.27624           345.8         304.276 
       0.282372         335.003         289.618 
        0.28843           330.5         275.902 
       0.294538         313.582         263.394 
       0.300721         301.195          252.32 
        0.30691         295.933         242.741 
       0.313033         283.019         234.376 
       0.319153         277.996         226.676 
       0.325316         269.669         219.147 
        0.33145         261.975         211.617 
       0.337538         252.802         204.014 
       0.343633         244.682         196.376 
       0.349808         237.233         188.803 
       0.355968         231.331         181.621 
       0.362074         225.405         175.037 
       0.368217         221.196         168.986 
       0.374374         215.717         163.474 
       0.380519         206.703         158.394 
       0.386598         202.875         153.647 
       0.392688          197.24          149.05 
        0.39888         193.116         144.442 
       0.405048         188.864         139.906 
       0.411186         186.108         135.468 
       0.417313         181.673         131.161 
       0.423458         176.872         127.031 
       0.429607         172.869         123.129 
       0.435692         169.841         119.501 
       0.441815         165.508         116.077 
       0.447964          160.62         112.828 
       0.454126         157.785         109.714 
       0.460267         156.181         106.716 
       0.466387         152.596          103.81 
        0.47254         150.741         100.953 
       0.478662         145.687         98.1819 
       0.484765         143.657         95.5066 
       0.490885         140.794         92.9258 
       0.497035         139.436         90.4404 
       0.503198         136.714         88.0619 
       0.509342         133.119         85.8011 
       0.515458         131.405         83.6467 
       0.521598          128.17         81.5639 
       0.527764          126.83         79.5389 
       0.533884         125.997         77.5891 
           0.54         122.595         75.6974 
       0.546137         119.757         73.8528 
       0.552299         118.118         72.0555 
       0.558452         115.964         70.3197 
       0.564573         115.394         68.6538 
       0.570708         112.177         67.0463 
       0.576825         110.916         65.5016 
       0.582926         109.666         64.0135 
       0.589034         107.804         62.5713 
       0.595184         106.559         61.1637 
       0.601379         104.067         59.7888 
       0.607522         102.304         58.4655 
       0.613639         101.432         57.1855 
       0.619772         99.7471         55.9387 
       0.625918         98.8567         54.7256 
       0.632068         96.9354         53.5482 
       0.638161         95.4764         52.4175 
         0.6443          94.921         51.3137 
       0.650464         92.9186         50.2397 
       0.656582         92.5368         49.2052 
       0.662703         91.2981         48.1999 
       0.668861         89.2943         47.2166 
       0.675024           89.22         46.2588 
       0.681124         87.7529         45.3366 
       0.687237         86.1426         44.4374 
       0.693381         85.5453         43.5584 
       0.699536         84.4994         42.7019 
       0.705665         83.2779         41.8728 
       0.711789         82.1449         41.0671 
       0.717957         81.1285         40.2775 
        0.72409         80.4308         39.5132 
       0.730186         79.9401         38.7736 
       0.736317          78.506         38.0489 
       0.742472         77.5143         37.3399 
       0.748622         76.3599         36.6496 
        0.75476         75.9095         35.9782 
       0.760888         75.5099         35.3246 
       0.767043         73.9845         34.6848 
       0.773185          73.105         34.0623 
       0.779291         72.2908         33.4588 
       0.785407         71.4205         32.8692 
       0.791564         71.3273         32.2902 
       0.797719         70.2665         31.7255 
       0.803834         69.7005         31.1781 
       0.809972         69.0805         30.6416 
       0.816124         68.2432         30.1167 
       0.822261         67.3387         29.6055 
       0.828378         67.1552         29.1078 
       0.834502         66.1902          28.621 
       0.840667         65.7384         28.1423 
       0.846816         65.0326          27.676 
       0.852925         64.3285         27.2231 
       0.859047         64.1539         26.7795 
       0.865192          63.117         26.3444 
       0.871341         62.4181         25.9187 
       0.877463         61.9773         25.5043 
       0.883569         61.8092         25.1002 
       0.889708         61.1529         24.7027 
       0.895864         60.6243         24.3129 
       0.902008         59.9942         23.9323 
       0.908149         59.3195         23.5602 
       0.914301         59.0006         23.1954 
       0.920448           58.76         22.8387 
       0.926574         57.6224         22.4907 
       0.932687         57.3622         22.1508 
       0.938823         56.8523         21.8167 
       0.944975         56.1972         21.4888 
       0.951105         55.7905         21.1688 
       0.957225         55.5619         20.8559 
       0.963368         55.0196         20.5483 
       0.969511         54.5384         20.2469 
       0.975621         54.1334         19.9531 
       0.981748         53.5886         19.6645 
       0.987916         53.1986         19.3798 
        0.99406          52.844         19.1018 
        1.00019         52.2861         18.8298 
        1.00632         51.9237         18.5634 
        1.01246         51.5414         18.3018 
        1.01859         51.2676         18.0456 
        1.02471         50.6839         17.7947 
        1.03085         50.4005         17.5477 
        1.03698         50.0876         17.3059 
        1.04314          49.693         17.0676 
        1.04929         49.1936         16.8345 
        1.05541         49.0001         16.6066 
        1.06154         48.6779         16.3823 
        1.06769         48.0475         16.1619 
        1.07382         47.7911         15.9463 
        1.07993         47.5422         15.7351 
        1.08607          47.158         15.5268 
        1.09222         46.9467         15.3221 
        1.09836         46.5291         15.1214 
        1.10449         46.2909         14.9245 
        1.11063         45.8551         14.7309 
        1.11677         45.7601         14.5408 
         1.1229         45.2684         14.3544 
        1.12903         45.0637         14.1711 
        1.13518         44.9441         13.9909 
        1.14131         44.4437         13.8139 
        1.14745         44.0671         13.6401 
        1.15359         43.6384         13.4692 
        1.15973         43.5969         13.3012 
        1.16584         43.2615         13.1368 
        1.17197         42.7512          12.975 
        1.17811         42.6141         12.8154 
        1.18424         42.0391          12.659 
        1.19038         41.9796         12.5047 
        1.19652         41.7796          12.353 
        1.20267         41.5113         12.2039 
        1.20881         41.2061         12.0573 
        1.21495         41.0595         11.9133 
        1.22108         40.9111         11.7717 
         1.2272          40.508         11.6327 
        1.23334         40.2783         11.4957 
        1.23949         40.0261         11.3605 
        1.24562         39.7242         11.2279 
        1.25174          39.483         11.0976 
        1.25789         39.4264          10.969 
        1.26402         39.1048         10.8427 
        1.27014         38.9358         10.7186 
        1.27628         38.5292         10.5962 
        1.28244          38.498         10.4754 
        1.28858         38.1642         10.3566 
        1.29471         37.9314           10.24 
        1.30084         37.6461         10.1252 
        1.30697         37.5948         10.0121 
        1.31312         37.2472          9.9005 
        1.31925         36.9513         9.79096 
        1.32537         36.7862         9.68319 
        1.33151         36.5455         9.57665 
        1.33765         36.4461         9.47178 
        1.34378         36.2844         9.36869 
        1.34992         35.9863         9.26706 
        1.35606         35.7562         9.16672 
         1.3622         35.5827         9.06805 
        1.36833         35.4366         8.97107 
        1.37445         35.1144         8.87555 
        1.38059         35.0174         8.78113 
        1.38675         34.6966         8.68787 
        1.39288         34.6306         8.59632 
        1.39901         34.3785         8.50615 
        1.40515         34.2355         8.41706 
         1.4113         34.1995         8.32928 
        1.41742         33.9531         8.24309 
        1.42355         33.6474         8.15796 
         1.4297         33.5149         8.07378 
        1.43585         33.3028         7.99081 
        1.44198         33.1315         7.90933 
        1.44809         32.9319         7.82914 
        1.45423         32.8301         7.74977 
        1.46036          32.691         7.67164 
        1.46649         32.4861         7.59456 
        1.47263         32.2707         7.51848 
        1.47877         32.1362         7.44348 
        1.48491         32.0133         7.36937 
        1.49104         31.7566         7.29644 
        1.49718         31.7014         7.22443 
        1.50333         31.5612         7.15328 
        1.50947         31.3246         7.08324 
         1.5156         31.1933         7.01423 
        1.52172         30.9715         6.94614 
        1.52787         30.8832         6.87882 
          1.534         30.6758         6.81247 
        1.54013         30.6602         6.74706 
        1.54627         30.3615         6.68239 
        1.55241         30.2291         6.61856 
        1.55855          30.146         6.55565 
        1.56467         29.9901         6.49374 
         1.5708         29.8412         6.43245 
        1.57695         29.7198         6.37185 
        1.58308         29.4488         6.31218 
        1.58922         29.3263         6.25323 
        1.59535         29.2333         6.19505 
         1.6015         29.1603         6.13753 
        1.60764         28.9605         6.08077 
        1.61376         28.8094         6.02488 
        1.61989         28.5992         5.96965 
        1.62604         28.5049         5.91499 
        1.63218         28.3851         5.86105 
        1.63831          28.277          5.8079 
        1.64444         28.1248         5.75539 
        1.65059         27.9905         5.70341 
        1.65673         27.8784         5.65212 
        1.66285         27.7944         5.60161 
        1.66898         27.5857          5.5517 
        1.67512         27.5398          5.5023 
        1.68127         27.3766         5.45345 
         1.6874         27.2318         5.40531 
        1.69353         27.1515         5.35777 
        1.69967         27.0224          5.3107 
        1.70581         26.8294         5.26421 
        1.71193         26.7027         5.21845 
        1.71806         26.6394         5.17313 
        1.72421         26.5338         5.12827 
        1.73035         26.3722         5.08398 
        1.73649         26.2105         5.04023 
        1.74262         26.0732         4.99703 
        1.74876         26.0284          4.9543 
        1.75489         25.8801         4.91216 
        1.76101         25.7821         4.87052 
        1.76715         25.6948         4.82931 
        1.77329         25.4924         4.78852 
        1.77943         25.4475         4.74819 
        1.78557         25.3462         4.70838 
        1.79171         25.2286         4.66901 
        1.79785         25.1116         4.63009 
        1.80399         24.9831         4.59162 
        1.81012         24.9286         4.55364 
        1.81625         24.7272          4.5161 
        1.82239         24.6447         4.47894 
        1.82853         24.5407          4.4422 
        1.83466         24.4253         4.40592 
        1.84078         24.3064         4.37007 
        1.84692          24.251         4.33457 
        1.85306         24.0889         4.29942 
         1.8592           24.06         4.26471 
        1.86533         23.8909          4.2304 
        1.87147         23.7751         4.19643 
        1.87761         23.6782         4.16282 
        1.88375         23.6438         4.12962 
        1.88988         23.4899         4.09681 
        1.89601         23.3736         4.06434 
        1.90215         23.2772          4.0322 
        1.90829         23.2303         4.00042 
        1.91442         23.0464         3.96897 
        1.92056         23.0009          3.9379 
         1.9267         22.9046         3.90712 
        1.93284         22.8542         3.87666 
        1.93897         22.7404         3.84658 
        1.94509         22.6384         3.81688 
        1.95123         22.5255         3.78741 
        1.95737         22.4255         3.75824 
        1.96349         22.3399         3.72945 
        1.96964         22.3393         3.70088 
        1.97578         22.1223         3.67259 
        1.98192         22.0672         3.64466 
        1.98805         21.8922         3.61701 
        1.99419         21.8951         3.58965 
        2.00033         21.7667         3.56255 
        2.00647         21.7163         3.53575 
         2.0126         21.5845         3.50926 
        2.01874         21.5036           3.483 
        2.02488         21.3769         3.45699 
        2.03101         21.2866         3.43129 
        2.03714         21.2286         3.40588 
        2.04328         21.1506         3.38069 
        2.04941         21.0496         3.35578 
        2.05554         20.9969         3.33114 
        2.06167          20.894         3.30671 
        2.06781         20.8294         3.28252 
        2.07396         20.7617         3.25854 
        2.08009         20.6259         3.23484 
        2.08622         20.5663          3.2114 
        2.09237         20.5278         3.18815 
        2.09851         20.3734         3.16512 
        2.10464         20.2678         3.14236 
        2.11077         20.2531         3.11985 
        2.11691         20.1406         3.09751 
        2.12305         20.0824         3.07539 
        2.12918         20.0075         3.05353 
        2.13531         19.9284         3.03189 
        2.14145         19.8116         3.01041 
         2.1476          19.701          2.9891 
        2.15372         19.6775         2.96811 
        2.15985         19.5967          2.9473 
        2.16599         19.4992         2.92663 
        2.17213         19.4534         2.90618 
        2.17827         19.3296         2.88593 
         2.1844         19.2731         2.86589 
        2.19054         19.2545         2.84604 
        2.19666         19.1253          2.8264 
         2.2028         19.1052         2.80692 
        2.20893         18.9584         2.78762 
        2.21508         18.8955         2.76848 
        2.22122         18.7979         2.74952 
        2.22736         18.8052         2.73077 
        2.23349         18.6613         2.71219 
        2.23962         18.6284         2.69379 
        2.24577         18.5452         2.67553 
         2.2519         18.4812         2.65747 
        2.25802         18.3505         2.63961 
        2.26417         18.3237         2.62186 
        2.27031         18.2597         2.60425 
        2.27644         18.2184         2.58686 
        2.28257          18.109         2.56963 
        2.28872         18.1041         2.55252 
        2.29486         18.0013         2.53557 
        2.30099         17.8949         2.51881 
        2.30712         17.8542         2.50219 
        2.31326         17.7635          2.4857 
         2.3194         17.6938         2.46936 
        2.32553         17.6594         2.45319 
        2.33166         17.5412         2.43718 
         2.3378         17.5215         2.42129 
        2.34394          17.411         2.40553 
        2.35007         17.3752         2.38994 
        2.35619         17.3343          2.3745 
        2.36233          17.219         2.35916 
        2.36848         17.1534         2.34393 
        2.37462         17.0982         2.32886 
        2.38075         17.0548         2.31394 
        2.38689         16.9673         2.29914 
        2.39303         16.9083         2.28446 
        2.39916         16.8188         2.26993 
        2.40529         16.7882         2.25553 
        2.41143         16.7061         2.24125 
        2.41757          16.625         2.22708 
         2.4237         16.5769         2.21305 
        2.42983         16.5357         2.19915 
        2.43598          16.452         2.18534 
        2.44211         16.3976         2.17166 
        2.44823         16.3438         2.15813 
        2.45437         16.3082         2.14468 
        2.46052         16.2041         2.13133 
        2.46665         16.1996         2.11812 
        2.47279         16.0799         2.10503 
        2.47892         16.0257         2.09203 
        2.48507         15.9759         2.07914 
         2.4912         15.9088         2.06637 
