# k  (h/Mpc)    P(k)  (Mpc/h)^3    P_linear(k)  (Mpc/h)^3
     0.00783031         17297.9         17418.9 
       0.013688         21065.1           21709 
       0.019231         21691.1         22097.4 
      0.0249154         20453.8         20455.8 
      0.0312784         17432.9         17675.3 
      0.0375637         14676.5         15003.3 
      0.0433917         12918.2         13040.8 
      0.0492413         11438.7         11643.7 
      0.0555754         10520.3         10638.4 
      0.0619321         9484.34         9918.81 
       0.067871         9019.13         9299.39 
      0.0738098         8433.37         8605.01 
      0.0800417         7636.87         7766.53 
      0.0862327         6764.57         6882.72 
      0.0921407         6056.47         6085.43 
      0.0982031         5486.99          5395.1 
       0.104506         4889.34         4856.13 
       0.110769         4558.72          4492.4 
       0.116806         4387.51         4260.26 
       0.122832         4158.44         4086.07 
       0.129052         3942.69         3908.49 
       0.135211         3824.22         3696.13 
       0.141259         3523.32         3443.12 
       0.147318         3246.96         3162.05 
       0.153489          3033.6         2878.16 
       0.159709         2897.36         2625.25 
       0.165845         2648.59         2426.81 
       0.171974         2578.36         2282.13 
       0.178125         2504.36         2180.41 
       0.184229         2317.41         2104.63 
        0.19034         2291.92         2034.51 
       0.196428         2227.86         1955.47 
       0.202534         2094.18          1860.3 
       0.208729         2046.13         1749.81 
       0.214876         1947.84         1635.13 
       0.220989         1851.39         1526.84 
       0.227147          1797.2         1432.21 
        0.23329         1725.87         1356.32 
       0.239377         1718.95         1298.43 
       0.245482         1641.15         1253.03 
       0.251667         1582.97         1213.43 
       0.257832         1557.25         1174.05 
       0.263955         1489.11         1130.92 
       0.270079         1451.37         1082.74 
        0.27624          1391.1         1030.75 
       0.282372          1375.3         978.856 
        0.28843         1347.47         930.826 
       0.294538         1288.73         888.126 
       0.300721         1266.15         851.718 
        0.30691         1233.36         821.361 
       0.313033         1188.78         795.578 
       0.319153         1177.74         771.722 
       0.325316          1162.1         747.722 
        0.33145         1136.19         722.651 
       0.337538          1100.2         696.504 
       0.343633         1075.98         669.678 
       0.349808         1057.21         642.993 
       0.355968         1035.78         618.005 
       0.362074         1005.34         595.526 
       0.368217         1002.25         575.515 
       0.374374          986.91          557.66 
       0.380519          953.33          541.45 
       0.386598         948.975         526.235 
       0.392688         924.459         511.149 
        0.39888         907.409         495.696 
       0.405048         888.865         480.098 
       0.411186         886.871         464.623 
       0.417313         881.099         449.619 
       0.423458         855.598         435.325 
       0.429607         833.653         421.998 
       0.435692         826.646         409.875 
       0.441815         810.725         398.564 
       0.447964         802.123         387.885 
       0.454126         791.601         377.643 
       0.460267         782.455         367.675 
       0.466387         768.277         357.822 
        0.47254          757.22         348.028 
       0.478662         746.467         338.472 
       0.484765         738.343         329.217 
       0.490885         731.194         320.304 
       0.497035          717.19         311.809 
       0.503198         716.436         303.787 
       0.509342         703.202         296.199 
       0.515458         689.533         288.975 
       0.521598         689.137         281.986 
       0.527764          672.93         275.172 
       0.533884          665.65         268.561 
           0.54         661.599         262.074 
       0.546137         652.301         255.715 
       0.552299         648.032         249.521 
       0.558452         640.207         243.566 
       0.564573         637.216         237.876 
       0.570708         629.554         232.393 
       0.576825         617.264         227.135 
       0.582926         615.934         222.083 
       0.589034         607.422         217.194 
       0.595184         601.263          212.42 
       0.601379          592.37         207.737 
       0.607522         583.664           203.2 
       0.613639         583.041         198.793 
       0.619772         578.653         194.497 
       0.625918         569.735         190.323 
       0.632068         567.414         186.287 
       0.638161         560.199         182.423 
         0.6443         553.908         178.654 
       0.650464         550.045         174.983 
       0.656582           545.7         171.443 
       0.662703         539.851         167.995 
       0.668861          533.41         164.617 
       0.675024         531.176         161.327 
       0.681124         520.446         158.158 
       0.687237         521.095         155.069 
       0.693381         512.736         152.049 
       0.699536          513.84         149.106 
       0.705665         505.735         146.256 
       0.711789         504.761         143.484 
       0.717957         498.445         140.766 
        0.72409         494.331         138.134 
       0.730186         493.555         135.586 
       0.736317         486.598         133.089 
       0.742472         481.445         130.646 
       0.748622         480.641         128.267 
        0.75476          474.01         125.953 
       0.760888         472.314         123.701 
       0.767043          469.41         121.495 
       0.773185         465.442         119.348 
       0.779291         461.006         117.266 
       0.785407         457.483          115.23 
       0.791564         455.548         113.231 
       0.797719         448.383         111.281 
       0.803834           449.4         109.389 
       0.809972         442.533         107.534 
       0.816124         439.735         105.719 
       0.822261         437.165          103.95 
       0.828378         435.247         102.228 
       0.834502          428.49         100.543 
       0.840667         427.567         98.8863 
       0.846816         423.332         97.2715 
       0.852925         423.511         95.7033 
       0.859047         418.477         94.1668 
       0.865192          416.33         92.6594 
       0.871341         411.665         91.1843 
       0.877463         410.885         89.7483 
       0.883569          407.17         88.3472 
       0.889708         402.865         86.9691 
       0.895864         398.637         85.6172 
       0.902008          398.19          84.297 
       0.908149         394.238         83.0057 
       0.914301         393.198         81.7396 
       0.920448         388.419         80.5011 
       0.926574         386.542         79.2929 
       0.932687         385.669         78.1122 
       0.938823         381.258         76.9514 
       0.944975         380.377         75.8117 
       0.951105         377.307         74.6994 
       0.957225         372.544         73.6114 
       0.963368         372.984         72.5415 
       0.969511         367.989         71.4929 
       0.975621         365.641         70.4709 
       0.981748         364.554         69.4663 
       0.987916         362.247         68.4751 
        0.99406         358.701          67.507 
        1.00019         355.247         66.5597 
        1.00632         354.768         65.6316 
        1.01246         351.751         64.7198 
        1.01859         348.997          63.827 
        1.02471         347.223         62.9522 
        1.03085         345.573         62.0909 
        1.03698         343.544         61.2477 
        1.04314         341.336         60.4166 
        1.04929         339.831         59.6029 
        1.05541         336.353         58.8076 
        1.06154         334.094         58.0249 
        1.06769          331.62         57.2554 
        1.07382         329.039         56.5025 
        1.07993         328.678         55.7649 
        1.08607         326.666         55.0375 
        1.09222         323.699         54.3224 
        1.09836         322.121          53.621 
        1.10449         319.887         52.9328 
        1.11063         318.611          52.256 
        1.11677          315.07         51.5914 
         1.1229         314.343         50.9395 
        1.12903         311.579         50.2985 
        1.13518         309.923         49.6679 
        1.14131         308.235         49.0486 
        1.14745         305.612         48.4403 
        1.15359         303.256         47.8422 
        1.15973         301.839         47.2541 
        1.16584         300.329         46.6785 
        1.17197         298.471         46.1117 
        1.17811         295.337         45.5526 
        1.18424          294.55         45.0045 
        1.19038         293.041         44.4639 
        1.19652         290.057         43.9323 
        1.20267         289.097         43.4095 
        1.20881         287.615         42.8953 
        1.21495         285.362         42.3903 
        1.22108         284.105         41.8936 
         1.2272         280.636          41.406 
        1.23334         279.567         40.9251 
        1.23949         278.026         40.4507 
        1.24562          276.77         39.9851 
        1.25174         275.396         39.5277 
        1.25789         272.738          39.076 
        1.26402         271.873         38.6322 
        1.27014         270.416         38.1965 
        1.27628         268.572         37.7661 
        1.28244         266.066         37.3416 
        1.28858         265.464         36.9243 
        1.29471         263.756         36.5142 
        1.30084         263.261         36.1108 
        1.30697         260.247         35.7129 
        1.31312         259.007         35.3205 
        1.31925         257.734         34.9352 
        1.32537         256.789         34.5561 
        1.33151         254.111         34.1812 
        1.33765         252.523         33.8122 
        1.34378         251.919         33.4494 
        1.34992         249.272         33.0916 
        1.35606         248.105         32.7384 
         1.3622         246.156         32.3909 
        1.36833         246.108         32.0494 
        1.37445         244.784          31.713 
        1.38059         241.787         31.3803 
        1.38675         240.566         31.0517 
        1.39288         240.026         30.7291 
        1.39901         237.764         30.4113 
        1.40515         236.706         30.0972 
         1.4113          235.21         29.7877 
        1.41742         233.596         29.4838 
        1.42355         232.453         29.1835 
         1.4297          231.06         28.8866 
        1.43585         229.768         28.5939 
        1.44198         228.313         28.3064 
        1.44809         227.259         28.0234 
        1.45423         226.007         27.7432 
        1.46036         225.217         27.4674 
        1.46649          223.32         27.1953 
        1.47263         221.855         26.9266 
        1.47877         220.701         26.6617 
        1.48491          219.11         26.3999 
        1.49104         217.192         26.1422 
        1.49718         216.748         25.8878 
        1.50333         215.109         25.6364 
        1.50947         213.865         25.3888 
         1.5156         212.837         25.1448 
        1.52172         211.482         24.9041 
        1.52787         210.223         24.6661 
          1.534         209.696         24.4315 
        1.54013         207.863         24.2001 
        1.54627          206.95         23.9714 
        1.55241         205.976         23.7456 
        1.55855         204.541          23.523 
        1.56467         203.486         23.3039 
         1.5708         201.943          23.087 
        1.57695         201.346         22.8725 
        1.58308         200.188         22.6613 
        1.58922          198.52         22.4525 
        1.59535         197.261         22.2465 
         1.6015         196.532         22.0428 
        1.60764         195.039         21.8418 
        1.61376         193.897         21.6438 
        1.61989         192.762         21.4481 
        1.62604         191.969         21.2544 
        1.63218         190.473         21.0632 
        1.63831           189.9         20.8749 
        1.64444         188.393         20.6887 
        1.65059         187.448         20.5044 
        1.65673         186.352         20.3226 
        1.66285         185.247         20.1435 
        1.66898         184.323         19.9664 
        1.67512         183.194         19.7912 
        1.68127         182.214         19.6179 
         1.6874          181.11         19.4471 
        1.69353         180.544         19.2784 
        1.69967         178.963         19.1113 
        1.70581         178.389         18.9463 
        1.71193          177.16         18.7839 
        1.71806         175.881          18.623 
        1.72421         175.124         18.4637 
        1.73035         174.014         18.3064 
        1.73649         172.769          18.151 
        1.74262         172.017         17.9976 
        1.74876         171.143         17.8458 
        1.75489         170.626          17.696 
        1.76101         169.442         17.5481 
        1.76715         168.366         17.4016 
        1.77329         167.259         17.2566 
        1.77943         166.222         17.1133 
        1.78557         165.208         16.9717 
        1.79171         164.616         16.8318 
        1.79785         163.339         16.6934 
        1.80399          162.66         16.5566 
        1.81012         162.187         16.4215 
        1.81625         160.432          16.288 
        1.82239         160.274         16.1557 
        1.82853         159.065          16.025 
        1.83466         157.861         15.8959 
        1.84078         157.345         15.7683 
        1.84692           156.6          15.642 
        1.85306         155.469         15.5168 
         1.8592         154.858         15.3933 
        1.86533          153.53         15.2711 
        1.87147         152.673         15.1502 
        1.87761         152.055         15.0304 
        1.88375         150.957         14.9122 
        1.88988         150.365         14.7953 
        1.89601          149.62         14.6796 
        1.90215         148.939         14.5651 
        1.90829         147.571         14.4519 
        1.91442         146.903         14.3398 
        1.92056         146.367         14.2291 
         1.9267         145.315         14.1194 
        1.93284         144.137         14.0107 
        1.93897         144.005         13.9035 
        1.94509         142.909         13.7976 
        1.95123           142.2         13.6925 
        1.95737         141.756         13.5885 
        1.96349         140.614         13.4858 
        1.96964         139.734         13.3839 
        1.97578         139.046         13.2829 
        1.98192          138.52         13.1833 
        1.98805         137.613         13.0846 
        1.99419         136.696         12.9869 
        2.00033         136.039         12.8902 
        2.00647         135.165         12.7946 
         2.0126         134.451            12.7 
        2.01874         133.679         12.6062 
        2.02488         133.078         12.5134 
        2.03101         132.522         12.4216 
        2.03714         131.867         12.3308 
        2.04328         130.861         12.2409 
        2.04941         130.301         12.1519 
        2.05554         129.643         12.0639 
        2.06167         128.902         11.9766 
        2.06781         128.298         11.8901 
        2.07396         127.363         11.8044 
        2.08009         126.888         11.7197 
        2.08622         126.166          11.636 
        2.09237         125.217         11.5528 
        2.09851         124.812         11.4705 
        2.10464         124.207         11.3891 
        2.11077         123.545         11.3087 
        2.11691         122.771         11.2288 
        2.12305         122.001         11.1496 
        2.12918         121.566         11.0715 
        2.13531         120.654          10.994 
        2.14145         120.225         10.9172 
         2.1476         119.458          10.841 
        2.15372         118.741         10.7658 
        2.15985          118.19         10.6914 
        2.16599         117.377         10.6174 
        2.17213         116.916         10.5442 
        2.17827         116.352         10.4717 
         2.1844           115.6            10.4 
        2.19054         115.147         10.3289 
        2.19666         114.311         10.2585 
         2.2028         113.872         10.1888 
        2.20893         113.327         10.1197 
        2.21508         112.459         10.0511 
        2.22122         111.719         9.98318 
        2.22736         111.682         9.91601 
        2.23349         111.077         9.84947 
        2.23962         110.269         9.78351 
        2.24577         109.469         9.71809 
         2.2519         108.902         9.65337 
        2.25802         108.557         9.58933 
        2.26417         107.934         9.52571 
        2.27031         107.331          9.4626 
        2.27644         106.699         9.40024 
        2.28257         106.515         9.33845 
        2.28872         105.789          9.2771 
        2.29486         105.147         9.21632 
        2.30099         104.455          9.1562 
        2.30712         104.067          9.0966 
        2.31326         103.395         9.03742 
         2.3194         103.055          8.9788 
        2.32553         102.483         8.92081 
        2.33166         102.004         8.86335 
         2.3378         101.295         8.80632 
        2.34394         100.802         8.74977 
        2.35007         100.229          8.6938 
        2.35619         99.6497         8.63839 
        2.36233         99.2895         8.58333 
        2.36848         98.7444         8.52864 
        2.37462         98.4505         8.47454 
        2.38075         97.6977         8.42096 
        2.38689         97.3337          8.3678 
        2.39303         96.8802         8.31511 
        2.39916         96.2579         8.26293 
        2.40529         95.8174          8.2112 
        2.41143         95.1628         8.15988 
        2.41757         94.5227         8.10897 
         2.4237           94.24         8.05859 
        2.42983         93.6952         8.00865 
        2.43598         93.1328         7.95899 
        2.44211         92.7522         7.90984 
        2.44823         92.2758         7.86121 
        2.45437         92.0275         7.81286 
        2.46052         91.3832         7.76488 
        2.46665         90.8226         7.71738 
        2.47279         90.4158          7.6703 
        2.47892         89.9934         7.62358 
        2.48507         89.6361          7.5772 
         2.4912          88.979          7.5313 
