# k  (h/Mpc)    Pcb(k)  (Mpc/h)^3    Pcb_linear(k)  (Mpc/h)^3
     0.00783031         13599.2         13790.3 
       0.013688         16420.6         16288.7 
       0.019231         15739.3         15688.8 
      0.0249154         13427.6         13657.3 
      0.0312784         10923.5         10987.3 
      0.0375637         8798.08          8742.6 
      0.0433917         7213.96         7266.94 
      0.0492413         6346.66         6333.78 
      0.0555754         5649.18         5757.41 
      0.0619321         5449.36         5398.57 
       0.067871         4992.52         5078.91 
      0.0738098         4594.39         4671.66 
      0.0800417         4042.72         4136.05 
      0.0862327         3532.74         3556.68 
      0.0921407         3093.51         3042.85 
      0.0982031         2660.96         2619.19 
       0.104506         2432.52            2316 
       0.110769         2241.63         2139.49 
       0.116806         2129.95         2049.62 
       0.122832            2063         1992.61 
       0.129052         1943.01         1924.01 
       0.135211         1841.15         1818.76 
       0.141259            1736         1675.88 
       0.147318         1596.04         1509.91 
       0.153489         1428.41         1343.25 
       0.159709         1316.91         1200.92 
       0.165845         1239.93         1097.67 
       0.171974         1166.85          1031.4 
       0.178125         1117.44         992.905 
       0.184229         1078.96         968.755 
        0.19034         1021.15         944.563 
       0.196428         1001.99         910.284 
       0.202534         963.885         862.051 
       0.208729         905.943          802.07 
       0.214876         851.453         739.044 
       0.220989         810.785         680.945 
       0.227147          767.87         632.835 
        0.23329         732.839         597.394 
       0.239377         716.234         573.316 
       0.245482         669.722         556.463 
       0.251667         666.169         542.107 
       0.257832         641.849         526.292 
       0.263955         619.925         506.587 
       0.270079         593.933         482.695 
        0.27624         583.993          456.07 
       0.282372         559.025         429.534 
        0.28843         543.096         405.695 
       0.294538         514.519         385.507 
       0.300721         510.187         369.422 
        0.30691         487.382         356.902 
       0.313033         477.513         346.711 
       0.319153         462.586         337.107 
       0.325316         449.686         326.847 
        0.33145         435.662         315.391 
       0.337538         428.267          302.95 
       0.343633         414.278         289.965 
       0.349808         399.147         277.165 
       0.355968         394.511         265.452 
       0.362074         387.266         255.311 
       0.368217          376.11         246.641 
       0.374374          360.04         239.154 
       0.380519         357.542         232.447 
       0.386598          347.95         226.039 
       0.392688         344.756         219.488 
        0.39888         335.063         212.563 
       0.405048         327.278         205.405 
       0.411186         321.232         198.275 
       0.417313          314.77         191.407 
       0.423458         307.876         184.961 
       0.429607         302.385         179.104 
       0.435692         294.305         173.884 
       0.441815         291.443         169.076 
       0.447964         285.108         164.559 
       0.454126         276.952         160.195 
       0.460267         272.256         155.864 
       0.466387         268.777         151.523 
        0.47254         263.197         147.175 
       0.478662         262.358          142.92 
       0.484765         252.836         138.809 
       0.490885         249.955         134.895 
       0.497035         245.549         131.218 
       0.503198         241.091         127.776 
       0.509342          238.95         124.537 
       0.515458         235.518         121.458 
       0.521598         230.048         118.474 
       0.527764         227.075         115.545 
       0.533884         224.428         112.677 
           0.54         220.951         109.849 
       0.546137          219.64          107.08 
       0.552299         214.973         104.396 
       0.558452         213.325         101.828 
       0.564573         210.014         99.3835 
       0.570708         205.531         97.0372 
       0.576825         202.617         94.7966 
       0.582926         199.913         92.6495 
       0.589034         197.912         90.5713 
       0.595184         195.776         88.5346 
       0.601379         192.915         86.5278 
       0.607522         189.815         84.5793 
       0.613639         188.465         82.6877 
       0.619772         184.533         80.8485 
       0.625918         183.267         79.0688 
       0.632068         180.462         77.3532 
       0.638161         179.393         75.7129 
         0.6443         176.611         74.1134 
       0.650464         174.746         72.5558 
       0.656582         172.585         71.0527 
       0.662703         171.786         69.5891 
       0.668861         168.666         68.1566 
       0.675024         166.402         66.7621 
       0.681124         165.523         65.4202 
       0.687237         163.189         64.1126 
       0.693381         160.581          62.835 
       0.699536         159.429         61.5904 
       0.705665         158.277         60.3853 
       0.711789         156.073         59.2142 
       0.717957         155.732         58.0666 
        0.72409         153.476         56.9565 
       0.730186         151.436         55.8826 
       0.736317         149.788          54.831 
       0.742472         148.842          53.803 
       0.748622         147.466         52.8027 
        0.75476         146.146         51.8301 
       0.760888         144.343         50.8836 
       0.767043          143.88         49.9572 
       0.773185         142.399         49.0558 
       0.779291         139.697          48.182 
       0.785407         139.314         47.3282 
       0.791564         138.168         46.4898 
       0.797719           135.7         45.6723 
       0.803834         135.094         44.8796 
       0.809972         134.185         44.1029 
       0.816124         133.455         43.3431 
       0.822261         132.176         42.6032 
       0.828378         130.874          41.883 
       0.834502         130.453          41.179 
       0.840667         128.481         40.4867 
       0.846816          127.19         39.8125 
       0.852925         126.649          39.158 
       0.859047          125.27          38.517 
       0.865192         124.063         37.8884 
       0.871341         123.084         37.2736 
       0.877463         121.895         36.6753 
       0.883569         121.646         36.0918 
       0.889708         120.348         35.5181 
       0.895864         119.005         34.9555 
       0.902008         118.281         34.4064 
       0.908149         117.838         33.8694 
       0.914301         116.477         33.3431 
       0.920448          115.57         32.8285 
       0.926574          114.78         32.3267 
       0.932687         114.691         31.8364 
       0.938823         112.952         31.3547 
       0.944975          111.88         30.8818 
       0.951105         111.374         30.4205 
       0.957225         110.374         29.9694 
       0.963368         108.992          29.526 
       0.969511           108.9         29.0916 
       0.975621         108.149         28.6684 
       0.981748         107.664         28.2525 
       0.987916         106.492         27.8423 
        0.99406         105.648         27.4418 
        1.00019         105.473           27.05 
        1.00632         104.233         26.6663 
        1.01246          103.75         26.2895 
        1.01859         103.012         25.9206 
        1.02471         101.922         25.5593 
        1.03085         101.084         25.2037 
        1.03698         100.871         24.8556 
        1.04314         99.7957         24.5126 
        1.04929         99.3023          24.177 
        1.05541         98.5268          23.849 
        1.06154         98.0999         23.5263 
        1.06769         97.7914         23.2091 
        1.07382         96.8999         22.8989 
        1.07993         96.2522          22.595 
        1.08607         95.4944         22.2955 
        1.09222         95.3143         22.0011 
        1.09836         94.4398         21.7123 
        1.10449         93.6757         21.4292 
        1.11063         93.0663         21.1508 
        1.11677         92.6085         20.8774 
         1.1229         91.8584         20.6094 
        1.12903         91.3197         20.3459 
        1.13518         91.1945         20.0868 
        1.14131         90.3551         19.8324 
        1.14745         89.8404         19.5825 
        1.15359         89.2831          19.337 
        1.15973         88.8486         19.0955 
        1.16584         87.9841         18.8593 
        1.17197         87.5319         18.6268 
        1.17811         87.1429         18.3975 
        1.18424         86.5807         18.1727 
        1.19038         86.3333         17.9511 
        1.19652         85.7418         17.7332 
        1.20267         84.8672          17.519 
        1.20881         84.5012         17.3084 
        1.21495         83.9053         17.1016 
        1.22108         83.6364         16.8982 
         1.2272         82.7534         16.6986 
        1.23334         82.4583         16.5018 
        1.23949         82.0031         16.3077 
        1.24562         81.4399         16.1173 
        1.25174         81.0663         15.9302 
        1.25789         80.6817         15.7455 
        1.26402         79.9084         15.5641 
        1.27014         79.6988          15.386 
        1.27628         79.2983         15.2102 
        1.28244         78.8016         15.0367 
        1.28858         78.5855         14.8663 
        1.29471         77.9239         14.6988 
        1.30084         77.6503         14.5341 
        1.30697         77.0051         14.3717 
        1.31312         76.6071         14.2115 
        1.31925         76.1128         14.0543 
        1.32537         75.8182         13.8996 
        1.33151         75.1428         13.7467 
        1.33765         74.9084         13.5963 
        1.34378         74.5322         13.4483 
        1.34992         74.1527         13.3025 
        1.35606         73.7067         13.1585 
         1.3622         73.1158          13.017 
        1.36833         73.0009         12.8778 
        1.37445         72.5033         12.7408 
        1.38059         71.9198         12.6053 
        1.38675         71.5626         12.4715 
        1.39288         71.3418         12.3402 
        1.39901         70.9617         12.2109 
        1.40515          70.469         12.0831 
         1.4113         70.1384         11.9572 
        1.41742         69.9618         11.8335 
        1.42355         69.4416         11.7114 
         1.4297         69.2741         11.5907 
        1.43585         68.6904         11.4717 
        1.44198         68.2732         11.3548 
        1.44809         68.0325         11.2398 
        1.45423         67.7327          11.126 
        1.46036         67.4341          11.014 
        1.46649         66.9151         10.9034 
        1.47263         66.5421         10.7943 
        1.47877         66.3784         10.6867 
        1.48491         65.8988         10.5805 
        1.49104         65.6747         10.4759 
        1.49718         65.2484         10.3726 
        1.50333         65.0156         10.2706 
        1.50947         64.6695         10.1701 
         1.5156         64.3387         10.0712 
        1.52172         63.9828         9.97356 
        1.52787           63.79         9.87704 
          1.534         63.2832         9.78191 
        1.54013         62.9203         9.68813 
        1.54627         62.8053         9.59542 
        1.55241         62.2509         9.50391 
        1.55855         62.1213         9.41372 
        1.56467         61.8255         9.32496 
         1.5708           61.53         9.23709 
        1.57695          61.384         9.15023 
        1.58308         60.8299         9.06468 
        1.58922         60.5727         8.98017 
        1.59535         60.4421         8.89678 
         1.6015         59.8587         8.81433 
        1.60764         59.7406         8.73296 
        1.61376         59.3986         8.65285 
        1.61989         59.1471         8.57368 
        1.62604         58.8899         8.49533 
        1.63218         58.6766         8.41801 
        1.63831         58.0884         8.34183 
        1.64444         57.9649         8.26656 
        1.65059         57.7476         8.19205 
        1.65673         57.3656         8.11854 
        1.66285         57.0624         8.04614 
        1.66898          56.898          7.9746 
        1.67512         56.4486          7.9038 
        1.68127          56.343         7.83379 
         1.6874         56.0464         7.76478 
        1.69353          55.773         7.69665 
        1.69967         55.4675         7.62918 
        1.70581         55.3063         7.56254 
        1.71193         55.1062         7.49695 
        1.71806         54.6131           7.432 
        1.72421         54.4885          7.3677 
        1.73035         54.2359         7.30423 
        1.73649         53.9491         7.24152 
        1.74262         53.7063          7.1796 
        1.74876         53.4302         7.11836 
        1.75489         53.1914         7.05796 
        1.76101         53.0122         6.99829 
        1.76715         52.6134         6.93922 
        1.77329         52.4078         6.88076 
        1.77943         52.1017         6.82296 
        1.78557         51.9263          6.7659 
        1.79171         51.6669         6.70949 
        1.79785         51.3607         6.65371 
        1.80399         51.3051         6.59858 
        1.81012         50.9727         6.54415 
        1.81625         50.6542         6.49035 
        1.82239         50.4669         6.43708 
        1.82853         50.2157         6.38444 
        1.83466         49.9707         6.33244 
        1.84078         49.7349         6.28107 
        1.84692         49.4631         6.23019 
        1.85306         49.2453         6.17981 
         1.8592         49.0171         6.13007 
        1.86533         48.8068          6.0809 
        1.87147         48.5105         6.03222 
        1.87761         48.3829         5.98405 
        1.88375         48.1367         5.93646 
        1.88988         47.9319         5.88945 
        1.89601          47.683         5.84291 
        1.90215         47.4352         5.79685 
        1.90829         47.2934          5.7513 
        1.91442         47.0835         5.70624 
        1.92056         46.7896         5.66171 
         1.9267         46.6138          5.6176 
        1.93284         46.3012         5.57394 
        1.93897         46.1905         5.53083 
        1.94509         45.9699         5.48826 
        1.95123         45.7313         5.44604 
        1.95737         45.5286         5.40422 
        1.96349         45.2605         5.36296 
        1.96964         45.1245         5.32201 
        1.97578         44.8753         5.28147 
        1.98192         44.7138         5.24143 
        1.98805         44.5779          5.2018 
        1.99419         44.2584         5.16258 
        2.00033         44.1042         5.12375 
        2.00647         43.9385         5.08532 
         2.0126         43.5577         5.04736 
        2.01874         43.5191         5.00973 
        2.02488         43.3223         4.97244 
        2.03101         43.0992         4.93561 
        2.03714         42.9246         4.89918 
        2.04328          42.705         4.86308 
        2.04941         42.4957         4.82738 
        2.05554         42.2892         4.79206 
        2.06167          42.152         4.75704 
        2.06781         41.8891         4.72237 
        2.07396         41.7638           4.688 
        2.08009         41.6028         4.65403 
        2.08622         41.3028         4.62043 
        2.09237         41.1842          4.5871 
        2.09851         41.0529          4.5541 
        2.10464         40.8555         4.52147 
        2.11077         40.6153          4.4892 
        2.11691         40.3934         4.45718 
        2.12305         40.2651         4.42547 
        2.12918         40.1229         4.39414 
        2.13531         39.8529         4.36311 
        2.14145         39.6608         4.33231 
         2.1476         39.4762         4.30178 
        2.15372         39.2852         4.27169 
        2.15985         39.1985         4.24186 
        2.16599         38.9883         4.21222 
        2.17213         38.8798         4.18291 
        2.17827         38.6421         4.15388 
         2.1844         38.4593         4.12515 
        2.19054         38.2593         4.09669 
        2.19666         38.0736         4.06853 
         2.2028         37.9504         4.04061 
        2.20893         37.8159         4.01294 
        2.21508         37.6747          3.9855 
        2.22122         37.4929         3.95831 
        2.22736         37.3391         3.93143 
        2.23349         37.1548         3.90481 
        2.23962         36.9066         3.87841 
        2.24577         36.7406         3.85224 
         2.2519         36.5816         3.82635 
        2.25802         36.5497         3.80073 
        2.26417         36.2929         3.77528 
        2.27031         36.1151         3.75004 
        2.27644         35.9878          3.7251 
        2.28257         35.8152         3.70039 
        2.28872         35.6249         3.67586 
        2.29486         35.5304         3.65156 
        2.30099         35.3997         3.62752 
        2.30712         35.2261          3.6037 
        2.31326         35.0134         3.58004 
         2.3194         34.8368         3.55661 
        2.32553         34.6997         3.53343 
        2.33166         34.5708         3.51047 
         2.3378         34.3989         3.48768 
        2.34394         34.3237         3.46508 
        2.35007         34.1101         3.44272 
        2.35619          33.928         3.42058 
        2.36233         33.8307         3.39859 
        2.36848         33.7301         3.37674 
        2.37462         33.4821         3.35513 
        2.38075         33.4373         3.33373 
        2.38689          33.264          3.3125 
        2.39303         33.0834         3.29146 
        2.39916         32.8981         3.27062 
        2.40529         32.7942         3.24997 
        2.41143         32.6907         3.22948 
        2.41757          32.516         3.20915 
         2.4237         32.4409         3.18904 
        2.42983         32.2482          3.1691 
        2.43598         32.1321         3.14928 
        2.44211         31.9688         3.12967 
        2.44823         31.8768         3.11026 
        2.45437         31.6666         3.09097 
        2.46052         31.5198         3.07182 
        2.46665         31.4062         3.05287 
        2.47279         31.2748         3.03408 
        2.47892         31.1714         3.01544 
        2.48507         31.0119         2.99694 
         2.4912         30.9036         2.97863 
