# k  (h/Mpc)    P(k)  (Mpc/h)^3    P_linear(k)  (Mpc/h)^3
     0.00783031         11255.7         11444.4 
       0.013688         13570.2         13500.5 
       0.019231         13019.3         12995.8 
      0.0249154         11128.5         11309.2 
      0.0312784         9048.03         9096.19 
      0.0375637         7279.18          7236.8 
      0.0433917         5976.17         6014.75 
      0.0492413          5252.6         5242.03 
      0.0555754         4684.94         4764.75 
      0.0619321         4508.91         4467.59 
       0.067871         4140.49         4202.92 
      0.0738098         3809.49         3865.82 
      0.0800417         3353.55         3422.53 
      0.0862327         2925.93         2943.06 
      0.0921407         2554.57         2517.84 
      0.0982031         2195.45         2167.26 
       0.104506         2001.28         1916.36 
       0.110769         1844.22         1770.29 
       0.116806         1751.27         1695.92 
       0.122832         1699.26         1648.74 
       0.129052         1604.01         1591.97 
       0.135211          1519.6         1504.88 
       0.141259         1429.54         1386.64 
       0.147318         1311.22         1249.32 
       0.153489         1171.88         1111.42 
       0.159709          1076.8         993.649 
       0.165845         1010.77         908.215 
       0.171974         949.199         853.381 
       0.178125         910.416         821.529 
       0.184229         880.887         801.545 
        0.19034         833.486         781.527 
       0.196428         818.088         753.165 
       0.202534         787.194         713.255 
       0.208729         738.111         663.626 
       0.214876         690.804         611.478 
       0.220989         656.383         563.407 
       0.227147          619.29         523.597 
        0.23329         590.535         494.273 
       0.239377         576.321         474.354 
       0.245482         539.276          460.41 
       0.251667         536.006         448.531 
       0.257832         517.564         435.448 
       0.263955         499.478         419.142 
       0.270079         478.155         399.374 
        0.27624         469.033         377.346 
       0.282372         448.752          355.39 
        0.28843         433.464         335.665 
       0.294538         411.093         318.957 
       0.300721         406.874         305.653 
        0.30691         388.339         295.295 
       0.313033         380.226         286.861 
       0.319153         367.169         278.915 
       0.325316         357.476         270.431 
        0.33145         345.642         260.948 
       0.337538         339.837         250.655 
       0.343633          327.99         239.912 
       0.349808         316.223          229.32 
       0.355968           311.7         219.629 
       0.362074         304.906          211.24 
       0.368217         296.219         204.066 
       0.374374         284.215         197.871 
       0.380519         281.285         192.322 
       0.386598         273.825         187.019 
       0.392688         270.612           181.6 
        0.39888          263.27         175.871 
       0.405048         256.661         169.947 
       0.411186         251.391         164.048 
       0.417313          246.27         158.365 
       0.423458         240.803         153.033 
       0.429607         235.941         148.186 
       0.435692         229.195         143.868 
       0.441815         227.068         139.889 
       0.447964         222.298         136.152 
       0.454126         214.466         132.541 
       0.460267         211.351         128.959 
       0.466387         208.647         125.366 
        0.47254          203.89          121.77 
       0.478662          203.09         118.248 
       0.484765         195.954         114.848 
       0.490885         193.356         111.607 
       0.497035         190.236         108.567 
       0.503198         185.958         105.719 
       0.509342          183.85         103.038 
       0.515458         181.126         100.491 
       0.521598         177.376         98.0222 
       0.527764         175.103         95.5997 
       0.533884         172.716         93.2257 
           0.54         169.837         90.8866 
       0.546137         168.584         88.5957 
       0.552299         165.146         86.3745 
       0.558452         163.247         84.2504 
       0.564573         160.606         82.2274 
       0.570708          157.28          80.286 
       0.576825         155.346         78.4323 
       0.582926         152.695         76.6559 
       0.589034         151.013         74.9362 
       0.595184          149.15         73.2515 
       0.601379          147.09         71.5909 
       0.607522         144.383         69.9786 
       0.613639         143.396         68.4138 
       0.619772           140.4         66.8918 
       0.625918         139.008         65.4193 
       0.632068         137.199         64.0001 
       0.638161          136.11         62.6428 
         0.6443         134.168         61.3194 
       0.650464         132.759         60.0308 
       0.656582         130.809         58.7871 
       0.662703          129.64         57.5762 
       0.668861         127.369          56.391 
       0.675024           125.8         55.2372 
       0.681124         125.066         54.1269 
       0.687237         122.902          53.045 
       0.693381         121.046          51.988 
       0.699536         120.243         50.9582 
       0.705665          119.76         49.9612 
       0.711789          117.37         48.9922 
       0.717957          117.12         48.0428 
        0.72409         115.219         47.1243 
       0.730186         113.542         46.2358 
       0.736317          112.64         45.3657 
       0.742472          111.85         44.5152 
       0.748622         110.673         43.6875 
        0.75476         109.642         42.8828 
       0.760888         108.166         42.0997 
       0.767043         107.648         41.3332 
       0.773185         106.466         40.5875 
       0.779291         104.701         39.8644 
       0.785407         104.245         39.1581 
       0.791564         103.428         38.4644 
       0.797719         101.473          37.788 
       0.803834         101.019         37.1322 
       0.809972         99.9647         36.4896 
       0.816124         99.4714         35.8609 
       0.822261         98.5157         35.2488 
       0.828378         97.6311         34.6529 
       0.834502         97.1217         34.0704 
       0.840667         95.7082         33.4976 
       0.846816         94.6022         32.9397 
       0.852925         94.0936         32.3982 
       0.859047         92.9185         31.8679 
       0.865192         92.2858         31.3478 
       0.871341         91.5201         30.8392 
       0.877463         90.4427         30.3442 
       0.883569         90.1214         29.8614 
       0.889708         89.2534         29.3867 
       0.895864         88.4356         28.9212 
       0.902008         87.7451         28.4669 
       0.908149         87.2609         28.0226 
       0.914301         86.3501         27.5872 
       0.920448         85.6663         27.1614 
       0.926574         84.9996         26.7462 
       0.932687         84.9214         26.3406 
       0.938823         83.5582          25.942 
       0.944975         82.6794         25.5508 
       0.951105         82.2801         25.1691 
       0.957225         81.4389         24.7959 
       0.963368         80.7467          24.429 
       0.969511         80.6104         24.0696 
       0.975621         80.1227         23.7194 
       0.981748          79.436         23.3753 
       0.987916         78.6388         23.0359 
        0.99406         78.0893         22.7046 
        1.00019         77.6806         22.3804 
        1.00632         76.9541          22.063 
        1.01246         76.5233         21.7512 
        1.01859         75.6491          21.446 
        1.02471         75.2521         21.1471 
        1.03085            74.6         20.8528 
        1.03698         74.3436         20.5648 
        1.04314         73.6229         20.2811 
        1.04929         73.1254         20.0034 
        1.05541         72.4334          19.732 
        1.06154         72.2983          19.465 
        1.06769         71.8965         19.2026 
        1.07382         71.4241         18.9459 
        1.07993         70.9066         18.6945 
        1.08607         70.3387         18.4466 
        1.09222         70.1123         18.2031 
        1.09836         69.4541         17.9642 
        1.10449          69.122         17.7299 
        1.11063         68.4998         17.4996 
        1.11677         68.1942         17.2734 
         1.1229         67.5008         17.0517 
        1.12903         66.9311         16.8336 
        1.13518         67.0761         16.6193 
        1.14131         66.5527         16.4088 
        1.14745         65.9383         16.2021 
        1.15359         65.6298         15.9989 
        1.15973         65.1351         15.7991 
        1.16584          64.677         15.6037 
        1.17197         64.3325         15.4113 
        1.17811         63.9996         15.2216 
        1.18424         63.4849         15.0356 
        1.19038         63.1708         14.8522 
        1.19652         62.8977          14.672 
        1.20267         62.1691         14.4947 
        1.20881         61.9752         14.3205 
        1.21495         61.5228         14.1494 
        1.22108         61.3665         13.9811 
         1.2272         60.6192         13.8159 
        1.23334          60.421         13.6531 
        1.23949         60.1762         13.4925 
        1.24562         59.6882          13.335 
        1.25174         59.4374         13.1802 
        1.25789         59.2142         13.0274 
        1.26402         58.7786         12.8773 
        1.27014         58.3598           12.73 
        1.27628          58.043         12.5845 
        1.28244         57.6818          12.441 
        1.28858         57.4831         12.2999 
        1.29471         57.1906         12.1614 
        1.30084          56.855         12.0251 
        1.30697         56.4541         11.8907 
        1.31312         56.1022         11.7582 
        1.31925         55.8155         11.6281 
        1.32537         55.6355         11.5002 
        1.33151         55.0655         11.3737 
        1.33765         54.8854         11.2492 
        1.34378          54.571         11.1268 
        1.34992         54.2903         11.0061 
        1.35606         54.0122          10.887 
         1.3622          53.591         10.7699 
        1.36833         53.4195         10.6547 
        1.37445         53.1301         10.5414 
        1.38059         52.7041         10.4293 
        1.38675         52.4689         10.3186 
        1.39288         52.1873         10.2099 
        1.39901         52.0203         10.1029 
        1.40515         51.6338         9.99719 
         1.4113         51.4247         9.89302 
        1.41742         51.3126         9.79073 
        1.42355         50.8543         9.68971 
         1.4297         50.7328         9.58981 
        1.43585         50.3764         9.49136 
        1.44198         50.0395         9.39468 
        1.44809          49.893         9.29953 
        1.45423         49.6186         9.20534 
        1.46036         49.4317         9.11264 
        1.46649         49.1581         9.02118 
        1.47263         48.8111         8.93091 
        1.47877         48.5736         8.84191 
        1.48491         48.5067         8.75398 
        1.49104         48.1331         8.66744 
        1.49718         47.7067         8.58201 
        1.50333         47.6671          8.4976 
        1.50947         47.4344         8.41449 
         1.5156         47.1308         8.33262 
        1.52172         46.9978         8.25185 
        1.52787         46.8657         8.17198 
          1.534           46.46         8.09327 
        1.54013         46.2249         8.01569 
        1.54627         46.1326         7.93898 
        1.55241         45.6581         7.86327 
        1.55855         45.5778         7.78865 
        1.56467         45.2116         7.71521 
         1.5708         45.2239         7.64251 
        1.57695         44.9883         7.57064 
        1.58308         44.6603         7.49986 
        1.58922         44.5411         7.42994 
        1.59535         44.4044         7.36094 
         1.6015         43.9882         7.29272 
        1.60764         43.8003          7.2254 
        1.61376         43.5949         7.15912 
        1.61989         43.3951         7.09362 
        1.62604         43.2246         7.02879 
        1.63218         43.1491         6.96482 
        1.63831         42.8237         6.90179 
        1.64444           42.63         6.83952 
        1.65059           42.44         6.77787 
        1.65673         42.2136         6.71705 
        1.66285         41.9357         6.65715 
        1.66898         41.8133         6.59796 
        1.67512         41.5437         6.53938 
        1.68127         41.3648         6.48145 
         1.6874         41.2146         6.42436 
        1.69353         40.9726         6.36799 
        1.69967         40.8096         6.31217 
        1.70581         40.7287         6.25703 
        1.71193         40.5345         6.20277 
        1.71806         40.1212         6.14903 
        1.72421         40.0805         6.09583 
        1.73035         39.9053         6.04331 
        1.73649         39.5649         5.99143 
        1.74262         39.4829         5.94019 
        1.74876         39.3254         5.88953 
        1.75489         39.1544         5.83956 
        1.76101           38.99         5.79018 
        1.76715         38.7676         5.74131 
        1.77329         38.6093         5.69295 
        1.77943         38.4128         5.64512 
        1.78557         38.2395         5.59792 
        1.79171         38.0708         5.55124 
        1.79785         37.8758         5.50509 
        1.80399         37.8349         5.45948 
        1.81012         37.5263         5.41444 
        1.81625          37.316         5.36993 
        1.82239         37.2417         5.32586 
        1.82853         37.0113         5.28231 
        1.83466         36.8168         5.23928 
        1.84078         36.5974         5.19678 
        1.84692         36.4868         5.15468 
        1.85306         36.2951           5.113 
         1.8592         36.0937         5.07184 
        1.86533         36.0033         5.03117 
        1.87147         35.8835         4.99089 
        1.87761         35.7272         4.95103 
        1.88375          35.533         4.91166 
        1.88988         35.4426         4.87276 
        1.89601          35.239         4.83426 
        1.90215         35.1185         4.79615 
        1.90829         35.0105         4.75847 
        1.91442         34.7872         4.72118 
        1.92056         34.5805         4.68434 
         1.9267         34.4568         4.64785 
        1.93284         34.2555         4.61172 
        1.93897         34.2097         4.57605 
        1.94509         33.9625         4.54083 
        1.95123         33.8607          4.5059 
        1.95737         33.6636          4.4713 
        1.96349         33.5173         4.43716 
        1.96964         33.4672         4.40328 
        1.97578         33.2023         4.36974 
        1.98192         33.1107         4.33661 
        1.98805         33.0346         4.30382 
        1.99419         32.8362         4.27137 
        2.00033         32.6719         4.23924 
        2.00647          32.516         4.20745 
         2.0126         32.3203         4.17604 
        2.01874         32.3115         4.14491 
        2.02488         32.1422         4.11406 
        2.03101         31.9773         4.08358 
        2.03714         31.8422         4.05344 
        2.04328         31.6849         4.02358 
        2.04941         31.5464         3.99404 
        2.05554         31.3968         3.96481 
        2.06167         31.3238         3.93584 
        2.06781         31.1024         3.90716 
        2.07396         31.0414         3.87872 
        2.08009         30.9201         3.85061 
        2.08622         30.7137         3.82281 
        2.09237          30.609         3.79524 
        2.09851         30.4631         3.76793 
        2.10464         30.3641         3.74094 
        2.11077         30.2821         3.71424 
        2.11691         30.0695         3.68774 
        2.12305         29.9356         3.66151 
        2.12918         29.8313         3.63559 
        2.13531         29.7095         3.60991 
        2.14145         29.5951         3.58443 
         2.1476         29.4407         3.55917 
        2.15372          29.305         3.53427 
        2.15985         29.1973         3.50959 
        2.16599         29.1433         3.48508 
        2.17213         29.0399         3.46082 
        2.17827         28.7885          3.4368 
         2.1844         28.7268         3.41303 
        2.19054         28.6168         3.38948 
        2.19666         28.4839         3.36619 
         2.2028          28.303         3.34309 
        2.20893         28.2673          3.3202 
        2.21508         28.1742         3.29749 
        2.22122         27.9718           3.275 
        2.22736         27.9242         3.25276 
        2.23349         27.7735         3.23073 
        2.23962         27.6388         3.20889 
        2.24577         27.5166         3.18724 
         2.2519         27.4281         3.16581 
        2.25802         27.3132         3.14462 
        2.26417         27.2032         3.12356 
        2.27031         27.0807         3.10268 
        2.27644         26.9403         3.08205 
        2.28257         26.8798          3.0616 
        2.28872         26.7617         3.04131 
        2.29486         26.6721          3.0212 
        2.30099         26.5079         3.00131 
        2.30712         26.4181          2.9816 
        2.31326         26.3337         2.96202 
         2.3194         26.2403         2.94264 
        2.32553         26.1154         2.92346 
        2.33166          26.006         2.90446 
         2.3378         25.8356         2.88561 
        2.34394         25.7664         2.86691 
        2.35007         25.6809         2.84841 
        2.35619         25.5431         2.83009 
        2.36233          25.476          2.8119 
        2.36848         25.3689         2.79382 
        2.37462         25.2405         2.77594 
        2.38075         25.1861         2.75824 
        2.38689         25.0748         2.74067 
        2.39303         24.9483         2.72326 
        2.39916         24.8153         2.70602 
        2.40529          24.727         2.68893 
        2.41143         24.6718         2.67198 
        2.41757         24.5644         2.65516 
         2.4237         24.4599         2.63852 
        2.42983         24.2886         2.62203 
        2.43598         24.2338         2.60563 
        2.44211         24.1258          2.5894 
        2.44823         24.0467         2.57334 
        2.45437         23.9319         2.55738 
        2.46052         23.7783         2.54154 
        2.46665         23.7635         2.52586 
        2.47279         23.6689         2.51031 
        2.47892         23.5604         2.49489 
        2.48507         23.4298         2.47959 
         2.4912         23.4024         2.46444 
