# k  (h/Mpc)    P(k)  (Mpc/h)^3    P_linear(k)  (Mpc/h)^3
     0.00783031         17373.8           17693 
       0.013688         21028.6         20867.4 
       0.019231         20125.6         20084.9 
      0.0249154         17116.6           17477 
      0.0312784         13936.4         14056.2 
      0.0375637           11246         11182.5 
      0.0433917          9202.4         9293.89 
      0.0492413         8108.66         8099.73 
      0.0555754         7193.49         7362.14 
      0.0619321         6963.13         6902.91 
       0.067871         6356.12          6493.9 
      0.0738098          5851.6            5973 
      0.0800417         5145.67         5288.05 
      0.0862327         4508.08         4547.21 
      0.0921407         3966.97          3890.2 
      0.0982031         3418.47         3348.52 
       0.104506         3138.41         2960.85 
       0.110769         2892.47         2735.16 
       0.116806         2752.07         2620.24 
       0.122832         2657.18         2547.34 
       0.129052         2494.22         2459.63 
       0.135211          2363.7         2325.06 
       0.141259         2236.88         2142.39 
       0.147318         2064.82         1930.22 
       0.153489         1852.58         1717.16 
       0.159709         1716.16          1535.2 
       0.165845         1624.21          1403.2 
       0.171974          1533.6         1318.48 
       0.178125         1465.19         1269.27 
       0.184229         1409.47         1238.39 
        0.19034         1337.28         1207.46 
       0.196428          1310.1         1163.64 
       0.202534         1258.95         1101.98 
       0.208729         1187.92          1025.3 
       0.214876         1124.78         944.734 
       0.220989         1074.16         870.464 
       0.227147         1023.01         808.957 
        0.23329         977.558         763.652 
       0.239377         957.551         732.876 
       0.245482         896.184         711.332 
       0.251667         892.014          692.98 
       0.257832         856.806         672.766 
       0.263955          828.07         647.573 
       0.270079         794.759         617.032 
        0.27624         783.259         582.998 
       0.282372         750.233         549.075 
        0.28843           735.6           518.6 
       0.294538         696.507         492.786 
       0.300721         691.445         472.232 
        0.30691         662.496         456.229 
       0.313033         649.083         443.199 
       0.319153         632.109         430.922 
       0.325316         613.481         417.814 
        0.33145         596.361         403.163 
       0.337538         585.322          387.26 
       0.343633          569.04         370.662 
       0.349808         547.752         354.297 
       0.355968         543.007         339.325 
       0.362074         535.567         326.364 
       0.368217         519.298         315.279 
       0.374374           497.1         305.709 
       0.380519         495.856         297.135 
       0.386598         481.651         288.943 
       0.392688         478.789          280.57 
        0.39888         464.632         271.718 
       0.405048         455.955         262.567 
       0.411186         448.838         253.452 
       0.417313         439.616         244.673 
       0.423458         429.947         236.434 
       0.429607         424.062         228.946 
       0.435692         413.369         222.275 
       0.441815         409.077         216.128 
       0.447964         400.235         210.354 
       0.454126         393.042         204.774 
       0.460267         384.604          199.24 
       0.466387         379.641          193.69 
        0.47254         374.133         188.133 
       0.478662          371.89         182.692 
       0.484765         358.386         177.438 
       0.490885         355.176         172.432 
       0.497035         348.346         167.734 
       0.503198         344.304         163.335 
       0.509342         341.812         159.193 
       0.515458         337.661         155.258 
       0.521598         328.571         151.443 
       0.527764         324.334           147.7 
       0.533884         321.402         144.033 
           0.54         316.852         140.419 
       0.546137         315.236         136.879 
       0.552299         309.052         133.448 
       0.558452         307.266         130.166 
       0.564573         302.901          127.04 
       0.570708         297.205         124.041 
       0.576825         291.493         121.177 
       0.582926         289.542         118.432 
       0.589034         286.608         115.776 
       0.595184         284.323         113.173 
       0.601379         279.232         110.607 
       0.607522         275.712         108.116 
       0.613639           274.1         105.698 
       0.619772         268.752         103.347 
       0.625918           267.5         101.072 
       0.632068         262.869         98.8794 
       0.638161         261.717         96.7824 
         0.6443         257.615         94.7378 
       0.650464         255.093         92.7469 
       0.656582         252.107         90.8253 
       0.662703          251.94         88.9545 
       0.668861         247.772         87.1233 
       0.675024          244.67         85.3408 
       0.681124         242.775         83.6254 
       0.687237         240.354         81.9539 
       0.693381         236.581         80.3207 
       0.699536         234.277         78.7298 
       0.705665         232.246         77.1894 
       0.711789         230.945         75.6924 
       0.717957         229.507         74.2255 
        0.72409          227.14         72.8064 
       0.730186         224.174         71.4337 
       0.736317         221.897         70.0894 
       0.742472           220.2         68.7754 
       0.748622         218.505         67.4966 
        0.75476         216.168         66.2534 
       0.760888         213.833         65.0435 
       0.767043         213.551         63.8593 
       0.773185         211.378         62.7071 
       0.779291         207.677           61.59 
       0.785407         207.298         60.4987 
       0.791564         205.102          59.427 
       0.797719         202.455         58.3819 
       0.803834         200.961         57.3687 
       0.809972         200.321         56.3759 
       0.816124         199.209         55.4046 
       0.822261         197.601         54.4589 
       0.828378         195.455         53.5382 
       0.834502         194.155         52.6382 
       0.840667          192.24         51.7533 
       0.846816         190.852         50.8914 
       0.852925         189.848         50.0548 
       0.859047         188.289         49.2355 
       0.865192         185.799          48.432 
       0.871341         184.419         47.6461 
       0.877463         183.606         46.8813 
       0.883569          182.81         46.1354 
       0.889708         180.494         45.4021 
       0.895864         179.167         44.6829 
       0.902008         177.849          43.981 
       0.908149         177.125         43.2946 
       0.914301         174.841         42.6218 
       0.920448         173.966          41.964 
       0.926574         172.481         41.3225 
       0.932687         172.487         40.6958 
       0.938823         170.192           40.08 
       0.944975         169.332         39.4756 
       0.951105         168.272         38.8859 
       0.957225         167.203         38.3093 
       0.963368         164.737         37.7425 
       0.969511         164.228         37.1872 
       0.975621         162.702         36.6461 
       0.981748         162.562         36.1145 
       0.987916         161.043         35.5902 
        0.99406         159.705         35.0782 
        1.00019         159.356         34.5775 
        1.00632         157.854          34.087 
        1.01246         156.778         33.6053 
        1.01859         156.701         33.1338 
        1.02471         154.325         32.6719 
        1.03085         153.263         32.2173 
        1.03698         152.547         31.7724 
        1.04314         151.035          31.334 
        1.04929         150.564         30.9049 
        1.05541         150.058         30.4856 
        1.06154         148.553         30.0731 
        1.06769           148.3         29.6677 
        1.07382         146.862         29.2711 
        1.07993         145.911         28.8827 
        1.08607         145.358         28.4998 
        1.09222         144.414         28.1235 
        1.09836         143.322         27.7544 
        1.10449          141.83         27.3925 
        1.11063         140.996         27.0366 
        1.11677         140.398         26.6872 
         1.1229         139.323         26.3446 
        1.12903          138.89         26.0077 
        1.13518         138.091         25.6765 
        1.14131         136.734         25.3513 
        1.14745         136.633         25.0319 
        1.15359          135.42          24.718 
        1.15973         134.524         24.4094 
        1.16584         133.577         24.1075 
        1.17197           133.1         23.8102 
        1.17811         131.973         23.5171 
        1.18424         131.551         23.2298 
        1.19038         131.235         22.9465 
        1.19652         130.145          22.668 
        1.20267          129.29         22.3941 
        1.20881         128.512         22.1249 
        1.21495         127.491         21.8605 
        1.22108         126.875         21.6006 
         1.2272         125.899         21.3454 
        1.23334         125.574         21.0939 
        1.23949         124.662         20.8458 
        1.24562         123.909         20.6023 
        1.25174         123.455         20.3632 
        1.25789          122.57         20.1271 
        1.26402         121.229         19.8953 
        1.27014         120.649         19.6676 
        1.27628         120.431         19.4428 
        1.28244         120.123         19.2211 
        1.28858         119.097         19.0032 
        1.29471         118.063         18.7892 
        1.30084         118.053         18.5786 
        1.30697         116.643          18.371 
        1.31312         116.209         18.1663 
        1.31925         115.456         17.9653 
        1.32537         115.134         17.7676 
        1.33151         114.197         17.5722 
        1.33765         113.474         17.3798 
        1.34378          113.08         17.1907 
        1.34992          112.67         17.0043 
        1.35606         112.243         16.8203 
         1.3622         111.094         16.6393 
        1.36833         110.444         16.4614 
        1.37445         110.086         16.2862 
        1.38059         109.147         16.1131 
        1.38675         108.615         15.9421 
        1.39288         108.351         15.7742 
        1.39901         107.891         15.6089 
        1.40515         106.849         15.4455 
         1.4113         106.566         15.2846 
        1.41742         105.738         15.1265 
        1.42355         105.242         14.9705 
         1.4297         104.768         14.8161 
        1.43585         104.006          14.664 
        1.44198         103.563         14.5146 
        1.44809         103.197         14.3676 
        1.45423          102.72         14.2221 
        1.46036         101.958         14.0789 
        1.46649         101.319         13.9376 
        1.47263         100.626         13.7981 
        1.47877         100.168         13.6606 
        1.48491         99.4486         13.5248 
        1.49104          99.306         13.3911 
        1.49718         98.6548         13.2591 
        1.50333         98.0868         13.1287 
        1.50947         97.5788         13.0003 
         1.5156          97.177         12.8738 
        1.52172         96.6728          12.749 
        1.52787         95.9756         12.6256 
          1.534         95.5632          12.504 
        1.54013         95.1253         12.3841 
        1.54627         94.6743         12.2656 
        1.55241         94.0445         12.1486 
        1.55855          93.479         12.0333 
        1.56467         93.2008         11.9199 
         1.5708          92.432         11.8076 
        1.57695         92.2523         11.6965 
        1.58308         91.7606         11.5872 
        1.58922         91.3823         11.4791 
        1.59535         90.8164         11.3725 
         1.6015         90.4775         11.2671 
        1.60764         89.8682         11.1631 
        1.61376         89.5052         11.0607 
        1.61989         89.0382         10.9595 
        1.62604         88.4844         10.8594 
        1.63218         88.3815         10.7605 
        1.63831         87.5132         10.6632 
        1.64444         87.1386          10.567 
        1.65059         86.6287         10.4717 
        1.65673         86.1752         10.3777 
        1.66285         85.8751         10.2852 
        1.66898         85.5301         10.1938 
        1.67512          84.791         10.1032 
        1.68127         84.5807         10.0137 
         1.6874         83.9638         9.92554 
        1.69353         83.6532         9.83845 
        1.69967         83.4031          9.7522 
        1.70581         82.8226         9.66702 
        1.71193          82.354         9.58318 
        1.71806         82.1058         9.50016 
        1.72421         81.5334         9.41796 
        1.73035         81.2141         9.33682 
        1.73649          80.875         9.25666 
        1.74262         80.2678         9.17751 
        1.74876         80.0197         9.09923 
        1.75489         79.5109         9.02203 
        1.76101         79.0876         8.94574 
        1.76715         78.5882         8.87024 
        1.77329         78.3869         8.79552 
        1.77943         77.8015         8.72163 
        1.78557         77.7189         8.64869 
        1.79171         76.9093         8.57658 
        1.79785         76.5898         8.50528 
        1.80399         76.2658         8.43481 
        1.81012         76.0033         8.36523 
        1.81625         75.6412         8.29646 
        1.82239         75.1989         8.22837 
        1.82853         74.9307         8.16108 
        1.83466         74.5267          8.0946 
        1.84078         74.0609         8.02894 
        1.84692          73.776          7.9639 
        1.85306         73.3951          7.8995 
         1.8592         73.1661         7.83592 
        1.86533         72.6548         7.77307 
        1.87147         72.1936         7.71084 
        1.87761         71.9611         7.64927 
        1.88375          71.614         7.58844 
        1.88988         71.2235         7.52834 
        1.89601         70.8921         7.46886 
        1.90215         70.3681         7.40997 
        1.90829         70.1627         7.35175 
        1.91442         69.8354         7.29415 
        1.92056         69.4293         7.23723 
         1.9267         69.1442         7.18085 
        1.93284            68.8         7.12503 
        1.93897         68.4076         7.06992 
        1.94509         68.2109         7.01551 
        1.95123         67.7901         6.96154 
        1.95737         67.4249         6.90809 
        1.96349         67.0794         6.85535 
        1.96964         66.6901           6.803 
        1.97578         66.3954         6.75117 
        1.98192         66.3449         6.69999 
        1.98805         65.6879         6.64934 
        1.99419         65.4851          6.5992 
        2.00033         65.2757         6.54956 
        2.00647         64.8413         6.50045 
         2.0126         64.5762         6.45192 
        2.01874         64.0683         6.40381 
        2.02488         63.9836         6.35615 
        2.03101         63.5532         6.30907 
        2.03714         63.1414         6.26251 
        2.04328         62.9023         6.21636 
        2.04941         62.6225         6.17072 
        2.05554         62.4076         6.12557 
        2.06167         62.1246         6.08081 
        2.06781         61.6445         6.03649 
        2.07396         61.3878         5.99256 
        2.08009         61.1803         5.94913 
        2.08622         60.8467         5.90619 
        2.09237         60.6123         5.86358 
        2.09851         60.3659         5.82139 
        2.10464         59.9688         5.77969 
        2.11077         59.7272         5.73844 
        2.11691         59.3762          5.6975 
        2.12305         59.1325         5.65697 
        2.12918         58.8484         5.61692 
        2.13531         58.4472         5.57726 
        2.14145         58.2332         5.53789 
         2.1476         57.8987         5.49886 
        2.15372         57.7422         5.46039 
        2.15985          57.371         5.42226 
        2.16599         57.1187         5.38438 
        2.17213         56.8687         5.34691 
        2.17827         56.5586          5.3098 
         2.1844         56.3059         5.27308 
        2.19054         56.0916         5.23669 
        2.19666         55.8451          5.2007 
         2.2028         55.6409         5.16502 
        2.20893         55.2313         5.12965 
        2.21508         55.0693         5.09457 
        2.22122         54.7421         5.05982 
        2.22736         54.5537         5.02545 
        2.23349         54.2572         4.99142 
        2.23962          53.957         4.95768 
        2.24577         53.6372         4.92423 
         2.2519         53.4955         4.89113 
        2.25802         53.2237         4.85839 
        2.26417         52.9451         4.82585 
        2.27031         52.7129         4.79359 
        2.27644         52.4048         4.76171 
        2.28257         52.2362         4.73013 
        2.28872         51.9095         4.69877 
        2.29486         51.6673          4.6677 
        2.30099         51.3638         4.63698 
        2.30712         51.2071         4.60652 
        2.31326         50.8885         4.57628 
         2.3194         50.7018         4.54633 
        2.32553         50.4749          4.5167 
        2.33166         50.1472         4.48735 
         2.3378         49.9359         4.45821 
        2.34394         49.6642         4.42933 
        2.35007         49.4715         4.40075 
        2.35619         49.3024         4.37245 
        2.36233         49.0202         4.34433 
        2.36848         48.8138          4.3164 
        2.37462         48.5317         4.28878 
        2.38075         48.3668         4.26143 
        2.38689         48.1383         4.23429 
        2.39303         47.8771         4.20739 
        2.39916          47.649         4.18076 
        2.40529         47.5202         4.15435 
        2.41143          47.251         4.12816 
        2.41757         47.0323         4.10218 
         2.4237         46.7878         4.07647 
        2.42983         46.5862         4.05099 
        2.43598         46.3034         4.02565 
        2.44211         46.0927         4.00058 
        2.44823         45.9422         3.97577 
        2.45437         45.7178         3.95111 
        2.46052         45.5453         3.92663 
        2.46665         45.3173          3.9024 
        2.47279         45.0326         3.87839 
        2.47892         44.9125         3.85457 
        2.48507         44.5866         3.83092 
         2.4912         44.4533         3.80751 
