# k  (h/Mpc)    Pcb(k)  (Mpc/h)^3    Pcb_linear(k)  (Mpc/h)^3
     0.00783031         1222.55         1236.31 
       0.013688         1319.21         1321.72 
       0.019231         1166.59         1165.74 
      0.0249154         924.336         926.845 
      0.0312784         677.984         675.461 
      0.0375637         498.914         495.436 
      0.0433917         394.744         393.272 
      0.0492413         339.964         338.473 
      0.0555754           310.6         311.318 
      0.0619321         297.472         296.207 
       0.067871         277.508         278.427 
      0.0738098         250.001         250.753 
      0.0800417         212.307         213.004 
      0.0862327         174.484         174.057 
      0.0921407         143.383         142.464 
      0.0982031         119.983         119.425 
       0.104506         107.043         105.691 
       0.110769         100.893          99.924 
       0.116806         98.7072         98.3473 
       0.122832         97.6608         97.1655 
       0.129052         93.4606         93.5365 
       0.135211         86.4739         86.4587 
       0.141259         77.4757         76.9602 
       0.147318         67.6657         66.8119 
       0.153489         58.5213         57.7503 
       0.159709         51.9505         51.0882 
       0.165845          48.224         47.1402 
       0.171974         45.9158         45.2771 
       0.178125          45.265         44.5693 
       0.184229         44.6221         44.0049 
        0.19034         43.0396         42.7756 
       0.196428         41.0294         40.5417 
       0.202534         38.2584         37.4474 
       0.208729         34.6466         33.9505 
       0.214876         31.3413         30.7072 
       0.220989         28.9147         28.1164 
       0.227147         26.9596         26.2966 
        0.23329         25.8142         25.1819 
       0.239377          25.196         24.5265 
       0.245482          24.439          24.016 
       0.251667         23.9877         23.3766 
       0.257832         23.0139         22.4651 
       0.263955         21.8825         21.2856 
       0.270079         20.5528         19.9453 
        0.27624         19.3407         18.6061 
       0.282372         18.2108         17.4259 
        0.28843          17.177         16.4919 
       0.294538         16.4486         15.7884 
       0.300721         15.9999         15.2645 
        0.30691         15.4565         14.8403 
       0.313033         15.0169         14.4283 
       0.319153         14.4202         13.9627 
       0.325316         14.0511         13.4161 
        0.33145         13.4141         12.8137 
       0.337538         12.8187            12.2 
       0.343633         12.1823         11.6166 
       0.349808         11.7146         11.0941 
       0.355968         11.2791         10.6536 
       0.362074         10.8892         10.2927 
       0.368217         10.5604         9.98023 
       0.374374         10.2269         9.69188 
       0.380519         9.96575         9.40436 
       0.386598         9.67976         9.10485 
       0.392688         9.40014         8.79077 
        0.39888         9.04023         8.46306 
       0.405048         8.72876         8.14264 
       0.411186         8.43742         7.84368 
       0.417313         8.13817          7.5716 
       0.423458         7.89987         7.32724 
       0.429607         7.65843          7.1083 
       0.435692         7.43553         6.90781 
       0.441815         7.23887         6.71429 
       0.447964         7.07664         6.52306 
       0.454126          6.8345          6.3306 
       0.460267         6.65981         6.13779 
       0.466387         6.43707         5.94858 
        0.47254         6.27523         5.76513 
       0.478662         6.12551         5.59179 
       0.484765         5.91672         5.42967 
       0.490885         5.77086          5.2786 
       0.497035         5.67387         5.13648 
       0.503198         5.50197         5.00083 
       0.509342         5.36452          4.8698 
       0.515458         5.22849          4.7425 
       0.521598         5.10423         4.61731 
       0.527764         4.95499         4.49393 
       0.533884         4.87091         4.37429 
           0.54         4.73679         4.25881 
       0.546137         4.62946         4.14803 
       0.552299         4.52517         4.04227 
       0.558452         4.39203          3.9416 
       0.564573         4.31135         3.84551 
       0.570708         4.21115         3.75262 
       0.576825         4.10436         3.66299 
       0.582926         4.02106         3.57625 
       0.589034         3.90666         3.49176 
       0.595184         3.83505         3.40886 
       0.601379         3.74213         3.32764 
       0.607522         3.67931         3.24954 
       0.613639         3.61222         3.17443 
       0.619772         3.50779         3.10193 
       0.625918         3.46057         3.03201 
       0.632068         3.39978          2.9645 
       0.638161         3.31033         2.89975 
         0.6443         3.24135         2.83639 
       0.650464         3.16633         2.77449 
       0.656582          3.1252         2.71467 
       0.662703         3.05972         2.65649 
       0.668861         3.00462         2.59964 
       0.675024         2.93919         2.54445 
       0.681124         2.87896         2.49152 
       0.687237         2.82996         2.44008 
       0.693381         2.77919         2.38992 
       0.699536         2.70362         2.34113 
       0.705665         2.66361         2.29391 
       0.711789         2.61632         2.24801 
       0.717957         2.56235         2.20302 
        0.72409         2.51558         2.15949 
       0.730186         2.47234         2.11738 
       0.736317          2.4443         2.07616 
       0.742472         2.40016         2.03589 
       0.748622         2.34901         1.99675 
        0.75476         2.30356         1.95874 
       0.760888         2.26309          1.9218 
       0.767043          2.2338         1.88569 
       0.773185         2.18437         1.85059 
       0.779291         2.15713         1.81659 
       0.785407         2.11786          1.7834 
       0.791564         2.08728         1.75082 
       0.797719         2.05264         1.71907 
       0.803834         2.02675         1.68831 
       0.809972         1.99242         1.65818 
       0.816124         1.95321         1.62872 
       0.822261         1.91368         1.60006 
       0.828378         1.88903         1.57217 
       0.834502         1.86977         1.54493 
       0.840667         1.82659         1.51816 
       0.846816         1.79651          1.4921 
       0.852925         1.78094         1.46683 
       0.859047         1.75049         1.44209 
       0.865192         1.72401         1.41784 
       0.871341         1.70198         1.39414 
       0.877463          1.6764         1.37108 
       0.883569          1.6445         1.34861 
       0.889708         1.62068         1.32653 
       0.895864         1.59389         1.30489 
       0.902008         1.57161         1.28378 
       0.908149         1.55405         1.26315 
       0.914301         1.52317         1.24294 
       0.920448         1.50247         1.22319 
       0.926574         1.48009         1.20394 
       0.932687         1.45898         1.18514 
       0.938823          1.4423         1.16668 
       0.944975          1.4233         1.14857 
       0.951105         1.40407         1.13092 
       0.957225         1.39236         1.11366 
       0.963368         1.36987         1.09671 
       0.969511         1.34763         1.08011 
       0.975621         1.32766         1.06394 
       0.981748         1.31361         1.04807 
       0.987916         1.29393         1.03242 
        0.99406         1.27197         1.01715 
        1.00019         1.26054         1.00222 
        1.00632         1.24194        0.987602 
        1.01246         1.22661        0.973256 
        1.01859         1.21092        0.959218 
        1.02471         1.19465        0.945475 
        1.03085         1.17985        0.931955 
        1.03698         1.16267        0.918728 
        1.04314         1.15072        0.905702 
        1.04929         1.13544        0.892959 
        1.05541         1.12238        0.880513 
        1.06154         1.10637        0.868275 
        1.06769         1.09616         0.85625 
        1.07382         1.07935        0.844494 
        1.07993         1.06401        0.832984 
        1.08607         1.05724        0.821642 
        1.09222         1.04079          0.8105 
        1.09836         1.03133        0.799578 
        1.10449         1.01973        0.788869 
        1.11063         1.00247        0.778345 
        1.11677        0.991539        0.768016 
         1.1229        0.981164        0.757893 
        1.12903        0.968869        0.747944 
        1.13518        0.958427        0.738165 
        1.14131        0.944919        0.728567 
        1.14745        0.929432        0.719145 
        1.15359        0.923097        0.709888 
        1.15973        0.909115         0.70079 
        1.16584        0.904035        0.691893 
        1.17197        0.892688        0.683137 
        1.17811        0.884947        0.674507 
        1.18424         0.87471        0.666051 
        1.19038        0.863062        0.657715 
        1.19652        0.852838        0.649526 
        1.20267        0.845952        0.641476 
        1.20881        0.834791        0.633564 
        1.21495         0.82722        0.625799 
        1.22108        0.817964        0.618165 
         1.2272        0.811637        0.610676 
        1.23334        0.800148        0.603295 
        1.23949        0.790879        0.596018 
        1.24562        0.784222        0.588882 
        1.25174        0.776065        0.581873 
        1.25789        0.767766        0.574956 
        1.26402        0.757571        0.568165 
        1.27014        0.750345          0.5615 
        1.27628        0.745695        0.554922 
        1.28244        0.734965        0.548436 
        1.28858        0.728727        0.542063 
        1.29471        0.720611        0.535806 
        1.30084         0.71165        0.529653 
        1.30697        0.706286        0.523587 
        1.31312        0.696166        0.517608 
        1.31925        0.691135        0.511741 
        1.32537        0.684044         0.50597 
        1.33151         0.67911        0.500268 
        1.33765        0.670677        0.494657 
        1.34378        0.663854        0.489143 
        1.34992        0.658494         0.48371 
        1.35606        0.649678        0.478347 
         1.3622        0.645465        0.473074 
        1.36833        0.638027        0.467894 
        1.37445        0.630414        0.462794 
        1.38059        0.626302        0.457754 
        1.38675        0.622587        0.452777 
        1.39288         0.61504        0.447894 
        1.39901        0.608444        0.443085 
        1.40515        0.602825        0.438335 
         1.4113        0.597051        0.433658 
        1.41742        0.591712        0.429066 
        1.42355        0.588439        0.424532 
         1.4297        0.580472         0.42005 
        1.43585        0.575364        0.415635 
        1.44198        0.572398          0.4113 
        1.44809        0.565286        0.407035 
        1.45423        0.560478        0.402814 
        1.46036        0.555068        0.398661 
        1.46649        0.550415        0.394565 
        1.47263        0.544712        0.390524 
        1.47877         0.53977        0.386541 
        1.48491        0.535113        0.382607 
        1.49104        0.529839        0.378736 
        1.49718         0.52636        0.374916 
        1.50333        0.520164        0.371142 
        1.50947        0.516752        0.367428 
         1.5156         0.51201        0.363771 
        1.52172        0.507164        0.360163 
        1.52787        0.502155        0.356597 
          1.534        0.498309        0.353083 
        1.54013        0.493435        0.349621 
        1.54627        0.489504        0.346198 
        1.55241        0.484777        0.342821 
        1.55855        0.481219        0.339493 
        1.56467        0.478201        0.336219 
         1.5708        0.472215        0.332978 
        1.57695        0.470146        0.329775 
        1.58308        0.465727        0.326622 
        1.58922        0.461351        0.323507 
        1.59535        0.457873        0.320434 
         1.6015        0.453493        0.317397 
        1.60764        0.450547        0.314401 
        1.61376        0.446548        0.311451 
        1.61989        0.442801        0.308537 
        1.62604        0.438438        0.305653 
        1.63218        0.436227        0.302808 
        1.63831        0.432276        0.300006 
        1.64444        0.428583        0.297238 
        1.65059        0.425012        0.294499 
        1.65673        0.420692        0.291797 
        1.66285        0.418304        0.289136 
        1.66898        0.416503        0.286508 
        1.67512        0.411075        0.283907 
        1.68127        0.407752        0.281336 
         1.6874        0.406208        0.278803 
        1.69353        0.401896        0.276302 
        1.69967        0.398162        0.273826 
        1.70581        0.396136        0.271382 
        1.71193        0.392608        0.268976 
        1.71806        0.389869        0.266595 
        1.72421        0.386674        0.264237 
        1.73035        0.383083        0.261911 
        1.73649        0.381216        0.259614 
        1.74262        0.378195        0.257345 
        1.74876        0.374638        0.255102 
        1.75489        0.371191        0.252891 
        1.76101        0.369038        0.250706 
        1.76715        0.366295        0.248544 
        1.77329        0.363915        0.246405 
        1.77943        0.360181        0.244291 
        1.78557        0.357532        0.242204 
        1.79171        0.355737        0.240141 
        1.79785        0.352525        0.238101 
        1.80399        0.350313        0.236086 
        1.81012        0.347816        0.234097 
        1.81625        0.345125        0.232131 
        1.82239        0.343056        0.230185 
        1.82853        0.339373        0.228262 
        1.83466        0.337217        0.226363 
        1.84078        0.334445        0.224487 
        1.84692        0.332939         0.22263 
        1.85306        0.330916        0.220791 
         1.8592        0.327966        0.218976 
        1.86533        0.325923        0.217182 
        1.87147        0.323446        0.215406 
        1.87761         0.32096         0.21365 
        1.88375        0.318554        0.211915 
        1.88988        0.316895        0.210201 
        1.89601        0.314022        0.208505 
        1.90215        0.311966        0.206826 
        1.90829        0.309329        0.205167 
        1.91442        0.307782        0.203525 
        1.92056        0.305505        0.201904 
         1.9267        0.303074        0.200298 
        1.93284         0.30168        0.198708 
        1.93897        0.298609        0.197139 
        1.94509        0.297356         0.19559 
        1.95123        0.294854        0.194054 
        1.95737        0.292971        0.192533 
        1.96349        0.290677        0.191032 
        1.96964        0.289316        0.189543 
        1.97578        0.286765        0.188069 
        1.98192        0.285364        0.186614 
        1.98805        0.283223        0.185174 
        1.99419        0.281643        0.183749 
        2.00033        0.280277        0.182338 
        2.00647        0.277622        0.180943 
         2.0126        0.275912        0.179564 
        2.01874        0.274332        0.178198 
        2.02488        0.272741        0.176844 
        2.03101        0.269972        0.175508 
        2.03714        0.268074        0.174186 
        2.04328        0.267535        0.172876 
        2.04941        0.265091        0.171581 
        2.05554        0.263347          0.1703 
        2.06167        0.261731         0.16903 
        2.06781        0.259675        0.167774 
        2.07396        0.257945        0.166528 
        2.08009        0.256448        0.165296 
        2.08622        0.254876        0.164079 
        2.09237        0.253608        0.162871 
        2.09851        0.251919        0.161676 
        2.10464        0.250503        0.160494 
        2.11077        0.249015        0.159326 
        2.11691        0.246801        0.158166 
        2.12305          0.2455        0.157018 
        2.12918        0.244286        0.155884 
        2.13531        0.242111        0.154761 
        2.14145        0.241355        0.153647 
         2.1476        0.239349        0.152542 
        2.15372        0.238409        0.151454 
        2.15985        0.236234        0.150375 
        2.16599        0.234468        0.149304 
        2.17213        0.233553        0.148244 
        2.17827        0.232455        0.147195 
         2.1844         0.23101        0.146156 
        2.19054        0.229561        0.145128 
        2.19666        0.227994         0.14411 
         2.2028        0.226775        0.143102 
        2.20893        0.225588        0.142103 
        2.21508         0.22397        0.141112 
        2.22122        0.221762         0.14013 
        2.22736        0.221162        0.139159 
        2.23349        0.220254        0.138198 
        2.23962        0.218794        0.137246 
        2.24577        0.216986        0.136301 
         2.2519        0.215967        0.135367 
        2.25802        0.214478        0.134443 
        2.26417        0.213314        0.133525 
        2.27031        0.212045        0.132615 
        2.27644        0.210958        0.131716 
        2.28257         0.20994        0.130825 
        2.28872        0.208372         0.12994 
        2.29486        0.207256        0.129065 
        2.30099        0.205761        0.128198 
        2.30712        0.204828         0.12734 
        2.31326        0.203771        0.126488 
         2.3194        0.203198        0.125644 
        2.32553        0.201691        0.124809 
        2.33166        0.200622        0.123982 
         2.3378        0.199491        0.123162 
        2.34394        0.197555        0.122349 
        2.35007        0.196841        0.121544 
        2.35619        0.195987        0.120747 
        2.36233        0.194267        0.119956 
        2.36848        0.193568         0.11917 
        2.37462        0.192322        0.118392 
        2.38075         0.19161        0.117623 
        2.38689        0.190309        0.116859 
        2.39303        0.189431        0.116103 
        2.39916        0.188014        0.115354 
        2.40529         0.18719        0.114611 
        2.41143        0.186132        0.113875 
        2.41757        0.185344        0.113144 
         2.4237        0.184194        0.112422 
        2.42983        0.183272        0.111706 
        2.43598        0.182448        0.110994 
        2.44211        0.181511        0.110289 
        2.44823        0.180392        0.109592 
        2.45437        0.179101        0.108899 
        2.46052          0.1784        0.108212 
        2.46665        0.177324        0.107532 
        2.47279        0.176391        0.106858 
        2.47892        0.175468        0.106189 
        2.48507         0.17454        0.105525 
         2.4912        0.173741        0.104868 
