# k  (h/Mpc)    Pcb(k)  (Mpc/h)^3    Pcb_linear(k)  (Mpc/h)^3
     0.00783031         316.511         319.284 
       0.013688         407.958         409.277 
       0.019231         425.647         425.999 
      0.0249154         401.593         403.263 
      0.0312784         356.684         356.928 
      0.0375637         309.758         309.202 
      0.0433917         272.373          272.42 
      0.0492413         245.396         245.092 
      0.0555754         224.241         224.632 
      0.0619321         210.282          209.73 
       0.067871         196.844         197.211 
      0.0738098         183.149         183.617 
      0.0800417         166.709          167.38 
      0.0862327         149.818          150.08 
      0.0921407         134.057         134.086 
      0.0982031         119.592         119.758 
       0.104506         108.416         108.071 
       0.110769         100.022         99.7655 
       0.116806         94.1067         94.2325 
       0.122832         90.2049          90.115 
       0.129052          86.024         86.2351 
       0.135211         81.6592         81.9307 
       0.141259         76.8789         76.9263 
       0.147318         71.4612          71.303 
       0.153489         65.4971         65.4444 
       0.159709         60.0993         59.9928 
       0.165845          55.893         55.4858 
       0.171974         52.1254         52.0076 
       0.178125         49.6073         49.4423 
       0.184229         47.7624         47.5308 
        0.19034         45.8476         45.8945 
       0.196428         44.3292         44.2235 
       0.202534         42.6231         42.3119 
       0.208729         40.2772         40.0968 
       0.214876          37.802         37.7336 
       0.220989         35.7399         35.4041 
       0.227147         33.3782         33.2608 
        0.23329         31.5867          31.444 
       0.239377         30.1863           29.99 
       0.245482         28.9267         28.8286 
       0.251667         28.0967         27.8508 
       0.257832         27.1365         26.9531 
       0.263955         26.2416         26.0395 
       0.270079         25.2637         25.0495 
        0.27624         24.3076         23.9758 
       0.282372         23.2039         22.8722 
        0.28843         22.0641         21.8061 
       0.294538         21.0856         20.8134 
       0.300721          20.297         19.9273 
        0.30691         19.4434         19.1684 
       0.313033         18.8105         18.5236 
       0.319153         18.0883         17.9498 
       0.325316         17.7364          17.403 
        0.33145         17.1536         16.8592 
       0.337538         16.5962         16.3019 
       0.343633         15.9863         15.7285 
       0.349808         15.4452         15.1436 
       0.355968         14.8904          14.577 
       0.362074         14.3477         14.0492 
       0.368217         13.8768         13.5642 
       0.374374         13.3844         13.1263 
       0.380519         13.0392         12.7303 
       0.386598         12.6922         12.3686 
       0.392688         12.3734         12.0223 
        0.39888         12.0015         11.6766 
       0.405048         11.6741         11.3333 
       0.411186         11.3446          10.991 
       0.417313         10.9652         10.6536 
       0.423458         10.6656         10.3252 
       0.429607         10.3245         10.0118 
       0.435692         10.0301         9.72073 
       0.441815         9.76902         9.44792 
       0.447964         9.55798         9.19141 
       0.454126         9.25636         8.94873 
       0.460267         9.02954         8.71716 
       0.466387         8.77715          8.4924 
        0.47254         8.58148         8.27021 
       0.478662          8.3815         8.05312 
       0.484765         8.14431         7.84128 
       0.490885         7.93843         7.63461 
       0.497035         7.79416         7.43465 
       0.503198         7.57668         7.24363 
       0.509342         7.40236         7.06253 
       0.515458          7.2115         6.89052 
       0.521598          7.0544         6.72518 
       0.527764         6.87497         6.56539 
       0.533884         6.75095         6.41172 
           0.54         6.59088         6.26194 
       0.546137         6.45302         6.11488 
       0.552299         6.30897         5.97097 
       0.558452         6.13675         5.83154 
       0.564573           6.027         5.69736 
       0.570708         5.89707         5.56752 
       0.576825         5.75292         5.44268 
       0.582926         5.65027          5.3227 
       0.589034         5.49204         5.20691 
       0.595184         5.39351         5.09422 
       0.601379         5.27883         4.98413 
       0.607522         5.19337         4.87786 
       0.613639         5.10934         4.77464 
       0.619772         4.97391         4.67383 
       0.625918         4.89317          4.5756 
       0.632068         4.81095         4.48019 
       0.638161         4.69845         4.38856 
         0.6443         4.60369         4.29904 
       0.650464         4.50237         4.21185 
       0.656582         4.43998         4.12783 
       0.662703         4.35633         4.04614 
       0.668861          4.2858         3.96625 
       0.675024          4.1929         3.88847 
       0.681124         4.10812         3.81358 
       0.687237         4.04881         3.74049 
       0.693381         3.97804         3.66896 
       0.699536         3.87641         3.59914 
       0.705665         3.81671         3.53142 
       0.711789         3.75729         3.46551 
       0.717957         3.68414         3.40086 
        0.72409         3.62281         3.33825 
       0.730186          3.5604         3.27765 
       0.736317         3.52066         3.21829 
       0.742472          3.4579         3.16021 
       0.748622         3.39142         3.10366 
        0.75476         3.32173         3.04864 
       0.760888         3.27095         2.99504 
       0.767043         3.23464         2.94252 
       0.773185         3.16691         2.89137 
       0.779291         3.12385         2.84173 
       0.785407         3.07245         2.79318 
       0.791564         3.02494         2.74547 
       0.797719         2.98209         2.69891 
       0.803834         2.93916         2.65373 
       0.809972         2.89298         2.60944 
       0.816124         2.84006         2.56609 
       0.822261         2.79038         2.52384 
       0.828378         2.75605         2.48269 
       0.834502         2.72324         2.44244 
       0.840667         2.66635         2.40283 
       0.846816         2.62721         2.36422 
       0.852925         2.60127         2.32671 
       0.859047         2.56194         2.28995 
       0.865192         2.52286         2.25387 
       0.871341         2.48726         2.21855 
       0.877463         2.45874         2.18416 
       0.883569         2.41386         2.15059 
       0.889708         2.37766         2.11756 
       0.895864         2.34711         2.08515 
       0.902008         2.30913         2.05349 
       0.908149         2.28018         2.02251 
       0.914301         2.23724         1.99213 
       0.920448         2.21115         1.96241 
       0.926574         2.17907         1.93341 
       0.932687         2.15161         1.90506 
       0.938823         2.13079         1.87718 
       0.944975         2.09918          1.8498 
       0.951105         2.07367         1.82307 
       0.957225         2.05408         1.79692 
       0.963368         2.02339          1.7712 
       0.969511         1.99238         1.74598 
       0.975621         1.96163          1.7214 
       0.981748          1.9448         1.69723 
       0.987916         1.91747         1.67338 
        0.99406         1.88811         1.65008 
        1.00019         1.87073         1.62727 
        1.00632         1.84153         1.60492 
        1.01246         1.81948         1.58296 
        1.01859         1.80001         1.56145 
        1.02471          1.7748         1.54037 
        1.03085         1.75788         1.51961 
        1.03698         1.73169         1.49927 
        1.04314         1.71368         1.47923 
        1.04929         1.68979         1.45961 
        1.05541         1.67275         1.44042 
        1.06154          1.6505         1.42153 
        1.06769         1.63087         1.40296 
        1.07382          1.6127         1.38478 
        1.07993         1.58815         1.36697 
        1.08607         1.57869          1.3494 
        1.09222         1.55563         1.33212 
        1.09836         1.54446         1.31517 
        1.10449         1.52551         1.29854 
        1.11063         1.50261         1.28218 
        1.11677         1.48428         1.26611 
         1.1229         1.46908         1.25034 
        1.12903          1.4506         1.23483 
        1.13518         1.43924         1.21958 
        1.14131         1.41888         1.20459 
        1.14745         1.39526         1.18986 
        1.15359         1.38787         1.17538 
        1.15973         1.36625         1.16114 
        1.16584         1.36133          1.1472 
        1.17197         1.34295         1.13347 
        1.17811         1.32959         1.11993 
        1.18424         1.31983         1.10664 
        1.19038         1.30062         1.09354 
        1.19652         1.28476         1.08065 
        1.20267         1.27635         1.06798 
        1.20881         1.25772         1.05551 
        1.21495         1.24927         1.04326 
        1.22108         1.23584         1.03121 
         1.2272         1.22575         1.01938 
        1.23334         1.20992         1.00771 
        1.23949         1.19688        0.996193 
        1.24562         1.18662        0.984892 
        1.25174          1.1744        0.973784 
        1.25789          1.1635        0.962815 
        1.26402         1.14735        0.952035 
        1.27014         1.13674        0.941448 
        1.27628         1.13051        0.930991 
        1.28244         1.11344        0.920674 
        1.28858         1.10429        0.910528 
        1.29471         1.09546        0.900559 
        1.30084         1.08227        0.890749 
        1.30697          1.0724        0.881071 
        1.31312         1.05724        0.871524 
        1.31925         1.05116         0.86215 
        1.32537         1.04229        0.852924 
        1.33151          1.0336          0.8438 
        1.33765          1.0223        0.834817 
        1.34378         1.00948        0.825983 
        1.34992         1.00427        0.817271 
        1.35606        0.991935        0.808668 
         1.3622        0.984424        0.800204 
        1.36833        0.974435        0.791883 
        1.37445        0.962668        0.783685 
        1.38059        0.954487        0.775579 
        1.38675        0.952792        0.767568 
        1.39288         0.93914        0.759704 
        1.39901         0.93108        0.751954 
        1.40515        0.923422        0.744296 
         1.4113        0.913341        0.736748 
        1.41742        0.905319        0.729334 
        1.42355        0.901993        0.722009 
         1.4297         0.88949        0.714763 
        1.43585        0.882557         0.70762 
        1.44198        0.878658        0.700603 
        1.44809        0.866406        0.693694 
        1.45423         0.85993        0.686854 
        1.46036        0.852629        0.680119 
        1.46649        0.845522        0.673472 
        1.47263        0.837152        0.666909 
        1.47877        0.829162        0.660437 
        1.48491        0.822775        0.654041 
        1.49104        0.814483        0.647744 
        1.49718         0.80982        0.641525 
        1.50333        0.802306        0.635379 
        1.50947        0.796309        0.629326 
         1.5156        0.788653        0.623361 
        1.52172         0.78212        0.617474 
        1.52787        0.774981        0.611652 
          1.534        0.770148        0.605912 
        1.54013        0.760989        0.600252 
        1.54627        0.755768        0.594655 
        1.55241        0.749092        0.589129 
        1.55855        0.742288        0.583681 
        1.56467        0.739431        0.578317 
         1.5708        0.730941        0.573006 
        1.57695        0.726937        0.567754 
        1.58308        0.720367        0.562581 
        1.58922        0.714656        0.557468 
        1.59535         0.70872        0.552422 
         1.6015        0.703313        0.547431 
        1.60764        0.698302        0.542505 
        1.61376        0.690656        0.537653 
        1.61989        0.687156        0.532857 
        1.62604        0.681357        0.528109 
        1.63218        0.677376        0.523422 
        1.63831        0.670992        0.518803 
        1.64444        0.665434        0.514239 
        1.65059        0.660756        0.509719 
        1.65673        0.655365        0.505258 
        1.66285         0.65043        0.500864 
        1.66898        0.646748        0.496521 
        1.67512        0.639965        0.492221 
        1.68127        0.635117        0.487968 
         1.6874        0.632333        0.483775 
        1.69353         0.62613        0.479635 
        1.69967        0.622125        0.475533 
        1.70581        0.617044        0.471481 
        1.71193        0.612655        0.467492 
        1.71806         0.60795         0.46354 
        1.72421        0.603862        0.459627 
        1.73035         0.59861        0.455764 
        1.73649        0.595728        0.451946 
        1.74262        0.591012        0.448174 
        1.74876        0.585987        0.444444 
        1.75489        0.581915        0.440764 
        1.76101         0.57684        0.437127 
        1.76715        0.573352        0.433526 
        1.77329        0.569246        0.429962 
        1.77943        0.564941        0.426436 
        1.78557        0.561327        0.422955 
        1.79171        0.557636        0.419513 
        1.79785        0.553466        0.416108 
        1.80399        0.549329        0.412743 
        1.81012        0.546132        0.409419 
        1.81625        0.541786        0.406133 
        1.82239        0.538967        0.402879 
        1.82853        0.532985        0.399662 
        1.83466        0.530685        0.396483 
        1.84078        0.526265        0.393343 
        1.84692        0.523673        0.390232 
        1.85306        0.520107         0.38715 
         1.8592        0.516637        0.384107 
        1.86533        0.513365        0.381099 
        1.87147        0.509562        0.378119 
        1.87761        0.506863         0.37517 
        1.88375        0.501457        0.372256 
        1.88988        0.499463        0.369377 
        1.89601        0.495551        0.366526 
        1.90215        0.492731        0.363704 
        1.90829        0.488851        0.360912 
        1.91442        0.486014         0.35815 
        1.92056        0.482523        0.355419 
         1.9267        0.479105        0.352715 
        1.93284        0.476239        0.350036 
        1.93897        0.473449        0.347391 
        1.94509        0.470536        0.344779 
        1.95123        0.466583        0.342188 
        1.95737        0.464506        0.339621 
        1.96349        0.460882        0.337087 
        1.96964        0.457859        0.334572 
        1.97578        0.454837        0.332081 
        1.98192        0.453291        0.329621 
        1.98805        0.449893        0.327186 
        1.99419        0.446509        0.324775 
        2.00033        0.444264        0.322388 
        2.00647        0.441426        0.320025 
         2.0126        0.438237         0.31769 
        2.01874        0.435962        0.315375 
        2.02488        0.433483        0.313081 
        2.03101         0.43007        0.310814 
        2.03714        0.427218        0.308572 
        2.04328        0.425177        0.306349 
        2.04941        0.422484         0.30415 
        2.05554        0.419814        0.301975 
        2.06167        0.417698        0.299818 
        2.06781        0.413674        0.297682 
        2.07396        0.411343        0.295563 
        2.08009        0.409131        0.293469 
        2.08622        0.406967        0.291398 
        2.09237        0.405655        0.289343 
        2.09851          0.4029        0.287307 
        2.10464        0.400302        0.285294 
        2.11077        0.397461        0.283303 
        2.11691        0.395008        0.281327 
        2.12305        0.392824         0.27937 
        2.12918        0.390492        0.277436 
        2.13531        0.388126         0.27552 
        2.14145        0.386027        0.273618 
         2.1476        0.383783        0.271732 
        2.15372        0.382279        0.269873 
        2.15985        0.379244         0.26803 
        2.16599         0.37662        0.266198 
        2.17213        0.375124        0.264386 
        2.17827         0.37325        0.262591 
         2.1844        0.371256        0.260815 
        2.19054        0.368858        0.259054 
        2.19666        0.366037        0.257313 
         2.2028        0.364776        0.255585 
        2.20893        0.362812        0.253873 
        2.21508         0.35997        0.252175 
        2.22122        0.357954        0.250492 
        2.22736        0.356259        0.248827 
        2.23349        0.354625        0.247178 
        2.23962        0.352777        0.245544 
        2.24577        0.349786        0.243923 
         2.2519        0.348881        0.242318 
        2.25802        0.346282        0.240731 
        2.26417        0.344387        0.239154 
        2.27031        0.342305        0.237589 
        2.27644        0.340973        0.236043 
        2.28257        0.338768        0.234511 
        2.28872        0.337164        0.232989 
        2.29486        0.335028        0.231482 
        2.30099        0.333495        0.229991 
        2.30712        0.331977        0.228512 
        2.31326        0.329491        0.227044 
         2.3194        0.329334         0.22559 
        2.32553        0.327327        0.224151 
        2.33166        0.325375        0.222725 
         2.3378        0.323725        0.221309 
        2.34394        0.321121        0.219906 
        2.35007        0.319677        0.218517 
        2.35619        0.317908        0.217141 
        2.36233         0.31571        0.215774 
        2.36848        0.314789        0.214417 
        2.37462        0.312817        0.213073 
        2.38075        0.311926        0.211743 
        2.38689        0.309744        0.210423 
        2.39303        0.308834        0.209114 
        2.39916        0.306371        0.207818 
        2.40529        0.304943        0.206533 
        2.41143        0.303757        0.205258 
        2.41757        0.301867        0.203993 
         2.4237        0.300422        0.202742 
        2.42983        0.298974          0.2015 
        2.43598         0.29802        0.200267 
        2.44211        0.296306        0.199045 
        2.44823        0.295212        0.197836 
        2.45437          0.2927        0.196635 
        2.46052        0.292042        0.195442 
        2.46665         0.29027        0.194261 
        2.47279        0.288565         0.19309 
        2.47892        0.287167        0.191929 
        2.48507        0.285929        0.190775 
         2.4912        0.284694        0.189634 
