# k  (h/Mpc)    Pcb(k)  (Mpc/h)^3    Pcb_linear(k)  (Mpc/h)^3
     0.00783031          7748.8         7846.52 
       0.013688         9993.03         9940.18 
       0.019231         10276.8         10266.9 
      0.0249154         9538.41         9686.88 
      0.0312784         8535.84         8602.05 
      0.0375637         7527.26         7530.66 
      0.0433917         6631.35         6725.81 
      0.0492413         6086.04         6128.22 
      0.0555754         5519.62         5656.23 
      0.0619321         5262.92         5265.46 
       0.067871         4791.94         4898.94 
      0.0738098          4397.4         4497.58 
      0.0800417         3925.51         4048.46 
      0.0862327         3541.73         3612.59 
      0.0921407         3221.48          3245.3 
      0.0982031         2905.43         2942.01 
       0.104506          2736.6         2708.35 
       0.110769         2558.21         2541.01 
       0.116806         2409.82         2413.99 
       0.122832         2302.61         2294.77 
       0.129052         2135.95         2161.39 
       0.135211         2002.31          2013.9 
       0.141259         1886.82         1861.01 
       0.147318         1760.09         1712.65 
       0.153489         1614.53         1578.92 
       0.159709         1526.22         1469.14 
       0.165845         1468.96         1385.47 
       0.171974         1389.67         1320.66 
       0.178125         1329.95         1265.82 
       0.184229         1280.05         1213.28 
        0.19034         1196.96         1157.19 
       0.196428         1167.39         1096.45 
       0.202534         1121.09         1032.87 
       0.208729         1060.06         969.814 
       0.214876         1002.81          912.81 
       0.220989         971.672         864.087 
       0.227147          922.42         823.361 
        0.23329         888.612         789.499 
       0.239377         871.555         760.029 
       0.245482          816.34         731.933 
       0.251667         808.012          703.04 
       0.257832         777.896         673.101 
       0.263955         750.224         642.739 
       0.270079         722.915         612.879 
        0.27624         712.532         584.662 
       0.282372         682.594          559.29 
        0.28843         666.484         537.127 
       0.294538         635.569         517.392 
       0.300721         632.456         499.307 
        0.30691         603.973         482.262 
       0.313033         591.805         465.733 
       0.319153         573.704         449.238 
       0.325316         556.975          432.64 
        0.33145         540.847         416.444 
       0.337538         533.835         401.034 
       0.343633         516.813         386.596 
       0.349808         500.266         373.109 
       0.355968         495.615         360.751 
       0.362074         485.556         349.395 
       0.368217         472.553         338.594 
       0.374374         454.482         328.173 
       0.380519         450.096         318.005 
       0.386598         439.348         308.137 
       0.392688         436.066         298.491 
        0.39888         423.807         289.008 
       0.405048         415.134         279.999 
       0.411186         407.148         271.525 
       0.417313         399.912         263.543 
       0.423458         392.705         255.987 
       0.429607          384.55         248.796 
       0.435692         375.029         241.958 
       0.441815         372.451         235.298 
       0.447964         365.351         228.805 
       0.454126         352.989         222.477 
       0.460267         348.894         216.369 
       0.466387         344.998         210.509 
        0.47254         337.548         204.857 
       0.478662         336.258         199.473 
       0.484765          326.48         194.338 
       0.490885          322.54         189.404 
       0.497035         317.628         184.631 
       0.503198         310.789         180.008 
       0.509342         308.161         175.544 
       0.515458          304.51         171.237 
       0.521598         299.276         167.046 
       0.527764         294.212         162.971 
       0.533884         291.149         159.062 
           0.54         287.147         155.293 
       0.546137         285.797         151.649 
       0.552299         280.115         148.118 
       0.558452         277.264         144.712 
       0.564573         272.811         141.431 
       0.570708         268.077         138.242 
       0.576825         264.529          135.16 
       0.582926         261.653         132.179 
       0.589034         258.487         129.282 
       0.595184         256.051         126.452 
       0.601379         253.578         123.688 
       0.607522          248.68         121.032 
       0.613639         247.582         118.468 
       0.619772         241.881         115.977 
       0.625918         240.358         113.555 
       0.632068         237.309         111.203 
       0.638161         236.169         108.938 
         0.6443         232.227          106.72 
       0.650464         230.154         104.554 
       0.656582         228.528         102.464 
       0.662703         225.928         100.431 
       0.668861         222.465         98.4432 
       0.675024         220.035          96.509 
       0.681124         219.139         94.6477 
       0.687237         215.751         92.8329 
       0.693381         212.806          91.058 
       0.699536         211.376          89.327 
       0.705665         210.728         87.6487 
       0.711789         207.009         86.0154 
       0.717957         206.051         84.4127 
        0.72409         203.552         82.8601 
       0.730186         200.775         81.3564 
       0.736317         199.409         79.8824 
       0.742472         198.316         78.4399 
       0.748622         196.679         77.0349 
        0.75476         195.004         75.6679 
       0.760888         192.347         74.3366 
       0.767043         191.574         73.0324 
       0.773185         189.553         71.7627 
       0.779291         186.512         70.5306 
       0.785407         185.785         69.3261 
       0.791564         184.104         68.1423 
       0.797719         181.847          66.987 
       0.803834         181.041         65.8662 
       0.809972         179.034         64.7672 
       0.816124         179.008         63.6913 
       0.822261           176.5         62.6429 
       0.828378         174.999         61.6216 
       0.834502         174.769         60.6225 
       0.840667         172.055         59.6393 
       0.846816          170.85          58.681 
       0.852925         169.718           57.75 
       0.859047         167.961         56.8375 
       0.865192         166.972          55.942 
       0.871341         165.253         55.0654 
       0.877463         164.142         54.2118 
       0.883569         162.905         53.3786 
       0.889708         161.754         52.5589 
       0.895864         160.107         51.7545 
       0.902008         159.246         50.9688 
       0.908149         158.431         50.2001 
       0.914301         156.693         49.4461 
       0.920448         155.642         48.7085 
       0.926574         154.836         47.9887 
       0.932687         154.084         47.2851 
       0.938823         152.139         46.5932 
       0.944975         150.909         45.9137 
       0.951105          150.21         45.2503 
       0.957225         148.406         44.6013 
       0.963368         147.372         43.9629 
       0.969511         146.877         43.3372 
       0.975621         146.165          42.727 
       0.981748         145.323         42.1272 
       0.987916         143.619         41.5352 
        0.99406         142.943         40.9569 
        1.00019         142.101         40.3909 
        1.00632         141.048         39.8362 
        1.01246         140.107         39.2911 
        1.01859          138.64         38.7572 
        1.02471         138.499          38.234 
        1.03085         137.026         37.7187 
        1.03698         136.063         37.2141 
        1.04314         135.013         36.7166 
        1.04929         134.209         36.2295 
        1.05541         133.472         35.7533 
        1.06154         132.583         35.2846 
        1.06769         132.338         34.8236 
        1.07382         131.478         34.3725 
        1.07993          130.43         33.9304 
        1.08607         129.398         33.4944 
        1.09222         128.798         33.0656 
        1.09836         127.718          32.645 
        1.10449         126.929         32.2322 
        1.11063         126.184         31.8262 
        1.11677         125.698         31.4273 
         1.1229         124.305         31.0361 
        1.12903         123.498         30.6513 
        1.13518         123.649         30.2727 
        1.14131         122.419         29.9007 
        1.14745         121.583         29.5353 
        1.15359         120.844          29.176 
        1.15973         120.532         28.8225 
        1.16584          119.43         28.4766 
        1.17197         118.806         28.1358 
        1.17811         118.101         27.7997 
        1.18424          117.33           27.47 
        1.19038          116.72         27.1448 
        1.19652         116.079          26.825 
        1.20267         115.261         26.5104 
        1.20881         114.552          26.201 
        1.21495         113.799          25.897 
        1.22108         113.243         25.5979 
         1.2272         112.421         25.3043 
        1.23334         111.897         25.0146 
        1.23949         110.807         24.7288 
        1.24562         110.671         24.4483 
        1.25174         109.712         24.1726 
        1.25789         109.233         23.9004 
        1.26402         108.799         23.6328 
        1.27014         107.832         23.3701 
        1.27628         107.528         23.1105 
        1.28244         106.699         22.8545 
        1.28858         106.311         22.6026 
        1.29471         105.485         22.3552 
        1.30084         104.899         22.1117 
        1.30697         104.317         21.8716 
        1.31312         103.941         21.6346 
        1.31925          103.24          21.402 
        1.32537         102.825          21.173 
        1.33151          101.82         20.9466 
        1.33765         101.342         20.7236 
        1.34378         100.696         20.5044 
        1.34992         100.558         20.2882 
        1.35606         99.8911         20.0747 
         1.3622         99.0222         19.8647 
        1.36833         98.7858         19.6581 
        1.37445          98.061         19.4547 
        1.38059         97.5751         19.2535 
        1.38675         96.9196         19.0547 
        1.39288         96.3713         18.8596 
        1.39901         96.2115         18.6672 
        1.40515         95.6484         18.4772 
         1.4113         94.7389         18.2899 
        1.41742         94.6629         18.1059 
        1.42355         93.8417         17.9241 
         1.4297         93.4029         17.7442 
        1.43585         92.7198          17.567 
        1.44198         92.4799         17.3928 
        1.44809         91.8569         17.2213 
        1.45423         91.3342         17.0515 
        1.46036         91.0809         16.8844 
        1.46649         90.5113         16.7194 
        1.47263         90.0435         16.5565 
        1.47877         89.7316         16.3959 
        1.48491         89.0705         16.2371 
        1.49104          88.594         16.0808 
        1.49718         88.1073         15.9265 
        1.50333         87.6245         15.7739 
        1.50947          87.053         15.6237 
         1.5156         86.8319         15.4756 
        1.52172          86.207         15.3295 
        1.52787         86.0368          15.185 
          1.534         85.5334         15.0426 
        1.54013         84.8718         14.9021 
        1.54627         84.4801         14.7632 
        1.55241         84.0215          14.626 
        1.55855         83.6659         14.4908 
        1.56467         83.0758         14.3577 
         1.5708          82.791         14.2259 
        1.57695         82.5317         14.0956 
        1.58308         81.7544         13.9672 
        1.58922          81.654         13.8403 
        1.59535         81.3124          13.715 
         1.6015          80.662         13.5912 
        1.60764         80.3715         13.4689 
        1.61376         79.8786         13.3485 
        1.61989         79.4521         13.2295 
        1.62604          79.128         13.1116 
        1.63218         78.8725         12.9953 
        1.63831         78.3051         12.8807 
        1.64444         77.9382         12.7674 
        1.65059         77.3403         12.6552 
        1.65673         77.1123         12.5445 
        1.66285         76.7385         12.4354 
        1.66898          76.314         12.3276 
        1.67512         75.8031         12.2209 
        1.68127         75.4403         12.1153 
         1.6874         75.1226         12.0113 
        1.69353         74.7965         11.9085 
        1.69967         74.3223         11.8067 
        1.70581         74.1302         11.7061 
        1.71193         73.8669         11.6071 
        1.71806         73.1905          11.509 
        1.72421         73.0395         11.4119 
        1.73035          72.566          11.316 
        1.73649         72.1498         11.2212 
        1.74262         71.9074         11.1276 
        1.74876          71.557          11.035 
        1.75489         71.0831         10.9437 
        1.76101         70.8536         10.8534 
        1.76715         70.3918         10.7641 
        1.77329         70.1439         10.6756 
        1.77943         69.7225         10.5881 
        1.78557         69.4763         10.5017 
        1.79171         69.0785         10.4163 
        1.79785         68.8476         10.3318 
        1.80399         68.4012         10.2482 
        1.81012         68.2195         10.1657 
        1.81625         67.6005         10.0842 
        1.82239         67.3384         10.0034 
        1.82853         66.9775         9.92354 
        1.83466         66.7248         9.84465 
        1.84078          66.283          9.7667 
        1.84692          65.965         9.68948 
        1.85306         65.7267           9.613 
         1.8592         65.2255         9.53747 
        1.86533         65.0255          9.4628 
        1.87147         64.6453         9.38884 
        1.87761         64.3987         9.31565 
        1.88375         64.1772         9.24333 
        1.88988         63.9773         9.17186 
        1.89601         63.4356          9.1011 
        1.90215         63.1921         9.03105 
        1.90829         62.9924         8.96176 
        1.91442         62.5744          8.8932 
        1.92056         62.2244         8.82542 
         1.9267         61.9231         8.75828 
        1.93284         61.5781          8.6918 
        1.93897         61.3024         8.62614 
        1.94509         60.8963          8.5613 
        1.95123         60.7791         8.49697 
        1.95737         60.5493         8.43325 
        1.96349         60.1848         8.37036 
        1.96964         59.9725         8.30793 
        1.97578         59.6052         8.24611 
        1.98192          59.373         8.18504 
        1.98805         59.1545         8.12459 
        1.99419         58.7152         8.06475 
        2.00033         58.4808         8.00549 
        2.00647          58.263         7.94684 
         2.0126         57.8608         7.88888 
        2.01874         57.5752         7.83142 
        2.02488         57.4635         7.77447 
        2.03101         57.0783         7.71821 
        2.03714         56.7716         7.66255 
        2.04328         56.5296         7.60738 
        2.04941         56.1846         7.55281 
        2.05554         55.8532         7.49881 
        2.06167         55.8046         7.44526 
        2.06781         55.5027         7.39223 
        2.07396         55.1294         7.33965 
        2.08009         54.9709         7.28767 
        2.08622         54.5901         7.23626 
        2.09237         54.3767         7.18524 
        2.09851         54.1536         7.13471 
        2.10464         53.8572         7.08475 
        2.11077         53.6582         7.03533 
        2.11691         53.3206         6.98627 
        2.12305         53.0203         6.93768 
        2.12918         52.7569         6.88968 
        2.13531         52.5576         6.84212 
        2.14145         52.3172         6.79491 
         2.1476         52.1327         6.74809 
        2.15372         51.8084         6.70195 
        2.15985          51.585         6.65619 
        2.16599         51.3796         6.61073 
        2.17213         51.2224         6.56575 
        2.17827         50.8733          6.5212 
         2.1844         50.5344          6.4771 
        2.19054         50.3132          6.4334 
        2.19666         50.1549         6.39017 
         2.2028         49.9642         6.34729 
        2.20893         49.7501         6.30479 
        2.21508          49.534         6.26263 
        2.22122         49.2448         6.22085 
        2.22736          48.975         6.17953 
        2.23349          48.835          6.1386 
        2.23962         48.4561         6.09802 
        2.24577         48.2514         6.05778 
         2.2519          48.047         6.01795 
        2.25802         47.9354         5.97855 
        2.26417         47.6184         5.93939 
        2.27031         47.4404         5.90055 
        2.27644         47.0667         5.86217 
        2.28257         46.9668         5.82413 
        2.28872         46.6239         5.78636 
        2.29486         46.4711         5.74894 
        2.30099         46.3046         5.71192 
        2.30712         46.0781         5.67522 
        2.31326         45.8761         5.63878 
         2.3194         45.6105         5.60268 
        2.32553         45.4473         5.56695 
        2.33166         45.1903         5.53156 
         2.3378         44.9266         5.49642 
        2.34394          44.622         5.46159 
        2.35007          44.477          5.4271 
        2.35619         44.4115         5.39295 
        2.36233         44.2359         5.35902 
        2.36848         43.8331         5.32531 
        2.37462          43.781         5.29197 
        2.38075         43.5143         5.25894 
        2.38689         43.4057         5.22617 
        2.39303         43.1772         5.19368 
        2.39916         42.9638          5.1615 
        2.40529         42.6832          5.1296 
        2.41143         42.5206         5.09795 
        2.41757         42.3783         5.06655 
         2.4237          42.197         5.03547 
        2.42983         41.9777         5.00466 
        2.43598         41.7192         4.97403 
        2.44211         41.5779          4.9437 
        2.44823          41.358          4.9137 
        2.45437         41.2261         4.88386 
        2.46052         40.9317         4.85425 
        2.46665         40.8225         4.82494 
        2.47279         40.6443         4.79587 
        2.47892         40.4007         4.76703 
        2.48507         40.2468         4.73841 
         2.4912         40.0838         4.71007 
