# k  (h/Mpc)    P(k)  (Mpc/h)^3    P_linear(k)  (Mpc/h)^3
     0.00783031         5504.89         5588.01 
       0.013688         6260.38         6246.02 
       0.019231         5816.24         5805.64 
      0.0249154         4896.26         4942.69 
      0.0312784         3941.37         3944.76 
      0.0375637         3183.27         3164.31 
      0.0433917          2665.1         2671.24 
      0.0492413         2364.05         2358.98 
      0.0555754         2125.58          2146.5 
      0.0619321         1996.47         1980.08 
       0.067871         1801.64         1813.88 
      0.0738098         1610.71         1620.35 
      0.0800417         1389.15         1401.38 
      0.0862327         1197.78         1196.51 
      0.0921407         1047.59         1035.85 
      0.0982031          921.73         916.199 
       0.104506          856.17         836.221 
       0.110769         802.373          787.45 
       0.116806         760.531         752.661 
       0.122832         726.722         715.835 
       0.129052         670.472         667.618 
       0.135211         615.464         609.795 
       0.141259         563.528         549.381 
       0.147318         511.553         493.024 
       0.153489         461.699         445.849 
       0.159709         429.452         410.954 
       0.165845         409.191         387.454 
       0.171974         387.531         370.979 
       0.178125         373.226         356.925 
       0.184229         357.983         341.769 
        0.19034         333.234         323.607 
       0.196428          318.64         302.836 
       0.202534         301.575         281.075 
       0.208729         279.667         260.269 
       0.214876         260.901         242.567 
       0.220989         249.278         228.512 
       0.227147         236.037         217.582 
        0.23329           226.6         208.867 
       0.239377         220.253         201.144 
       0.245482         206.918         193.297 
       0.251667         202.175          184.71 
       0.257832         193.537         175.524 
       0.263955         184.424         166.226 
       0.270079         175.494         157.326 
        0.27624         170.261         149.247 
       0.282372         163.397         142.305 
        0.28843         156.459         136.455 
       0.294538         149.793         131.328 
       0.300721         146.994         126.578 
        0.30691         140.239         121.965 
       0.313033         135.937         117.356 
       0.319153         129.525         112.684 
       0.325316         126.599         107.995 
        0.33145         121.267         103.495 
       0.337538         118.365         99.3137 
       0.343633         113.808         95.4944 
       0.349808         110.128         91.9885 
       0.355968         107.534         88.8036 
       0.362074         104.184         85.8595 
       0.368217         100.911         83.0246 
       0.374374         97.7029         80.2537 
       0.380519         95.4252         77.5293 
       0.386598         92.6412         74.8932 
       0.392688         90.6539         72.3379 
        0.39888         87.9771         69.8597 
       0.405048         85.5556          67.539 
       0.411186         83.4631         65.3749 
       0.417313         81.1105         63.3473 
       0.423458         79.0513          61.426 
       0.429607         77.0226         59.5873 
       0.435692         74.3496           57.83 
       0.441815         73.4313         56.1159 
       0.447964         72.0251         54.4452 
       0.454126         68.7323         52.8255 
       0.460267           67.83         51.2744 
       0.466387         66.3148         49.7974 
        0.47254          64.931         48.3801 
       0.478662         64.0382          47.035 
       0.484765         61.9907          45.754 
       0.490885          60.733         44.5215 
       0.497035         59.9177          43.327 
       0.503198         58.1291         42.1696 
       0.509342         56.7516         41.0539 
       0.515458         55.7068         39.9804 
       0.521598         54.7784         38.9395 
       0.527764          53.767         37.9316 
       0.533884         52.8988         36.9686 
           0.54         51.6177         36.0432 
       0.546137         50.9859         35.1493 
       0.552299           50.15         34.2836 
       0.558452         48.7456         33.4486 
       0.564573         47.8553         32.6448 
       0.570708         47.1248         31.8651 
       0.576825         46.2818         31.1126 
       0.582926          45.219         30.3861 
       0.589034         44.2397         29.6817 
       0.595184         43.6496         28.9952 
       0.601379         42.8911         28.3263 
       0.607522         41.8938         27.6846 
       0.613639         41.6511         27.0663 
       0.619772          40.663         26.4658 
       0.625918         40.2324         25.8826 
       0.632068         39.6813         25.3166 
       0.638161         39.0031         24.7723 
         0.6443         38.3331           24.24 
       0.650464         37.7214         23.7213 
       0.656582         37.3125         23.2216 
       0.662703         36.5339         22.7364 
       0.668861         35.9863         22.2626 
       0.675024         35.4586         21.8022 
       0.681124         34.8523         21.3596 
       0.687237         34.2024         20.9285 
       0.693381         33.9182         20.5074 
       0.699536         33.1976         20.0972 
       0.705665         33.2547            19.7 
       0.711789         32.3561         19.3139 
       0.717957         31.9562         18.9356 
        0.72409         31.5291         18.5696 
       0.730186           31.02         18.2156 
       0.736317         30.8037         17.8689 
       0.742472         30.2742         17.5302 
       0.748622         29.9576         17.2006 
        0.75476         29.5337         16.8803 
       0.760888         29.0423         16.5686 
       0.767043         28.6801         16.2637 
       0.773185         28.2729         15.9671 
       0.779291         28.1134         15.6797 
       0.785407         27.8389         15.3989 
       0.791564          27.371         15.1233 
       0.797719         26.7678         14.8546 
       0.803834         26.7074         14.5942 
       0.809972         26.3211         14.3391 
       0.816124         25.8981         14.0897 
       0.822261         25.6413         13.8468 
       0.828378         25.4837         13.6105 
       0.834502         25.1579         13.3795 
       0.840667         24.8498         13.1524 
       0.846816         24.4231         12.9312 
       0.852925         24.2199         12.7166 
       0.859047         23.9137         12.5064 
       0.865192         23.6629         12.3002 
       0.871341         23.5469         12.0987 
       0.877463         23.0865         11.9025 
       0.883569         22.8525         11.7113 
       0.889708         22.6166         11.5232 
       0.895864         22.3723         11.3389 
       0.902008         22.1772         11.1589 
       0.908149         21.9419         10.9831 
       0.914301         21.8632         10.8107 
       0.920448         21.5161         10.6422 
       0.926574         21.2804         10.4779 
       0.932687         21.0605         10.3175 
       0.938823          20.768         10.1598 
       0.944975         20.6365         10.0051 
       0.951105         20.4132         9.85423 
       0.957225         20.1629         9.70671 
       0.963368         20.1384         9.56173 
       0.969511         19.8827         9.41973 
       0.975621         19.7316         9.28138 
       0.981748         19.4222         9.14548 
       0.987916         19.2998         9.01146 
        0.99406         19.1174         8.88064 
        1.00019          18.888         8.75269 
        1.00632         18.7583         8.62739 
        1.01246         18.6726         8.50437 
        1.01859         18.3412         8.38396 
        1.02471         18.2963         8.26604 
        1.03085         18.1299            8.15 
        1.03698         17.8283         8.03643 
        1.04314          17.727         7.92456 
        1.04929         17.5453         7.81509 
        1.05541         17.3608         7.70813 
        1.06154         17.2858         7.60292 
        1.06769         17.1615         7.49952 
        1.07382         16.9803         7.39839 
        1.07993         16.8659         7.29935 
        1.08607         16.6542         7.20172 
        1.09222         16.5774         7.10579 
        1.09836         16.3876         7.01172 
        1.10449         16.2707         6.91947 
        1.11063         16.0581         6.82879 
        1.11677         16.0098         6.73976 
         1.1229         15.9075         6.65249 
        1.12903          15.714         6.56669 
        1.13518          15.585         6.48233 
        1.14131         15.5263         6.39951 
        1.14745         15.3538         6.31818 
        1.15359         15.3031         6.23826 
        1.15973         15.1114         6.15969 
        1.16584         14.9433         6.08283 
        1.17197         14.9397         6.00718 
        1.17811         14.7425         5.93258 
        1.18424         14.6345         5.85948 
        1.19038         14.5773          5.7874 
        1.19652         14.4752         5.71656 
        1.20267         14.3544         5.64691 
        1.20881         14.2282         5.57845 
        1.21495         14.1474         5.51123 
        1.22108         14.0196         5.44513 
         1.2272         13.8924         5.38028 
        1.23334         13.8395         5.31634 
        1.23949         13.7054         5.25329 
        1.24562         13.6261         5.19144 
        1.25174         13.5461         5.13068 
        1.25789         13.4158         5.07071 
        1.26402         13.3676         5.01182 
        1.27014         13.2071           4.954 
        1.27628         13.1182         4.89693 
        1.28244         13.0581         4.84064 
        1.28858         13.0001         4.78533 
        1.29471         12.8879           4.731 
        1.30084         12.7866         4.67756 
        1.30697         12.7042         4.62487 
        1.31312         12.5713         4.57292 
        1.31925         12.4952         4.52193 
        1.32537         12.4527         4.47177 
        1.33151         12.3538         4.42219 
        1.33765         12.2902         4.37339 
        1.34378         12.2014         4.32543 
        1.34992         12.0685         4.27815 
        1.35606         12.0509         4.23148 
         1.3622         11.9755         4.18559 
        1.36833         11.8551         4.14049 
        1.37445         11.8382         4.09608 
        1.38059         11.7235         4.05219 
        1.38675         11.5852         4.00883 
        1.39288         11.5764         3.96629 
        1.39901         11.4878         3.92438 
        1.40515         11.4423         3.88298 
         1.4113         11.3504          3.8422 
        1.41742         11.2534         3.80216 
        1.42355         11.2143         3.76262 
         1.4297         11.1764         3.72353 
        1.43585         11.1036           3.685 
        1.44198         11.0217         3.64717 
        1.44809         10.9396         3.60995 
        1.45423         10.8853          3.5731 
        1.46036         10.8262         3.53684 
        1.46649         10.7725         3.50107 
        1.47263          10.674         3.46577 
        1.47877         10.6248         3.43097 
        1.48491         10.5995         3.39659 
        1.49104         10.5361         3.36276 
        1.49718         10.4442         3.32937 
        1.50333         10.4019         3.29638 
        1.50947         10.3345          3.2639 
         1.5156          10.264          3.2319 
        1.52172         10.2153         3.20034 
        1.52787          10.172         3.16914 
          1.534         10.0888         3.13839 
        1.54013          10.014         3.10808 
        1.54627         9.96197         3.07811 
        1.55241         9.91297         3.04854 
        1.55855         9.85021         3.01939 
        1.56467         9.80252         2.99071 
         1.5708         9.79359         2.96232 
        1.57695          9.6979         2.93426 
        1.58308         9.66834         2.90662 
        1.58922         9.61817         2.87933 
        1.59535         9.54708         2.85239 
         1.6015         9.48919         2.82576 
        1.60764         9.45615         2.79948 
        1.61376         9.39027         2.77362 
        1.61989         9.33215         2.74805 
        1.62604         9.32083         2.72276 
        1.63218         9.25887         2.69779 
        1.63831         9.21947          2.6732 
        1.64444         9.13527         2.64891 
        1.65059         9.09323         2.62486 
        1.65673         9.07246         2.60113 
        1.66285         8.99491         2.57777 
        1.66898         8.98717         2.55468 
        1.67512         8.93356         2.53183 
        1.68127         8.89297         2.50924 
         1.6874          8.8276         2.48698 
        1.69353         8.76337           2.465 
        1.69967         8.74331         2.44324 
        1.70581         8.70962         2.42175 
        1.71193         8.65294         2.40059 
        1.71806         8.60805         2.37965 
        1.72421         8.56716         2.35892 
        1.73035         8.51314         2.33845 
        1.73649         8.48991         2.31823 
        1.74262          8.4684         2.29827 
        1.74876         8.41808         2.27853 
        1.75489         8.37307         2.25906 
        1.76101         8.31113         2.23983 
        1.76715          8.2989         2.22079 
        1.77329          8.2309         2.20195 
        1.77943         8.19767         2.18333 
        1.78557         8.18016         2.16494 
        1.79171         8.14277         2.14676 
        1.79785         8.07146         2.12879 
        1.80399          8.0525         2.11103 
        1.81012         8.03654          2.0935 
        1.81625         7.98049         2.07617 
        1.82239         7.94126         2.05901 
        1.82853         7.88864         2.04206 
        1.83466         7.84639         2.02531 
        1.84078         7.81771         2.00877 
        1.84692         7.79697         1.99238 
        1.85306         7.74622         1.97616 
         1.8592          7.7193         1.96015 
        1.86533         7.69826         1.94432 
        1.87147         7.65288         1.92865 
        1.87761         7.62979         1.91314 
        1.88375          7.5611         1.89782 
        1.88988         7.55095         1.88269 
        1.89601         7.52267         1.86771 
        1.90215         7.47984         1.85289 
        1.90829         7.44494         1.83823 
        1.91442         7.41665         1.82373 
        1.92056         7.38226          1.8094 
         1.9267         7.34969         1.79521 
        1.93284         7.30929         1.78116 
        1.93897         7.28075         1.76729 
        1.94509          7.2431          1.7536 
        1.95123         7.22816         1.74002 
        1.95737         7.19926         1.72657 
        1.96349         7.16551          1.7133 
        1.96964         7.11877         1.70013 
        1.97578         7.09065         1.68709 
        1.98192         7.06396         1.67422 
        1.98805           7.048         1.66148 
        1.99419         6.99998         1.64887 
        2.00033         6.97421         1.63638 
        2.00647         6.94538         1.62403 
         2.0126         6.92449         1.61183 
        2.01874         6.88067         1.59973 
        2.02488         6.84326         1.58775 
        2.03101          6.8387         1.57591 
        2.03714         6.80573          1.5642 
        2.04328         6.77546          1.5526 
        2.04941         6.73001         1.54113 
        2.05554         6.72396         1.52978 
        2.06167         6.68264         1.51853 
        2.06781         6.67229         1.50739 
        2.07396         6.65343         1.49634 
        2.08009         6.62462         1.48543 
        2.08622         6.55794         1.47464 
        2.09237         6.56904         1.46393 
        2.09851         6.53329         1.45333 
        2.10464         6.50062         1.44285 
        2.11077         6.46308         1.43249 
        2.11691         6.44585          1.4222 
        2.12305          6.4322         1.41202 
        2.12918         6.39373         1.40196 
        2.13531         6.37644           1.392 
        2.14145          6.3471         1.38211 
         2.1476         6.34093          1.3723 
        2.15372         6.30302         1.36264 
        2.15985         6.26792         1.35307 
        2.16599         6.26243         1.34355 
        2.17213         6.22614         1.33415 
        2.17827         6.21004         1.32483 
         2.1844         6.18231         1.31561 
        2.19054         6.15372         1.30647 
        2.19666         6.14006         1.29743 
         2.2028         6.11277         1.28847 
        2.20893         6.09241          1.2796 
        2.21508         6.05816         1.27079 
        2.22122         6.03409         1.26207 
        2.22736         6.01952         1.25344 
        2.23349          5.9856          1.2449 
        2.23962         5.97281         1.23643 
        2.24577         5.94874         1.22803 
         2.2519         5.93135         1.21973 
        2.25802         5.90233         1.21151 
        2.26417         5.88683         1.20335 
        2.27031         5.84587         1.19525 
        2.27644         5.83682         1.18726 
        2.28257         5.81357         1.17933 
        2.28872         5.79801         1.17146 
        2.29486         5.77303         1.16367 
        2.30099         5.77013         1.15597 
        2.30712         5.72963         1.14833 
        2.31326         5.71033         1.14074 
         2.3194         5.69098         1.13323 
        2.32553          5.6666          1.1258 
        2.33166         5.64334         1.11844 
         2.3378         5.62707         1.11113 
        2.34394         5.61221         1.10389 
        2.35007         5.58224         1.09672 
        2.35619         5.55625         1.08963 
        2.36233         5.54251         1.08258 
        2.36848         5.53413         1.07558 
        2.37462         5.51088         1.06865 
        2.38075         5.47971         1.06179 
        2.38689         5.46279         1.05499 
        2.39303         5.44399         1.04825 
        2.39916         5.43736         1.04157 
        2.40529         5.41008         1.03495 
        2.41143         5.39184         1.02839 
        2.41757         5.37708         1.02188 
         2.4237         5.36022         1.01543 
        2.42983         5.32878         1.00905 
        2.43598         5.33134          1.0027 
        2.44211         5.30225        0.996414 
        2.44823         5.27874        0.990198 
        2.45437         5.27284        0.984019 
        2.46052         5.24159        0.977887 
        2.46665         5.22219        0.971817 
        2.47279         5.20324        0.965802 
        2.47892         5.19336        0.959833 
        2.48507         5.16532         0.95391 
         2.4912         5.15516        0.948047 
