# k  (h/Mpc)    P(k)  (Mpc/h)^3    P_linear(k)  (Mpc/h)^3
     0.00783031         9157.81         9280.24 
       0.013688         12395.4         12323.5 
       0.019231           13285         13295.8 
      0.0249154         12825.5         13085.9 
      0.0312784         11936.2         12096.4 
      0.0375637           10814           10883 
      0.0433917         9612.28          9843.1 
      0.0492413         8863.12         8997.26 
      0.0555754         8005.53          8307.2 
      0.0619321         7699.02         7777.61 
       0.067871         7074.09         7342.94 
      0.0738098         6631.15         6898.57 
      0.0800417         6055.44         6387.57 
      0.0862327         5594.18         5842.07 
      0.0921407         5159.68         5320.84 
      0.0982031         4661.19         4827.77 
       0.104506         4362.59         4394.67 
       0.110769         4029.71         4058.27 
       0.116806         3766.59         3814.56 
       0.122832         3598.53         3627.79 
       0.129052          3366.8         3464.65 
       0.135211         3217.75         3305.69 
       0.141259         3095.94         3135.58 
       0.147318         2937.65         2947.62 
       0.153489         2713.27         2745.87 
       0.159709         2570.71         2546.54 
       0.165845         2469.18         2368.16 
       0.171974         2317.51         2217.46 
       0.178125         2202.24         2096.18 
       0.184229          2117.3         2001.45 
        0.19034         1995.97          1923.9 
       0.196428         1968.55         1854.21 
       0.202534         1906.23         1783.67 
       0.208729         1826.76         1706.54 
       0.214876          1746.8         1623.85 
       0.220989         1697.45         1538.53 
       0.227147         1614.31         1454.33 
        0.23329         1552.32         1376.83 
       0.239377         1528.11         1309.59 
       0.245482         1432.85         1252.58 
       0.251667         1425.08         1204.18 
       0.257832         1374.11         1162.49 
       0.263955         1332.16         1124.34 
       0.270079         1291.42         1086.54 
        0.27624          1280.3         1047.19 
       0.282372         1225.65         1006.39 
        0.28843         1213.96         965.277 
       0.294538         1156.53         924.556 
       0.300721         1153.18         885.652 
        0.30691         1104.71         850.255 
       0.313033         1084.93         819.102 
       0.319153         1063.93         791.566 
       0.325316         1030.14         766.569 
        0.33145         1006.78          743.38 
       0.337538         995.294          721.01 
       0.343633         969.069         698.658 
       0.349808         939.253         675.777 
       0.355968         934.585         652.937 
       0.362074          921.83         630.695 
       0.368217         896.253         609.232 
       0.374374         862.324         589.073 
       0.380519          860.04         570.461 
       0.386598          841.28          553.54 
       0.392688         838.542          537.81 
        0.39888         814.367          522.73 
       0.405048         803.185         508.297 
       0.411186          790.85          494.22 
       0.417313         775.929         480.345 
       0.423458         764.786         466.618 
       0.429607         751.379         453.152 
       0.435692         736.241         440.264 
       0.441815         732.883         427.873 
       0.447964         717.393         416.074 
       0.454126         704.281          404.92 
       0.460267         693.109         394.425 
       0.466387         685.658         384.459 
        0.47254         674.763         374.815 
       0.478662         672.616         365.513 
       0.484765         655.179         356.462 
       0.490885           649.8         347.568 
       0.497035         637.469         338.845 
       0.503198         630.729         330.364 
       0.509342          624.83           322.2 
       0.515458         620.683         314.382 
       0.521598         608.325         306.859 
       0.527764         595.215         299.631 
       0.533884         594.968          292.74 
           0.54         587.259         286.094 
       0.546137         585.133         279.625 
       0.552299         575.014         273.314 
       0.558452          572.09         267.183 
       0.564573         562.891         261.238 
       0.570708         556.352         255.437 
       0.576825         543.849          249.82 
       0.582926         544.083         244.397 
       0.589034         538.991         239.151 
       0.595184         533.847         234.048 
       0.601379         528.165         229.076 
       0.607522         520.524         224.298 
       0.613639         520.268         219.679 
       0.619772         506.299         215.181 
       0.625918         505.528         210.796 
       0.632068         499.033         206.525 
       0.638161         497.181         202.403 
         0.6443         487.488         198.358 
       0.650464         485.579         194.407 
       0.656582         484.599         190.596 
       0.662703         480.399         186.893 
       0.668861         471.982         183.276 
       0.675024         468.646         179.759 
       0.681124         466.277         176.374 
       0.687237         461.612          173.07 
       0.693381         455.998         169.833 
       0.699536         450.802         166.671 
       0.705665         449.015         163.602 
       0.711789         444.831         160.613 
       0.717957         441.068         157.678 
        0.72409         437.512         154.835 
       0.730186         433.294         152.081 
       0.736317         429.748         149.382 
       0.742472         428.399          146.74 
       0.748622         423.569         144.165 
        0.75476         419.206         141.659 
       0.760888          414.46         139.217 
       0.767043         414.907         136.822 
       0.773185         409.185          134.49 
       0.779291         404.182         132.225 
       0.785407         402.203         130.009 
       0.791564         398.171         127.831 
       0.797719         395.852         125.705 
       0.803834         392.837         123.641 
       0.809972         390.385         121.618 
       0.816124         390.661         119.635 
       0.822261         383.873         117.703 
       0.828378         382.298         115.821 
       0.834502         379.991         113.978 
       0.840667         374.925         112.164 
       0.846816         373.819         110.395 
       0.852925         370.256         108.676 
       0.859047         369.648          106.99 
       0.865192         366.169         105.334 
       0.871341         362.945         103.713 
       0.877463         360.611         102.134 
       0.883569         358.135         100.592 
       0.889708         355.476         99.0744 
       0.895864          351.41         97.5845 
       0.902008         350.779         96.1287 
       0.908149         348.619         94.7039 
       0.914301         344.477          93.306 
       0.920448         341.763          91.938 
       0.926574         339.157         90.6026 
       0.932687         339.371         89.2968 
       0.938823         334.992         88.0123 
       0.944975         334.304         86.7505 
       0.951105         331.363         85.5182 
       0.957225         328.575         84.3123 
       0.963368         324.907         83.1257 
       0.969511         323.287         81.9622 
       0.975621         320.777         80.8274 
       0.981748         321.145         79.7115 
       0.987916         317.694         78.6098 
        0.99406         313.659         77.5333 
        1.00019         313.871         76.4793 
        1.00632         311.423          75.446 
        1.01246         308.666         74.4305 
        1.01859         308.684         73.4356 
        1.02471         304.919         72.4602 
        1.03085          302.04         71.4993 
        1.03698         301.276         70.5581 
        1.04314         298.868         69.6299 
        1.04929         296.446         68.7208 
        1.05541         295.633         67.8318 
        1.06154         292.432         66.9564 
        1.06769         291.383         66.0954 
        1.07382         289.694         65.2524 
        1.07993         287.555         64.4262 
        1.08607         286.657         63.6111 
        1.09222          284.31         62.8093 
        1.09836         281.827         62.0225 
        1.10449         279.276         61.2502 
        1.11063         277.325         60.4903 
        1.11677         276.854         59.7437 
         1.1229         274.928         59.0111 
        1.12903         272.783         58.2902 
        1.13518         271.087          57.581 
        1.14131         269.379          56.884 
        1.14745         268.781         56.1991 
        1.15359         266.077         55.5254 
        1.15973         265.437         54.8626 
        1.16584         262.476         54.2137 
        1.17197          262.07         53.5745 
        1.17811         259.789         52.9437 
        1.18424         258.184          52.325 
        1.19038         257.127         51.7145 
        1.19652         255.236          51.114 
        1.20267         254.335         50.5232 
        1.20881         252.352         49.9419 
        1.21495         250.277         49.3707 
        1.22108         249.516         48.8087 
         1.2272         247.614         48.2568 
        1.23334             246         47.7122 
        1.23949         244.596         47.1748 
        1.24562         243.396         46.6473 
        1.25174         240.488         46.1286 
        1.25789         239.392         45.6164 
        1.26402         238.507         45.1129 
        1.27014          236.81         44.6182 
        1.27628         235.594         44.1296 
        1.28244         234.905         43.6474 
        1.28858         232.758         43.1731 
        1.29471         230.591         42.7069 
        1.30084         229.557         42.2482 
        1.30697         228.062         41.7955 
        1.31312         226.726         41.3489 
        1.31925         226.243         40.9102 
        1.32537         224.789         40.4784 
        1.33151         222.892         40.0514 
        1.33765         221.539         39.6308 
        1.34378         220.527         39.2171 
        1.34992         219.148         38.8091 
        1.35606         218.447         38.4061 
         1.3622         217.022         38.0095 
        1.36833         215.043         37.6196 
        1.37445         213.453         37.2353 
        1.38059         212.333         36.8553 
        1.38675         211.198         36.4797 
        1.39288         209.823         36.1109 
        1.39901         209.573         35.7474 
        1.40515          207.88         35.3881 
         1.4113         206.013          35.034 
        1.41742          205.54          34.686 
        1.42355         203.332         34.3422 
         1.4297         202.523          34.002 
        1.43585         200.866         33.6667 
        1.44198         200.125         33.3371 
        1.44809         199.245         33.0126 
        1.45423         197.396         32.6913 
        1.46036         196.935         32.3748 
        1.46649         195.562         32.0625 
        1.47263         194.284          31.754 
        1.47877         193.256         31.4498 
        1.48491         191.782         31.1491 
        1.49104         191.125          30.853 
        1.49718         189.095         30.5606 
        1.50333         188.428         30.2715 
        1.50947         187.498         29.9867 
         1.5156         186.162         29.7061 
        1.52172         185.084         29.4291 
        1.52787         183.864         29.1551 
          1.534         183.348         28.8849 
        1.54013         181.489         28.6185 
        1.54627         181.106          28.355 
        1.55241          179.55         28.0947 
        1.55855          178.66         27.8381 
        1.56467         177.609         27.5855 
         1.5708         176.718         27.3353 
        1.57695         175.242         27.0878 
        1.58308         174.908          26.844 
        1.58922         173.623          26.603 
        1.59535         172.316         26.3651 
         1.6015         171.886         26.1298 
        1.60764         170.471         25.8975 
        1.61376         169.322         25.6687 
        1.61989         168.452         25.4425 
        1.62604         167.676         25.2185 
        1.63218         166.668         24.9974 
        1.63831         165.623         24.7794 
        1.64444         164.798          24.564 
        1.65059         163.828         24.3507 
        1.65673          162.81         24.1401 
        1.66285           162.1         23.9326 
        1.66898         161.214         23.7276 
        1.67512         160.333         23.5245 
        1.68127         159.066         23.3236 
         1.6874         157.611         23.1256 
        1.69353         157.268         22.9299 
        1.69967         156.334         22.7361 
        1.70581         155.429         22.5447 
        1.71193         154.393         22.3561 
        1.71806          153.75         22.1694 
        1.72421         152.904         21.9844 
        1.73035         151.809         21.8017 
        1.73649         151.333         21.6212 
        1.74262         150.213         21.4429 
        1.74876         149.708         21.2665 
        1.75489         148.162         21.0924 
        1.76101         147.709         20.9204 
        1.76715         146.793           20.75 
        1.77329          146.18         20.5813 
        1.77943         145.059         20.4145 
        1.78557         144.295         20.2498 
        1.79171         143.464         20.0868 
        1.79785         142.671         19.9257 
        1.80399         141.899         19.7663 
        1.81012         141.125         19.6089 
        1.81625         140.254         19.4533 
        1.82239         139.735         19.2992 
        1.82853         139.036         19.1468 
        1.83466         138.107         18.9963 
        1.84078          137.41         18.8475 
        1.84692         136.355            18.7 
        1.85306         135.716          18.554 
         1.8592         134.641         18.4098 
        1.86533         134.006         18.2672 
        1.87147         133.133         18.1259 
        1.87761         132.743         17.9861 
        1.88375         131.445          17.848 
        1.88988         130.881         17.7114 
        1.89601         129.976         17.5762 
        1.90215          129.41         17.4424 
        1.90829         128.828         17.3099 
        1.91442         128.313         17.1789 
        1.92056          127.48         17.0493 
         1.9267         126.714          16.921 
        1.93284         126.093         16.7939 
        1.93897         125.317         16.6684 
        1.94509          124.84         16.5444 
        1.95123         124.096         16.4213 
        1.95737         123.355         16.2995 
        1.96349         122.641         16.1792 
        1.96964         121.593         16.0597 
        1.97578         121.218         15.9415 
        1.98192         120.364         15.8246 
        1.98805         119.493         15.7089 
        1.99419         119.108         15.5944 
        2.00033         118.528          15.481 
        2.00647         117.845         15.3687 
         2.0126         117.268         15.2578 
        2.01874         116.384         15.1478 
        2.02488         116.087         15.0387 
        2.03101         115.053          14.931 
        2.03714         114.397         14.8244 
        2.04328         114.014         14.7187 
        2.04941         113.253         14.6142 
        2.05554         112.478         14.5108 
        2.06167         112.054         14.4082 
        2.06781          111.72         14.3066 
        2.07396         110.709         14.2058 
        2.08009         110.004         14.1062 
        2.08622         109.743         14.0077 
        2.09237         108.805         13.9099 
        2.09851         108.474         13.8131 
        2.10464         107.711         13.7173 
        2.11077         107.203         13.6225 
        2.11691         106.728         13.5285 
        2.12305         105.995         13.4353 
        2.12918         105.304         13.3433 
        2.13531         104.976         13.2521 
        2.14145         104.021         13.1615 
         2.1476         103.719         13.0717 
        2.15372         103.177         12.9832 
        2.15985         102.689         12.8954 
        2.16599         102.105         12.8082 
        2.17213         101.319         12.7219 
        2.17827         101.101         12.6364 
         2.1844         100.342         12.5518 
        2.19054         100.032         12.4679 
        2.19666         99.3908         12.3849 
         2.2028         98.8768         12.3026 
        2.20893         98.1645          12.221 
        2.21508         97.5185         12.1401 
        2.22122         97.1942         12.0598 
        2.22736          96.531         11.9805 
        2.23349         96.3452         11.9019 
        2.23962         95.6213          11.824 
        2.24577         95.0423         11.7467 
         2.2519         94.7633         11.6702 
        2.25802         93.9358         11.5945 
        2.26417         93.5405         11.5192 
        2.27031         93.1074         11.4446 
        2.27644         92.5476         11.3709 
        2.28257         91.9035         11.2978 
        2.28872         91.5786         11.2252 
        2.29486         91.1611         11.1533 
        2.30099         90.5742         11.0821 
        2.30712         89.9568         11.0115 
        2.31326         89.7139         10.9415 
         2.3194         89.1449         10.8721 
        2.32553         88.6763         10.8034 
        2.33166         88.0927         10.7353 
         2.3378         87.6032         10.6678 
        2.34394         87.3118         10.6008 
        2.35007         86.6698         10.5345 
        2.35619         86.1321         10.4688 
        2.36233         85.7131         10.4035 
        2.36848         85.3678         10.3387 
        2.37462         84.9561         10.2745 
        2.38075          84.593          10.211 
        2.38689         83.9363         10.1479 
        2.39303         83.5239         10.0854 
        2.39916         83.2239         10.0235 
        2.40529         82.8331         9.96209 
        2.41143         82.2945         9.90117 
        2.41757         81.8588         9.84073 
         2.4237         81.5982         9.78092 
        2.42983         81.0457          9.7216 
        2.43598         80.5875         9.66263 
        2.44211         80.1905         9.60424 
        2.44823         79.7345         9.54647 
        2.45437         79.3501         9.48901 
        2.46052         78.8155         9.43199 
        2.46665         78.4157         9.37553 
        2.47279         78.0458         9.31956 
        2.47892         77.6652         9.26401 
        2.48507         77.2032         9.20886 
         2.4912         76.8156         9.15427 
