# k  (h/Mpc)    Pcb(k)  (Mpc/h)^3    Pcb_linear(k)  (Mpc/h)^3
     0.00783031          4642.6          4696.8 
       0.013688         5905.94          5888.4 
       0.019231         6014.64         6007.84 
      0.0249154         5525.13         5586.72 
      0.0312784         4850.81         4870.41 
      0.0375637         4192.57         4183.55 
      0.0433917         3651.29         3678.25 
      0.0492413          3308.1         3314.01 
      0.0555754         2998.89         3041.93 
      0.0619321         2845.08         2833.22 
       0.067871         2613.11         2644.82 
      0.0738098         2404.56         2435.46 
      0.0800417         2151.69         2192.02 
      0.0862327         1926.24         1945.93 
      0.0921407         1729.47         1731.56 
      0.0982031         1542.26         1550.62 
       0.104506         1429.47         1410.94 
       0.110769         1329.23         1314.82 
       0.116806         1251.51          1248.6 
       0.122832         1201.63         1192.66 
       0.129052         1125.97         1132.03 
       0.135211         1058.76         1062.09 
       0.141259         994.671         984.565 
       0.147318         922.677         904.185 
       0.153489           841.6         827.507 
       0.159709         784.441         761.964 
       0.165845          745.21         711.472 
       0.171974         700.422          673.91 
       0.178125          671.36          645.25 
       0.184229         647.737         620.856 
        0.19034         609.063         596.158 
       0.196428         592.936         568.757 
       0.202534         569.862         538.162 
       0.208729         535.804         505.515 
       0.214876         502.427         473.969 
       0.220989         482.985         445.656 
       0.227147         454.352         421.507 
        0.23329         435.712         401.893 
       0.239377         424.294         386.005 
       0.245482         399.384           372.2 
       0.251667         393.656         358.911 
       0.257832         380.061         345.304 
       0.263955         365.604         331.012 
       0.270079         351.386         316.148 
        0.27624         343.442         301.263 
       0.282372         328.904         287.218 
        0.28843         316.462         274.646 
       0.294538         302.948         263.488 
       0.300721         298.776         253.647 
        0.30691         285.424         244.888 
       0.313033         278.345         236.847 
       0.319153         267.017         229.028 
       0.325316         261.099         221.133 
        0.33145         252.064         213.198 
       0.337538         247.654          205.36 
       0.343633           239.1         197.733 
       0.349808         231.588         190.436 
       0.355968          227.03         183.695 
       0.362074         220.649         177.589 
       0.368217         214.698         171.945 
       0.374374         208.128         166.673 
       0.380519         204.002         161.664 
       0.386598         198.702         156.839 
       0.392688         195.585         152.093 
        0.39888         190.397         147.342 
       0.405048         186.011         142.722 
       0.411186         181.857         138.294 
       0.417313         177.538         134.084 
       0.423458         173.725         130.097 
       0.429607         169.501         126.347 
       0.435692         164.207         122.839 
       0.441815         162.959         119.474 
       0.447964         160.209         116.227 
       0.454126         153.268         113.072 
       0.460267         151.522         110.009 
       0.466387         149.043         107.039 
        0.47254         146.192         104.145 
       0.478662         144.463         101.367 
       0.484765         140.497         98.7072 
       0.490885         138.092         96.1564 
       0.497035         136.317         93.7058 
       0.503198         132.598         91.3508 
       0.509342         130.131         89.0907 
       0.515458         128.277         86.9181 
       0.521598         126.566         84.8056 
       0.527764         124.547         82.7456 
       0.533884          122.47           80.76 
           0.54         120.308         78.8371 
       0.546137         119.186         76.9714 
       0.552299         117.346         75.1635 
       0.558452         114.643         73.4217 
       0.564573         112.591         71.7483 
       0.570708         111.221         70.1277 
       0.576825         109.516         68.5649 
       0.582926         107.502         67.0551 
       0.589034         105.481         65.5882 
       0.595184         104.312         64.1533 
       0.601379         103.131         62.7495 
       0.607522         100.611         61.3982 
       0.613639         100.459         60.0928 
       0.619772         98.1038         58.8241 
       0.625918         97.2365         57.5916 
       0.632068          96.062         56.3954 
       0.638161         94.8328         55.2449 
         0.6443         93.5115         54.1188 
       0.650464         92.2921         53.0202 
       0.656582         91.2286         51.9602 
       0.662703         89.4908         50.9291 
       0.668861         88.5647         49.9203 
       0.675024         87.4862         48.9384 
       0.681124         86.3316         47.9931 
       0.687237         84.8482         47.0712 
       0.693381         84.0497         46.1697 
       0.699536         82.8431         45.2905 
       0.705665         83.2249         44.4385 
       0.711789         80.9466         43.6096 
       0.717957         80.4178         42.7965 
        0.72409         79.2931         42.0091 
       0.730186         78.0046         41.2466 
       0.736317         77.8197         40.4992 
       0.742472         76.7527         39.7678 
       0.748622         76.0909         39.0554 
        0.75476         75.2026         38.3621 
       0.760888         74.1563          37.687 
       0.767043         73.4263         37.0256 
       0.773185         72.5484         36.3817 
       0.779291         72.1067         35.7569 
       0.785407         71.4484         35.1462 
       0.791564         70.4389          34.546 
       0.797719         69.4114         33.9603 
       0.803834         69.1999         33.3922 
       0.809972         68.0262         32.8351 
       0.816124         67.3643         32.2898 
       0.822261         66.9242         31.7584 
       0.828378         66.3708         31.2408 
       0.834502         65.6348         30.7345 
       0.840667         65.0767         30.2362 
       0.846816         64.2349         29.7505 
       0.852925         63.6926         29.2787 
       0.859047         62.8601         28.8163 
       0.865192         62.5671         28.3625 
       0.871341         62.2162         27.9183 
       0.877463         61.0446         27.4857 
       0.883569         60.6888         27.0635 
       0.889708         60.3658         26.6481 
       0.895864         59.7882         26.2404 
       0.902008         59.2682         25.8423 
       0.908149         58.8016         25.4528 
       0.914301         58.3576         25.0707 
       0.920448         57.6939          24.697 
       0.926574         57.2637         24.3322 
       0.932687         56.8218         23.9757 
       0.938823         55.9815         23.6252 
       0.944975         55.8648         23.2809 
       0.951105         55.3077         22.9449 
       0.957225         54.6218         22.6161 
       0.963368         54.5418         22.2927 
       0.969511         54.1091         21.9757 
       0.975621         53.6648         21.6667 
       0.981748         53.0478         21.3629 
       0.987916         52.7619          21.063 
        0.99406         52.4469         20.7702 
        1.00019         51.7638         20.4835 
        1.00632         51.5617         20.2025 
        1.01246         51.1343         19.9265 
        1.01859         50.4969         19.6561 
        1.02471         50.5905         19.3912 
        1.03085         50.0329         19.1302 
        1.03698         49.4901         18.8747 
        1.04314         49.0431         18.6228 
        1.04929         48.8473         18.3761 
        1.05541         48.3083          18.135 
        1.06154         48.2331         17.8976 
        1.06769         47.7815         17.6641 
        1.07382         47.4772         17.4357 
        1.07993         47.3054         17.2118 
        1.08607         46.7385          16.991 
        1.09222         46.5891         16.7738 
        1.09836         46.1743         16.5608 
        1.10449         45.8657         16.3517 
        1.11063         45.3102         16.1461 
        1.11677         45.1236         15.9441 
         1.1229         44.9734         15.7459 
        1.12903         44.3426          15.551 
        1.13518         44.3109         15.3593 
        1.14131         44.1622         15.1709 
        1.14745         43.5985         14.9858 
        1.15359         43.5215         14.8038 
        1.15973         43.0185         14.6248 
        1.16584         42.7159         14.4496 
        1.17197         42.6566          14.277 
        1.17811         42.2483         14.1068 
        1.18424         41.8549         13.9398 
        1.19038         41.8201         13.7751 
        1.19652         41.5742         13.6132 
        1.20267           41.27         13.4538 
        1.20881         40.9479         13.2971 
        1.21495         40.6618         13.1432 
        1.22108         40.4184         12.9917 
         1.2272          39.992          12.843 
        1.23334         39.8898         12.6964 
        1.23949         39.7346         12.5516 
        1.24562          39.477         12.4096 
        1.25174         39.2884           12.27 
        1.25789         39.0128         12.1321 
        1.26402          38.776         11.9966 
        1.27014         38.4121         11.8636 
        1.27628         38.2642         11.7321 
        1.28244         38.0147         11.6025 
        1.28858         37.8823         11.4749 
        1.29471           37.69         11.3496 
        1.30084         37.4551         11.2263 
        1.30697         37.1505         11.1047 
        1.31312         36.8448         10.9847 
        1.31925         36.7619         10.8669 
        1.32537         36.5825         10.7509 
        1.33151         36.3073         10.6362 
        1.33765         36.2597         10.5233 
        1.34378         36.0476         10.4123 
        1.34992         35.5651         10.3028 
        1.35606         35.4529         10.1946 
         1.3622         35.2583         10.0882 
        1.36833         35.0785          9.9836 
        1.37445         35.0689         9.88054 
        1.38059         34.8374         9.77863 
        1.38675         34.5072         9.67793 
        1.39288         34.4182         9.57906 
        1.39901         34.1181         9.48162 
        1.40515         33.9908         9.38534 
         1.4113         33.8709         9.29044 
        1.41742         33.5086         9.19723 
        1.42355         33.4713         9.10513 
         1.4297         33.2456         9.01403 
        1.43585         33.2022         8.92422 
        1.44198          32.879         8.83599 
        1.44809         32.7488         8.74913 
        1.45423         32.6376         8.66312 
        1.46036          32.512         8.57844 
        1.46649         32.2608         8.49487 
        1.47263         32.0972         8.41236 
        1.47877         31.9829         8.33098 
        1.48491         31.7912         8.25057 
        1.49104         31.6964         8.17139 
        1.49718          31.398         8.09321 
        1.50333         31.3401         8.01593 
        1.50947         31.1906         7.93982 
         1.5156         30.9772         7.86483 
        1.52172         30.7534         7.79081 
        1.52787         30.7846          7.7176 
          1.534         30.5064         7.64542 
        1.54013         30.3031         7.57425 
        1.54627           30.27         7.50387 
        1.55241         30.0612         7.43437 
        1.55855            29.9         7.36586 
        1.56467         29.7589          7.2984 
         1.5708         29.6778         7.23161 
        1.57695         29.3761         7.16555 
        1.58308         29.4513         7.10048 
        1.58922         29.2295         7.03618 
        1.59535         29.0328          6.9727 
         1.6015          28.915         6.90993 
        1.60764         28.8502         6.84796 
        1.61376         28.6513         6.78694 
        1.61989         28.4238         6.72661 
        1.62604         28.4039         6.66688 
        1.63218         28.1938         6.60793 
        1.63831         28.1365         6.54982 
        1.64444         27.9768          6.4924 
        1.65059         27.7928         6.43554 
        1.65673         27.7049         6.37943 
        1.66285         27.5742         6.32414 
        1.66898         27.4455          6.2695 
        1.67512         27.3659         6.21541 
        1.68127         27.1471          6.1619 
         1.6874          27.056         6.10915 
        1.69353         26.9802         6.05706 
        1.69967         26.7847         6.00545 
        1.70581         26.6817         5.95448 
        1.71193         26.5436         5.90429 
        1.71806         26.4397         5.85458 
        1.72421         26.3026         5.80534 
        1.73035          26.207         5.75673 
        1.73649         26.0768          5.7087 
        1.74262         25.9731         5.66125 
        1.74876         25.8856         5.61432 
        1.75489          25.721         5.56802 
        1.76101         25.6353         5.52225 
        1.76715         25.5222         5.47694 
        1.77329         25.4428         5.43209 
        1.77943         25.2927         5.38773 
        1.78557         25.1877         5.34392 
        1.79171         25.0972          5.3006 
        1.79785         24.9454         5.25776 
        1.80399         24.8328          5.2154 
        1.81012         24.7952         5.17356 
        1.81625          24.659         5.13221 
        1.82239         24.6118         5.09125 
        1.82853         24.3866         5.05076 
        1.83466         24.2781         5.01075 
        1.84078         24.1228         4.97122 
        1.84692         24.1308         4.93206 
        1.85306         23.9688         4.89327 
         1.8592         23.8781         4.85497 
        1.86533         23.7676         4.81709 
        1.87147         23.6676         4.77959 
        1.87761         23.6504         4.74246 
        1.88375         23.4846         4.70578 
        1.88988         23.4379         4.66953 
        1.89601         23.2601         4.63364 
        1.90215         23.1903          4.5981 
        1.90829         23.1374         4.56296 
        1.91442         22.9979         4.52818 
        1.92056         22.9202          4.4938 
         1.9267         22.8206         4.45975 
        1.93284         22.6981         4.42602 
        1.93897         22.6389         4.39272 
        1.94509         22.5396         4.35983 
        1.95123         22.4006         4.32719 
        1.95737         22.3328         4.29487 
        1.96349         22.2393         4.26296 
        1.96964          22.125         4.23129 
        1.97578         22.0857         4.19993 
        1.98192         21.9197         4.16895 
        1.98805         21.8881         4.13828 
        1.99419         21.7784         4.10793 
        2.00033         21.6589         4.07786 
        2.00647         21.5865          4.0481 
         2.0126         21.4523          4.0187 
        2.01874          21.402         3.98954 
        2.02488         21.3722         3.96065 
        2.03101         21.2822          3.9321 
        2.03714         21.1597         3.90386 
        2.04328         21.0489         3.87587 
        2.04941         20.9691         3.84817 
        2.05554          20.943         3.82077 
        2.06167         20.8503          3.7936 
        2.06781         20.7596         3.76669 
        2.07396         20.6674         3.74001 
        2.08009         20.6041         3.71363 
        2.08622         20.4973         3.68753 
        2.09237         20.4212         3.66164 
        2.09851         20.3227           3.636 
        2.10464         20.2662         3.61064 
        2.11077         20.1351         3.58556 
        2.11691         20.1274         3.56066 
        2.12305         19.9932           3.536 
        2.12918         19.9284         3.51163 
        2.13531         19.8642         3.48749 
        2.14145          19.768         3.46353 
         2.1476          19.683         3.43976 
        2.15372          19.625         3.41634 
        2.15985         19.5022         3.39311 
        2.16599          19.468         3.37003 
        2.17213         19.4019          3.3472 
        2.17827         19.3096         3.32458 
         2.1844         19.2211         3.30219 
        2.19054          19.151            3.28 
        2.19666         19.1011         3.25805 
         2.2028         19.0447         3.23629 
        2.20893         18.9095         3.21471 
        2.21508         18.8658          3.1933 
        2.22122          18.754         3.17208 
        2.22736         18.7077         3.15111 
        2.23349         18.6293         3.13032 
        2.23962         18.5525         3.10972 
        2.24577         18.4576         3.08928 
         2.2519         18.4307         3.06906 
        2.25802         18.3812         3.04905 
        2.26417         18.3008         3.02916 
        2.27031         18.2185         3.00944 
        2.27644         18.1522         2.98995 
        2.28257         18.0676         2.97063 
        2.28872         17.9863         2.95145 
        2.29486          17.948         2.93244 
        2.30099         17.8633         2.91364 
        2.30712         17.8364           2.895 
        2.31326          17.747         2.87649 
         2.3194          17.661         2.85816 
        2.32553         17.5978         2.84001 
        2.33166         17.4957         2.82204 
         2.3378         17.4471         2.80419 
        2.34394         17.3827         2.78649 
        2.35007         17.3092         2.76898 
        2.35619         17.2281         2.75163 
        2.36233           17.18         2.73439 
        2.36848          17.134         2.71727 
        2.37462         17.1079         2.70033 
        2.38075         17.0087         2.68355 
        2.38689         16.9681          2.6669 
        2.39303         16.8762          2.6504 
        2.39916         16.8141         2.63405 
        2.40529         16.7499         2.61784 
        2.41143         16.6977         2.60176 
        2.41757         16.6406         2.58581 
         2.4237         16.5585         2.57002 
        2.42983         16.5123         2.55436 
        2.43598         16.4478          2.5388 
        2.44211         16.3635         2.52339 
        2.44823         16.3034         2.50814 
        2.45437         16.2801         2.49298 
        2.46052         16.2176         2.47794 
        2.46665         16.1467         2.46304 
        2.47279         16.0779         2.44827 
        2.47892          16.034         2.43362 
        2.48507         15.9862         2.41907 
         2.4912         15.9209         2.40467 
