# k  (h/Mpc)    Pcb(k)  (Mpc/h)^3    Pcb_linear(k)  (Mpc/h)^3
     0.00783031         313.417          316.32 
       0.013688         395.489         396.847 
       0.019231           404.7         405.003 
      0.0249154         375.253         376.667 
      0.0312784          328.33           328.4 
      0.0375637         282.695         282.102 
      0.0433917         248.067         248.037 
      0.0492413         223.776          223.48 
      0.0555754          204.77         205.136 
      0.0619321         191.543         191.064 
       0.067871          178.04         178.361 
      0.0738098         163.871         164.243 
      0.0800417         147.316         147.826 
      0.0862327         131.097         131.232 
      0.0921407          116.82         116.775 
      0.0982031         104.487         104.573 
       0.104506         95.4847         95.1534 
       0.110769         88.8963          88.671 
       0.116806         84.0927         84.2054 
       0.122832         80.5064         80.4331 
       0.129052         76.1716         76.3441 
       0.135211         71.4319         71.6277 
       0.141259         66.4159         66.3994 
       0.147318         61.1757         60.9786 
       0.153489         55.9119         55.8075 
       0.159709         51.5197         51.3872 
       0.165845         48.3471         47.9821 
       0.171974         45.5532         45.4489 
       0.178125         43.6524          43.516 
       0.184229         42.0624          41.871 
        0.19034         40.1723         40.2053 
       0.196428         38.4645         38.3574 
       0.202534         36.5866         36.2941 
       0.208729         34.2829         34.0923 
       0.214876         32.0676         31.9649 
       0.220989         30.3623         30.0554 
       0.227147         28.5502         28.4268 
        0.23329         27.2354          27.104 
       0.239377         26.1989         26.0325 
       0.245482         25.1802         25.1015 
       0.251667         24.4108         24.2053 
       0.257832         23.4457         23.2876 
       0.263955         22.5087         22.3238 
       0.270079         21.5219         21.3213 
        0.27624         20.6165         20.3175 
       0.282372         19.6699         19.3703 
        0.28843         18.7556         18.5224 
       0.294538          18.006         17.7699 
       0.300721         17.4173         17.1062 
        0.30691         16.7417         16.5155 
       0.313033         16.2085         15.9732 
       0.319153         15.5627         15.4459 
       0.325316         15.1949         14.9134 
        0.33145         14.6336         14.3783 
       0.337538         14.1068         13.8497 
       0.343633          13.561         13.3354 
       0.349808         13.1057         12.8432 
       0.355968         12.6568         12.3886 
       0.362074         12.2274         11.9768 
       0.368217         11.8548         11.5961 
       0.374374         11.4525         11.2406 
       0.380519          11.156         10.9028 
       0.386598          10.846         10.5774 
       0.392688         10.5503         10.2573 
        0.39888         10.2098         9.93693 
       0.405048         9.91156         9.62531 
       0.411186         9.62297         9.32672 
       0.417313         9.30597          9.0428 
       0.423458         9.05904          8.7739 
       0.429607         8.78045         8.52096 
       0.435692         8.53946          8.2844 
       0.441815         8.32071         8.05745 
       0.447964         8.13827         7.83846 
       0.454126          7.8787         7.62573 
       0.460267         7.67726         7.41911 
       0.466387         7.45533         7.21881 
        0.47254         7.28102         7.02367 
       0.478662         7.10803         6.83633 
       0.484765          6.9066         6.65693 
       0.490885          6.7358          6.4849 
       0.497035         6.61539         6.31963 
       0.503198         6.43268          6.1608 
       0.509342         6.28616         6.00838 
       0.515458         6.12442         5.86186 
       0.521598         5.98809         5.71939 
       0.527764         5.83224         5.58046 
       0.533884         5.72478         5.44655 
           0.54         5.58576         5.31686 
       0.546137         5.46703         5.19104 
       0.552299         5.34486         5.06911 
       0.558452         5.20133         4.95165 
       0.564573         5.10728         4.83879 
       0.570708          4.9969         4.72949 
       0.576825         4.87631          4.6241 
       0.582926          4.7883         4.52228 
       0.589034         4.65512         4.42335 
       0.595184         4.56978         4.32658 
       0.601379         4.47127          4.2319 
       0.607522         4.39739         4.14077 
       0.613639         4.32452         4.05273 
       0.619772         4.21006         3.96717 
       0.625918         4.14083         3.88405 
       0.632068         4.07099         3.80337 
       0.638161         3.97636         3.72578 
         0.6443         3.89639         3.64984 
       0.650464         3.81039         3.57575 
       0.656582         3.75594         3.50426 
       0.662703         3.68453         3.43472 
       0.668861         3.62523         3.36669 
       0.675024         3.54652         3.30046 
       0.681124         3.47389         3.23671 
       0.687237         3.42325         3.17454 
       0.693381         3.36265         3.11374 
       0.699536         3.27791         3.05445 
       0.705665         3.22649         2.99699 
       0.711789         3.17619         2.94108 
       0.717957         3.11382         2.88625 
        0.72409         3.06192         2.83315 
       0.730186         3.00798         2.78172 
       0.736317         2.97451         2.73132 
       0.742472         2.92077         2.68199 
       0.748622         2.86432         2.63394 
        0.75476         2.80679         2.58719 
       0.760888         2.76226         2.54166 
       0.767043         2.73188         2.49705 
       0.773185         2.67461         2.45363 
       0.779291         2.63734         2.41149 
       0.785407         2.59359          2.3703 
       0.791564         2.55398         2.32982 
       0.797719         2.51753         2.29033 
       0.803834         2.48087         2.25201 
       0.809972         2.44097         2.21444 
       0.816124          2.3967         2.17766 
       0.822261         2.35468         2.14183 
       0.828378         2.32532         2.10692 
       0.834502         2.29739         2.07277 
       0.840667         2.24916         2.03917 
       0.846816         2.21632         2.00641 
       0.852925         2.19423         1.97459 
       0.859047          2.1608         1.94341 
       0.865192         2.12679          1.9128 
       0.871341         2.09669         1.88284 
       0.877463         2.07285         1.85367 
       0.883569         2.03495         1.82519 
       0.889708         2.00478         1.79718 
       0.895864         1.97824         1.76969 
       0.902008         1.94615         1.74284 
       0.908149         1.92158         1.71657 
       0.914301         1.88526          1.6908 
       0.920448         1.86328         1.66559 
       0.926574         1.83623           1.641 
       0.932687         1.81218         1.61695 
       0.938823         1.79502         1.59331 
       0.944975         1.76828          1.5701 
       0.951105         1.74658         1.54743 
       0.957225         1.72937         1.52526 
       0.963368         1.70352         1.50345 
       0.969511         1.67735         1.48207 
       0.975621         1.65155         1.46123 
       0.981748         1.63745         1.44074 
       0.987916         1.61396         1.42052 
        0.99406         1.58947         1.40077 
        1.00019         1.57499         1.38143 
        1.00632         1.54961         1.36249 
        1.01246         1.53084         1.34387 
        1.01859         1.51453         1.32563 
        1.02471         1.49318         1.30777 
        1.03085         1.47923         1.29017 
        1.03698         1.45696         1.27293 
        1.04314         1.44157         1.25594 
        1.04929         1.42145         1.23931 
        1.05541         1.40709         1.22305 
        1.06154         1.38801         1.20704 
        1.06769         1.37111         1.19129 
        1.07382         1.35584         1.17588 
        1.07993         1.33531         1.16079 
        1.08607         1.32726         1.14589 
        1.09222         1.30757         1.13125 
        1.09836         1.29801         1.11688 
        1.10449         1.28209         1.10278 
        1.11063          1.2626         1.08891 
        1.11677         1.24699         1.07529 
         1.1229         1.23452         1.06193 
        1.12903         1.21881         1.04878 
        1.13518         1.20885         1.03585 
        1.14131         1.19207         1.02314 
        1.14745          1.1722         1.01066 
        1.15359         1.16556        0.998388 
        1.15973         1.14764        0.986315 
        1.16584         1.14307        0.974498 
        1.17197         1.12774         0.96286 
        1.17811         1.11663        0.951378 
        1.18424         1.10793        0.940119 
        1.19038         1.09179        0.929011 
        1.19652         1.07818        0.918089 
        1.20267         1.07127        0.907344 
        1.20881         1.05579        0.896776 
        1.21495         1.04849        0.886394 
        1.22108         1.03687        0.876179 
         1.2272         1.02831        0.866151 
        1.23334         1.01515        0.856259 
        1.23949          1.0043        0.846499 
        1.24562         0.99525         0.83692 
        1.25174        0.985293        0.827504 
        1.25789        0.975987        0.818206 
        1.26402        0.962487        0.809069 
        1.27014        0.953456        0.800094 
        1.27628        0.947956        0.791231 
        1.28244        0.933594        0.782485 
        1.28858        0.925875        0.773885 
        1.29471        0.918642        0.765435 
        1.30084        0.907351         0.75712 
        1.30697        0.898835        0.748916 
        1.31312        0.886274        0.740824 
        1.31925        0.880807        0.732878 
        1.32537        0.873467        0.725057 
        1.33151        0.866179        0.717323 
        1.33765        0.856718        0.709707 
        1.34378         0.84589        0.702218 
        1.34992        0.841144        0.694833 
        1.35606        0.831096        0.687538 
         1.3622        0.824477        0.680363 
        1.36833        0.816122        0.673308 
        1.37445        0.806075        0.666357 
        1.38059        0.799329        0.659484 
        1.38675        0.797652        0.652693 
        1.39288        0.786441        0.646024 
        1.39901        0.779645        0.639454 
        1.40515        0.773112         0.63296 
         1.4113        0.764426         0.62656 
        1.41742         0.75773        0.620274 
        1.42355        0.754693        0.614062 
         1.4297        0.744389        0.607918 
        1.43585         0.73842        0.601862 
        1.44198        0.735166        0.595911 
        1.44809        0.725119        0.590053 
        1.45423        0.719479        0.584253 
        1.46036        0.713229        0.578542 
        1.46649        0.707494        0.572906 
        1.47263        0.700362        0.567341 
        1.47877         0.69351        0.561853 
        1.48491        0.688259        0.556429 
        1.49104        0.681001         0.55109 
        1.49718        0.676964        0.545817 
        1.50333        0.670933        0.540605 
        1.50947        0.665661        0.535472 
         1.5156        0.659139        0.530415 
        1.52172        0.653757        0.525423 
        1.52787        0.647787        0.520485 
          1.534        0.643406        0.515618 
        1.54013        0.636079        0.510818 
        1.54627        0.631772        0.506071 
        1.55241         0.62596        0.501384 
        1.55855         0.62011        0.496764 
        1.56467        0.617971        0.492214 
         1.5708        0.610913         0.48771 
        1.57695         0.60712        0.483255 
        1.58308         0.60163        0.478866 
        1.58922        0.596917         0.47453 
        1.59535        0.591752        0.470249 
         1.6015        0.587247        0.466015 
        1.60764        0.583015        0.461836 
        1.61376          0.5766         0.45772 
        1.61989        0.573636        0.453652 
        1.62604        0.568782        0.449624 
        1.63218         0.56527        0.445648 
        1.63831         0.56023        0.441729 
        1.64444         0.55542        0.437857 
        1.65059        0.551519        0.434022 
        1.65673        0.546886        0.430238 
        1.66285         0.54295        0.426509 
        1.66898        0.539653        0.422824 
        1.67512        0.533997        0.419176 
        1.68127        0.529755        0.415567 
         1.6874        0.527496         0.41201 
        1.69353        0.522291        0.408497 
        1.69967        0.518965        0.405016 
        1.70581        0.514494        0.401578 
        1.71193        0.510924        0.398194 
        1.71806         0.50682        0.394841 
        1.72421        0.503503        0.391521 
        1.73035        0.499048        0.388242 
        1.73649        0.496607        0.385003 
        1.74262        0.492623        0.381803 
        1.74876         0.48844        0.378638 
        1.75489        0.485041        0.375515 
        1.76101        0.480871        0.372429 
        1.76715        0.477769        0.369373 
        1.77329        0.474279        0.366348 
        1.77943        0.470634        0.363356 
        1.78557        0.467817        0.360402 
        1.79171        0.464579         0.35748 
        1.79785        0.461033        0.354591 
        1.80399        0.457533        0.351734 
        1.81012        0.454878        0.348913 
        1.81625        0.451284        0.346124 
        1.82239        0.448808        0.343361 
        1.82853        0.443939        0.340631 
        1.83466        0.441857        0.337932 
        1.84078        0.438168        0.335266 
        1.84692        0.435824        0.332625 
        1.85306        0.433107        0.330009 
         1.8592        0.430013        0.327426 
        1.86533        0.427328        0.324872 
        1.87147        0.424122        0.322342 
        1.87761        0.421829        0.319839 
        1.88375        0.417429        0.317365 
        1.88988        0.415574         0.31492 
        1.89601        0.412292        0.312499 
        1.90215        0.409971        0.310103 
        1.90829        0.406746        0.307733 
        1.91442         0.40444        0.305387 
        1.92056        0.401453        0.303069 
         1.9267        0.398541        0.300772 
        1.93284         0.39608        0.298497 
        1.93897        0.393712        0.296251 
        1.94509        0.391372        0.294033 
        1.95123        0.388047        0.291832 
        1.95737        0.386321        0.289652 
        1.96349          0.3833        0.287501 
        1.96964        0.380677        0.285365 
        1.97578        0.378124        0.283249 
        1.98192        0.376645         0.28116 
        1.98805        0.374041        0.279092 
        1.99419        0.371083        0.277045 
        2.00033        0.369124        0.275017 
        2.00647        0.366985         0.27301 
         2.0126        0.364125        0.271027 
        2.01874        0.362257        0.269061 
        2.02488        0.360179        0.267112 
        2.03101        0.357348        0.265187 
        2.03714         0.35502        0.263282 
        2.04328         0.35319        0.261394 
        2.04941        0.350945        0.259527 
        2.05554          0.3488        0.257679 
        2.06167        0.346993        0.255846 
        2.06781        0.343576        0.254031 
        2.07396        0.341689        0.252232 
        2.08009        0.339765        0.250453 
        2.08622        0.337998        0.248693 
        2.09237        0.336749        0.246947 
        2.09851        0.334499        0.245217 
        2.10464        0.332293        0.243507 
        2.11077        0.329958        0.241815 
        2.11691        0.327934        0.240136 
        2.12305        0.326054        0.238473 
        2.12918        0.324239         0.23683 
        2.13531        0.322138        0.235202 
        2.14145        0.320276        0.233585 
         2.1476        0.318534        0.231983 
        2.15372        0.317177        0.230403 
        2.15985        0.314679        0.228836 
        2.16599        0.312467         0.22728 
        2.17213        0.311255         0.22574 
        2.17827        0.309524        0.224215 
         2.1844        0.307916        0.222705 
        2.19054        0.305871        0.221209 
        2.19666        0.303493        0.219728 
         2.2028        0.302464         0.21826 
        2.20893        0.300895        0.216805 
        2.21508        0.298418        0.215361 
        2.22122        0.296751         0.21393 
        2.22736        0.295411        0.212515 
        2.23349        0.293867        0.211114 
        2.23962        0.292438        0.209724 
        2.24577        0.289986        0.208346 
         2.2519        0.289181        0.206982 
        2.25802        0.286957        0.205633 
        2.26417         0.28545        0.204292 
        2.27031        0.283694        0.202961 
        2.27644        0.282458        0.201647 
        2.28257        0.280719        0.200344 
        2.28872        0.279335         0.19905 
        2.29486        0.277623        0.197769 
        2.30099        0.276312        0.196501 
        2.30712        0.274965        0.195244 
        2.31326        0.272869        0.193995 
         2.3194        0.272751        0.192759 
        2.32553        0.271094        0.191535 
        2.33166        0.269496        0.190323 
         2.3378        0.268058        0.189119 
        2.34394        0.265981        0.187926 
        2.35007        0.264794        0.186744 
        2.35619         0.26319        0.185574 
        2.36233        0.261385        0.184412 
        2.36848        0.260585        0.183257 
        2.37462        0.258929        0.182115 
        2.38075        0.258167        0.180983 
        2.38689        0.256425         0.17986 
        2.39303        0.255686        0.178747 
        2.39916         0.25351        0.177645 
        2.40529        0.252403        0.176552 
        2.41143        0.251335        0.175467 
        2.41757        0.249783        0.174391 
         2.4237        0.248613        0.173326 
        2.42983        0.247297         0.17227 
        2.43598        0.246598        0.171221 
        2.44211        0.245077        0.170181 
        2.44823         0.24421        0.169153 
        2.45437        0.242099        0.168131 
        2.46052        0.241455        0.167116 
        2.46665        0.240005        0.166111 
        2.47279        0.238656        0.165115 
        2.47892        0.237483        0.164127 
        2.48507        0.236286        0.163146 
         2.4912         0.23537        0.162175 
