# k  (h/Mpc)    P(k)  (Mpc/h)^3    P_linear(k)  (Mpc/h)^3
     0.00783031         15159.6         15424.1 
       0.013688         19353.9         19211.8 
       0.019231         19583.7         19578.1 
      0.0249154         17746.8         18158.7 
      0.0312784         15500.1         15704.6 
      0.0375637         13274.8         13297.2 
      0.0433917         11268.6         11490.1 
      0.0492413         10093.9         10177.8 
      0.0555754         8930.22         9228.03 
      0.0619321         8571.18         8574.56 
       0.067871         7807.54         8054.99 
      0.0738098         7263.93         7499.25 
      0.0800417         6534.32            6825 
      0.0862327         5916.41         6089.14 
      0.0921407          5358.1         5394.31 
      0.0982031         4725.84         4762.09 
       0.104506         4368.77         4242.03 
       0.110769         4000.79         3874.71 
       0.116806         3752.05         3638.71 
       0.122832         3582.72         3476.82 
       0.129052         3350.25         3337.51 
       0.135211         3199.79         3185.86 
       0.141259         3072.81         3002.16 
       0.147318         2893.07         2784.48 
       0.153489         2641.39         2546.57 
       0.159709         2478.65         2316.51 
       0.165845         2362.61         2121.15 
       0.171974         2217.91         1968.79 
       0.178125         2104.92         1858.48 
       0.184229         2013.54         1781.67 
        0.19034         1908.94         1722.76 
       0.196428         1877.15         1667.01 
       0.202534          1811.2         1602.78 
       0.208729         1729.47         1524.21 
       0.214876          1655.2         1435.01 
       0.220989         1594.54         1342.17 
       0.227147         1521.37         1253.05 
        0.23329         1457.13         1175.49 
       0.239377         1430.59         1113.19 
       0.245482         1340.61         1064.88 
       0.251667          1333.2         1027.06 
       0.257832          1281.2         995.366 
       0.263955         1240.53         964.768 
       0.270079         1197.83         931.443 
        0.27624         1184.58         893.647 
       0.282372         1134.71         852.608 
        0.28843         1124.14         810.974 
       0.294538         1067.33         770.651 
       0.300721         1060.78         733.924 
        0.30691         1017.83         702.468 
       0.313033          997.68         676.612 
       0.319153         978.675         654.814 
       0.325316         947.169         635.332 
        0.33145          925.33         616.624 
       0.337538         909.199         597.519 
       0.343633         887.753         577.257 
       0.349808         857.287         555.797 
       0.355968         851.247         534.141 
       0.362074         841.735         513.348 
       0.368217         815.626         493.961 
       0.374374         783.686          476.46 
       0.380519         784.022         461.048 
       0.386598          762.04         447.441 
       0.392688         759.445          434.92 
        0.39888         736.784         422.766 
       0.405048         726.381         410.712 
       0.411186         715.962         398.553 
       0.417313         701.012         386.276 
       0.423458         688.289         373.969 
       0.429607         678.932         361.992 
       0.435692          663.99         350.758 
       0.441815         658.193         340.202 
       0.447964         644.203          330.43 
       0.454126         636.511         321.406 
       0.460267         621.582         312.966 
       0.466387         614.456         304.908 
        0.47254         608.139         297.017 
       0.478662         603.331          289.26 
       0.484765         584.398         281.562 
       0.490885         580.335         273.954 
       0.497035         568.461          266.51 
       0.503198         564.138          259.33 
       0.509342         558.685         252.499 
       0.515458         554.506         246.066 
       0.521598         540.303         239.976 
       0.527764         530.824         234.157 
       0.533884         528.794         228.602 
           0.54         522.471         223.211 
       0.546137         518.881         217.934 
       0.552299         510.406          212.75 
       0.558452         507.128         207.676 
       0.564573         500.109         202.742 
       0.570708         493.826         197.945 
       0.576825         480.798         193.339 
       0.582926         481.674         188.939 
       0.589034         477.031         184.709 
       0.595184          472.75         180.608 
       0.601379         465.522         176.617 
       0.607522         459.029          172.78 
       0.613639         458.383         169.068 
       0.619772         448.207         165.446 
       0.625918         446.147         161.906 
       0.632068         439.424         158.448 
       0.638161         437.731         155.111 
         0.6443         430.023         151.843 
       0.650464         427.403         148.664 
       0.656582         424.129         145.615 
       0.662703         422.547         142.666 
       0.668861         415.163         139.792 
       0.675024         411.635             137 
       0.681124         408.371          134.31 
       0.687237         404.711         131.681 
       0.693381         399.052         129.102 
       0.699536         393.551         126.582 
       0.705665         392.145         124.138 
       0.711789         389.984         121.761 
       0.717957         386.379         119.433 
        0.72409         383.698         117.184 
       0.730186         378.349         115.009 
       0.736317         375.403         112.881 
       0.742472         373.319         110.799 
       0.748622         369.219         108.773 
        0.75476         364.487           106.8 
       0.760888         360.697         104.878 
       0.767043         361.187         102.995 
       0.773185         356.881          101.16 
       0.779291         352.155         99.3813 
       0.785407         350.708         97.6425 
       0.791564         346.255          95.935 
       0.797719         343.978         94.2702 
       0.803834         340.412         92.6565 
       0.809972         339.603         91.0757 
       0.816124         338.561          89.529 
       0.822261         333.822          88.023 
       0.828378         331.749         86.5565 
       0.834502         328.321         85.1224 
       0.840667         325.602         83.7115 
       0.846816         324.072         82.3364 
       0.852925         321.657         81.0008 
       0.859047         319.604          79.692 
       0.865192         315.651         78.4078 
       0.871341         313.181         77.1511 
       0.877463         312.366         75.9277 
       0.883569         309.965         74.7341 
       0.889708         306.993         73.5602 
       0.895864         304.944         72.4087 
       0.902008         302.571         71.2844 
       0.908149             300          70.185 
       0.914301         297.116         69.1071 
       0.920448         295.431          68.053 
       0.926574         291.761         67.0248 
       0.932687         291.924         66.0201 
       0.938823         288.516         65.0325 
       0.944975         287.975          64.063 
       0.951105         285.198         63.1169 
       0.957225         283.255         62.1915 
       0.963368         279.611         61.2816 
       0.969511         278.577           60.39 
       0.975621         276.421          59.521 
       0.981748         275.437          58.667 
       0.987916         273.557         57.8244 
        0.99406         269.419         57.0016 
        1.00019         268.755         56.1965 
        1.00632         267.307         55.4077 
        1.01246          264.93          54.633 
        1.01859         265.374         53.8744 
        1.02471         260.838         53.1312 
        1.03085         259.463         52.3995 
        1.03698         258.455         51.6832 
        1.04314         255.727         50.9772 
        1.04929         253.879         50.2862 
        1.05541         254.376         49.6109 
        1.06154         249.996         48.9463 
        1.06769         249.533         48.2929 
        1.07382         247.602         47.6537 
        1.07993         245.968         47.0275 
        1.08607         245.202         46.4101 
        1.09222         242.824         45.8031 
        1.09836         241.121         45.2078 
        1.10449         238.753         44.6237 
        1.11063         236.699         44.0494 
        1.11677         236.367         43.4855 
         1.1229         234.409         42.9324 
        1.12903         233.073         42.3885 
        1.13518         231.283         41.8536 
        1.14131         229.532         41.3283 
        1.14745          229.11         40.8123 
        1.15359          227.05         40.3051 
        1.15973          225.32         39.8063 
        1.16584         223.681         39.3182 
        1.17197         223.701         38.8376 
        1.17811         220.774         38.3636 
        1.18424         219.536          37.899 
        1.19038         218.847         37.4407 
        1.19652          216.89         36.9901 
        1.20267         216.305         36.5471 
        1.20881         214.381         36.1113 
        1.21495         212.993         35.6834 
        1.22108         211.685         35.2626 
         1.2272         210.245         34.8495 
        1.23334         209.217         34.4421 
        1.23949         207.493         34.0402 
        1.24562          206.58         33.6459 
        1.25174         205.174         33.2585 
        1.25789          203.63          32.876 
        1.26402          201.75         32.5001 
        1.27014         200.599         32.1311 
        1.27628         199.597         31.7667 
        1.28244         199.428         31.4073 
        1.28858         197.074          31.054 
        1.29471         195.723         30.7068 
        1.30084         194.746         30.3654 
        1.30697         193.299         30.0286 
        1.31312         191.641         29.6964 
        1.31925         190.968         29.3703 
        1.32537         190.189         29.0495 
        1.33151         188.267         28.7323 
        1.33765         187.021           28.42 
        1.34378          186.35         28.1131 
        1.34992         185.302         27.8104 
        1.35606         185.181         27.5116 
         1.3622         183.075         27.2177 
        1.36833         181.372         26.9288 
        1.37445         180.727         26.6442 
        1.38059         179.164         26.3629 
        1.38675         178.538          26.085 
        1.39288         177.395         25.8122 
        1.39901          176.89         25.5435 
        1.40515         175.023          25.278 
         1.4113         174.213         25.0163 
        1.41742         172.873         24.7594 
        1.42355         172.033         24.5056 
         1.4297         170.611         24.2546 
        1.43585         169.833         24.0073 
        1.44198         168.898         23.7643 
        1.44809         168.048         23.5251 
        1.45423         167.052         23.2884 
        1.46036         165.838         23.0553 
        1.46649         164.652         22.8254 
        1.47263         163.624         22.5984 
        1.47877           162.6         22.3746 
        1.48491         161.091         22.1535 
        1.49104         160.856         21.9358 
        1.49718          159.27         21.7209 
        1.50333          158.63         21.5086 
        1.50947         157.724         21.2995 
         1.5156         156.531         21.0935 
        1.52172         155.888         20.8902 
        1.52787         154.344         20.6893 
          1.534         154.034         20.4912 
        1.54013         152.914         20.2959 
        1.54627         151.925         20.1028 
        1.55241         150.898         19.9122 
        1.55855         150.019         19.7243 
        1.56467         148.902         19.5394 
         1.5708         148.206         19.3563 
        1.57695         147.519         19.1753 
        1.58308         146.657          18.997 
        1.58922         145.733         18.8209 
        1.59535         144.535         18.6471 
         1.6015         144.053         18.4752 
        1.60764         143.081         18.3056 
        1.61376         142.154         18.1386 
        1.61989         141.387         17.9735 
        1.62604          140.31         17.8101 
        1.63218         139.774         17.6489 
        1.63831         138.695           17.49 
        1.64444         138.065          17.333 
        1.65059         137.176         17.1776 
        1.65673         136.094         17.0242 
        1.66285         135.621         16.8732 
        1.66898          134.55         16.7239 
        1.67512         134.333         16.5762 
        1.68127         132.938         16.4301 
         1.6874         132.074         16.2861 
        1.69353         131.606         16.1439 
        1.69967         130.639          16.003 
        1.70581         129.945         15.8639 
        1.71193         129.079          15.727 
        1.71806         128.511         15.5914 
        1.72421         127.711         15.4572 
        1.73035         127.359         15.3247 
        1.73649         126.405         15.1937 
        1.74262          125.44         15.0644 
        1.74876         124.834         14.9365 
        1.75489         124.013         14.8104 
        1.76101         123.063         14.6857 
        1.76715         122.694         14.5624 
        1.77329         122.166         14.4403 
        1.77943         121.196         14.3195 
        1.78557         120.697         14.2003 
        1.79171         119.847         14.0824 
        1.79785         119.104         13.9659 
        1.80399          118.35         13.8507 
        1.81012         117.768         13.7369 
        1.81625         117.176         13.6245 
        1.82239         116.565         13.5131 
        1.82853         115.846         13.4031 
        1.83466          115.02         13.2944 
        1.84078         114.581          13.187 
        1.84692         113.501         13.0806 
        1.85306         113.335         12.9753 
         1.8592         112.461         12.8713 
        1.86533         111.655         12.7685 
        1.87147         110.987         12.6667 
        1.87761          110.37         12.5659 
        1.88375         109.571         12.4664 
        1.88988         109.072         12.3681 
        1.89601          108.44         12.2707 
        1.90215         107.835         12.1744 
        1.90829         107.302         12.0791 
        1.91442         106.685         11.9848 
        1.92056         105.963         11.8917 
         1.9267         105.598         11.7994 
        1.93284         104.894          11.708 
        1.93897         104.185         11.6178 
        1.94509         103.757         11.5287 
        1.95123         103.177         11.4403 
        1.95737         102.615         11.3528 
        1.96349          102.05         11.2665 
        1.96964         101.059         11.1807 
        1.97578         100.521         11.0959 
        1.98192         100.282         11.0121 
        1.98805         99.5096         10.9291 
        1.99419         99.1357          10.847 
        2.00033         98.3746         10.7657 
        2.00647         98.0238         10.6853 
         2.0126         97.1976         10.6058 
        2.01874         96.6678          10.527 
        2.02488          96.332         10.4489 
        2.03101         95.5393         10.3718 
        2.03714         95.0185         10.2955 
        2.04328         94.5495         10.2199 
        2.04941         94.0635         10.1451 
        2.05554         93.4011         10.0711 
        2.06167         93.1067         9.99776 
        2.06781          92.373         9.92513 
        2.07396         91.9421         9.85313 
        2.08009         91.4891         9.78196 
        2.08622         90.8377         9.71157 
        2.09237         90.3461         9.64174 
        2.09851         89.9058         9.57258 
        2.10464         89.4723         9.50422 
        2.11077         88.9383          9.4366 
        2.11691         88.5445          9.3695 
        2.12305         87.8114         9.30304 
        2.12918         87.2847         9.23739 
        2.13531         86.9369         9.17236 
        2.14145         86.2549         9.10781 
         2.1476         85.7554         9.04381 
        2.15372         85.4703         8.98074 
        2.15985         85.0291         8.91821 
        2.16599         84.3879         8.85609 
        2.17213         84.0036         8.79464 
        2.17827         83.5645         8.73378 
         2.1844         82.9342         8.67355 
        2.19054         82.6757         8.61387 
        2.19666          82.261         8.55484 
         2.2028         81.6802          8.4963 
        2.20893         81.3121         8.43829 
        2.21508         80.7837         8.38075 
        2.22122         80.3702         8.32372 
        2.22736          79.943         8.26735 
        2.23349         79.5645         8.21151 
        2.23962         79.0872         8.15615 
        2.24577         78.7057         8.10126 
         2.2519         78.3771         8.04695 
        2.25802          77.691         7.99322 
        2.26417         77.3811         7.93983 
        2.27031         76.9621         7.88688 
        2.27644         76.4572         7.83457 
        2.28257          76.003         7.78273 
        2.28872         75.7711         7.73126 
        2.29486          75.182         7.68027 
        2.30099          74.743         7.62985 
        2.30712          74.484         7.57985 
        2.31326         73.9914         7.53022 
         2.3194         73.5573         7.48106 
        2.32553         73.2897         7.43242 
        2.33166         72.8485         7.38423 
         2.3378         72.3592         7.33641 
        2.34394         72.0194         7.28899 
        2.35007         71.6264         7.24206 
        2.35619         71.3367          7.1956 
        2.36233         70.8244         7.14943 
        2.36848         70.4286         7.10358 
        2.37462         70.0347         7.05822 
        2.38075         69.7412          7.0133 
        2.38689         69.3127         6.96874 
        2.39303          68.844         6.92457 
        2.39916         68.5953         6.88083 
        2.40529         68.3044         6.83747 
        2.41143         67.7605         6.79445 
        2.41757          67.533         6.75178 
         2.4237         67.2148         6.70955 
        2.42983         66.7182         6.66769 
        2.43598         66.3517         6.62608 
        2.44211          66.207         6.58489 
        2.44823         65.7421         6.54414 
        2.45437         65.2405         6.50362 
        2.46052         64.9786         6.46342 
        2.46665         64.7356         6.42362 
        2.47279         64.2682         6.38417 
        2.47892         63.9941         6.34503 
        2.48507         63.5595         6.30618 
         2.4912         63.2888         6.26772 
