# k  (h/Mpc)    P(k)  (Mpc/h)^3    P_linear(k)  (Mpc/h)^3
     0.00783031         9290.22         9433.67 
       0.013688         11804.2         11746.5 
       0.019231         11977.9         11970.2 
      0.0249154           10915         11102.6 
      0.0312784         9523.39         9602.31 
      0.0375637         8137.08          8130.5 
      0.0433917         6938.03         7025.67 
      0.0492413         6198.81         6223.36 
      0.0555754         5519.29         5642.65 
      0.0619321         5263.24         5243.11 
       0.067871         4828.12         4925.44 
      0.0738098         4490.58         4585.65 
      0.0800417         4050.77         4173.37 
      0.0862327         3655.42         3723.42 
      0.0921407         3288.63         3298.55 
      0.0982031         2894.74         2911.97 
       0.104506         2654.84         2593.97 
       0.110769         2427.54         2369.35 
       0.116806         2267.85         2225.05 
       0.122832         2173.07         2126.06 
       0.129052          2043.1         2040.87 
       0.135211          1951.6         1948.14 
       0.141259         1866.22         1835.81 
       0.147318         1750.13          1702.7 
       0.153489         1596.03         1557.22 
       0.159709         1486.55         1416.54 
       0.165845         1402.41         1297.08 
       0.171974         1307.17         1203.91 
       0.178125         1240.59         1136.46 
       0.184229         1191.15         1089.49 
        0.19034         1122.29         1053.47 
       0.196428         1106.45         1019.38 
       0.202534          1072.7         980.101 
       0.208729         1019.48         932.054 
       0.214876         964.945         877.511 
       0.220989         927.935         820.737 
       0.227147         875.636         766.242 
        0.23329         835.505         718.815 
       0.239377         814.163          680.72 
       0.245482         760.129         651.179 
       0.251667         753.609         628.049 
       0.257832         727.327         608.669 
       0.263955         704.472         589.958 
       0.270079         679.414         569.581 
        0.27624         670.697         546.468 
       0.282372         642.165         521.373 
        0.28843         625.421         495.913 
       0.294538         593.878         471.256 
       0.300721         589.094         448.797 
        0.30691         561.673         429.562 
       0.313033         550.058         413.751 
       0.319153         533.181         400.421 
       0.325316         518.004         388.508 
        0.33145          503.21         377.068 
       0.337538         496.231         365.385 
       0.343633         480.462         352.995 
       0.349808         464.376         339.872 
       0.355968         459.449         326.629 
       0.362074         450.116         313.915 
       0.368217         437.521         302.059 
       0.374374         419.899         291.358 
       0.380519         416.195         281.933 
       0.386598         405.739         273.612 
       0.392688         402.681         265.956 
        0.39888         391.238         258.523 
       0.405048         382.914         251.152 
       0.411186         375.495         243.717 
       0.417313         368.542          236.21 
       0.423458         361.417         228.684 
       0.429607          354.06          221.36 
       0.435692         345.211          214.49 
       0.441815         342.388         208.035 
       0.447964         335.326          202.06 
       0.454126         324.624         196.542 
       0.460267         320.127          191.38 
       0.466387         316.429         186.453 
        0.47254          309.69         181.628 
       0.478662         308.557         176.884 
       0.484765         298.675         172.177 
       0.490885         295.165         167.524 
       0.497035         290.209         162.972 
       0.503198         284.444         158.581 
       0.509342         281.903         154.404 
       0.515458         278.327         150.471 
       0.521598          272.87         146.746 
       0.527764         268.485         143.188 
       0.533884         265.651         139.792 
           0.54         261.826         136.495 
       0.546137         260.456         133.268 
       0.552299         255.065         130.098 
       0.558452          252.65         126.995 
       0.564573         248.628         123.978 
       0.570708          243.99         121.044 
       0.576825         240.529         118.228 
       0.582926         237.713         115.537 
       0.589034         235.151         112.951 
       0.595184         232.643         110.443 
       0.601379         230.077         108.002 
       0.607522         225.739         105.656 
       0.613639         224.522         103.386 
       0.619772         219.503         101.171 
       0.625918         218.059         99.0063 
       0.632068         215.022          96.892 
       0.638161         213.905         94.8511 
         0.6443         210.436         92.8529 
       0.650464         208.298         90.9091 
       0.656582         206.576         89.0442 
       0.662703         204.663         87.2409 
       0.668861         201.151         85.4837 
       0.675024          198.76         83.7762 
       0.681124         197.927         82.1315 
       0.687237         194.958         80.5235 
       0.693381         192.093         78.9463 
       0.699536         190.668         77.4055 
       0.705665          189.85         75.9111 
       0.711789         186.705         74.4577 
       0.717957         185.978         73.0343 
        0.72409         183.568         71.6586 
       0.730186         181.058         70.3289 
       0.736317         179.461         69.0272 
       0.742472          178.46         67.7545 
       0.748622         176.907         66.5151 
        0.75476         175.418         65.3089 
       0.760888         172.952         64.1335 
       0.767043          172.44         62.9818 
       0.773185         170.478         61.8602 
       0.779291          167.54         60.7722 
       0.785407         166.982          59.709 
       0.791564         165.388         58.6648 
       0.797719         163.106         57.6468 
       0.803834         162.285           56.66 
       0.809972         160.767         55.6933 
       0.816124         160.531         54.7475 
       0.822261          158.39         53.8266 
       0.828378         156.932         52.9298 
       0.834502         156.707         52.0529 
       0.840667         154.186         51.1901 
       0.846816         152.908         50.3492 
       0.852925         152.135         49.5325 
       0.859047         150.364         48.7321 
       0.865192         149.261         47.9468 
       0.871341          147.85         47.1784 
       0.877463         146.731         46.4303 
       0.883569         145.858         45.7003 
       0.889708         144.623         44.9825 
       0.895864         142.999         44.2783 
       0.902008         142.225         43.5909 
       0.908149         141.554         42.9185 
       0.914301         139.994         42.2594 
       0.920448         138.922         41.6148 
       0.926574         138.147         40.9861 
       0.932687         137.669         40.3717 
       0.938823          135.73         39.7678 
       0.944975          134.44         39.1749 
       0.951105         133.908         38.5963 
       0.957225         132.389         38.0305 
       0.963368          131.19         37.4741 
       0.969511          130.88         36.9289 
       0.975621         130.178         36.3975 
       0.981748         129.417         35.8752 
       0.987916         127.893           35.36 
        0.99406         127.071         34.8568 
        1.00019         126.616         34.3645 
        1.00632         125.435         33.8822 
        1.01246         124.649         33.4084 
        1.01859         123.485         32.9445 
        1.02471         122.845           32.49 
        1.03085         121.644         32.0426 
        1.03698         121.052         31.6046 
        1.04314         119.952         31.1729 
        1.04929         119.174         30.7503 
        1.05541         118.494         30.3373 
        1.06154         117.747          29.931 
        1.06769         117.539         29.5314 
        1.07382         116.609         29.1405 
        1.07993         115.626         28.7576 
        1.08607         114.781           28.38 
        1.09222         114.343         28.0089 
        1.09836          113.34         27.6448 
        1.10449         112.512         27.2877 
        1.11063         111.771         26.9365 
        1.11677         111.368         26.5916 
         1.1229          110.15         26.2534 
        1.12903         109.441         25.9208 
        1.13518         109.521         25.5937 
        1.14131         108.374         25.2725 
        1.14745         107.707          24.957 
        1.15359         106.984         24.6468 
        1.15973         106.622         24.3418 
        1.16584          105.61         24.0433 
        1.17197         105.075         23.7494 
        1.17811         104.395         23.4596 
        1.18424         103.815         23.1754 
        1.19038         103.345         22.8952 
        1.19652         102.658         22.6197 
        1.20267         101.849         22.3488 
        1.20881         101.179         22.0823 
        1.21495         100.595         21.8207 
        1.22108         100.083         21.5633 
         1.2272         99.2085         21.3107 
        1.23334         98.8069         21.0615 
        1.23949         97.9102         20.8158 
        1.24562          97.604         20.5747 
        1.25174         96.8027         20.3378 
        1.25789         96.4041         20.1039 
        1.26402         95.9313          19.874 
        1.27014         95.2255         19.6484 
        1.27628         94.8177         19.4256 
        1.28244         94.1404         19.2058 
        1.28858         93.8231         18.9897 
        1.29471              93         18.7774 
        1.30084         92.5545         18.5686 
        1.30697         91.9776         18.3627 
        1.31312         91.5921         18.1595 
        1.31925         90.8745         17.9601 
        1.32537         90.5526         17.7639 
        1.33151         89.6635           17.57 
        1.33765         89.2648          17.379 
        1.34378         88.7152         17.1913 
        1.34992          88.533         17.0062 
        1.35606         87.9287         16.8235 
         1.3622         87.1124         16.6438 
        1.36833         86.9679         16.4671 
        1.37445         86.3222         16.2931 
        1.38059         85.8129         16.1211 
        1.38675         85.2213         15.9512 
        1.39288         84.8125         15.7843 
        1.39901         84.5828           15.62 
        1.40515         83.9905         15.4576 
         1.4113         83.3485         15.2977 
        1.41742         83.2829         15.1405 
        1.42355         82.5202         14.9853 
         1.4297         82.1493         14.8319 
        1.43585         81.5068         14.6806 
        1.44198         81.2241          14.532 
        1.44809         80.7444         14.3858 
        1.45423         80.2271          14.241 
        1.46036         80.0427         14.0985 
        1.46649         79.4789         13.9579 
        1.47263         78.9848         13.8191 
        1.47877         78.7967         13.6822 
        1.48491         78.1646          13.547 
        1.49104         77.8132         13.4139 
        1.49718         77.3078         13.2825 
        1.50333         76.8975         13.1526 
        1.50947         76.4821         13.0248 
         1.5156         76.1338         12.8988 
        1.52172         75.6594         12.7745 
        1.52787         75.4896         12.6516 
          1.534         74.9299         12.5305 
        1.54013         74.3999         12.4111 
        1.54627         74.1573          12.293 
        1.55241          73.669         12.1764 
        1.55855         73.4012         12.0615 
        1.56467         72.8808         11.9485 
         1.5708          72.589         11.8365 
        1.57695         72.3668         11.7258 
        1.58308          71.625         11.6168 
        1.58922         71.5493         11.5091 
        1.59535         71.2661         11.4028 
         1.6015         70.6251         11.2977 
        1.60764         70.3875          11.194 
        1.61376         69.9887         11.0918 
        1.61989         69.6118         10.9909 
        1.62604         69.3828          10.891 
        1.63218         69.0328         10.7924 
        1.63831         68.4994         10.6952 
        1.64444         68.2171         10.5992 
        1.65059         67.7431         10.5042 
        1.65673          67.461         10.4104 
        1.66285         67.1283         10.3181 
        1.66898         66.7814         10.2268 
        1.67512         66.3511         10.1364 
        1.68127          66.055         10.0471 
         1.6874         65.7814         9.95904 
        1.69353         65.4452         9.87208 
        1.69967         64.9903         9.78596 
        1.70581         64.8664          9.7009 
        1.71193         64.6266         9.61718 
        1.71806         63.9879         9.53426 
        1.72421         63.8231         9.45217 
        1.73035         63.4834         9.37113 
        1.73649         63.1101         9.29105 
        1.74262         62.8925         9.21198 
        1.74876         62.5457         9.13378 
        1.75489         62.1238         9.05665 
        1.76101         61.9479         8.98043 
        1.76715         61.5103         8.90498 
        1.77329         61.2948         8.83031 
        1.77943         60.8274         8.75646 
        1.78557         60.7043         8.68357 
        1.79171         60.3143         8.61149 
        1.79785         60.0934         8.54022 
        1.80399         59.8065         8.46977 
        1.81012          59.569          8.4002 
        1.81625         59.0387         8.33145 
        1.82239         58.8199         8.26337 
        1.82853         58.5047         8.19608 
        1.83466         58.2715          8.1296 
        1.84078         57.9278         8.06393 
        1.84692         57.5656         7.99888 
        1.85306         57.3611         7.93447 
         1.8592         56.9392         7.87087 
        1.86533         56.7907         7.80801 
        1.87147         56.4371         7.74575 
        1.87761         56.2075         7.68415 
        1.88375          55.933         7.62329 
        1.88988         55.7962         7.56316 
        1.89601         55.3725         7.50364 
        1.90215         55.1168         7.44472 
        1.90829         54.9666         7.38645 
        1.91442         54.5953         7.32881 
        1.92056          54.207         7.27183 
         1.9267         54.0385         7.21539 
        1.93284         53.7513         7.15953 
        1.93897          53.433         7.10435 
        1.94509         53.1286         7.04988 
        1.95123          52.978         6.99584 
        1.95737         52.7603         6.94233 
        1.96349         52.3914         6.88952 
        1.96964         52.3065          6.8371 
        1.97578         51.9625          6.7852 
        1.98192         51.6979         6.73395 
        1.98805          51.584         6.68322 
        1.99419         51.1632         6.63301 
        2.00033         50.9269          6.5833 
        2.00647         50.7316          6.5341 
         2.0126         50.3548          6.4855 
        2.01874         50.2034         6.43731 
        2.02488         50.0421         6.38957 
        2.03101         49.7141          6.3424 
        2.03714          49.461         6.29575 
        2.04328         49.2533         6.24952 
        2.04941         48.9418         6.20379 
        2.05554         48.6364         6.15855 
        2.06167         48.5312          6.1137 
        2.06781         48.3267         6.06929 
        2.07396         48.0178         6.02525 
        2.08009         47.8526         5.98173 
        2.08622         47.5463         5.93869 
        2.09237          47.313         5.89599 
        2.09851          47.158          5.8537 
        2.10464         46.8761          5.8119 
        2.11077          46.663         5.77055 
        2.11691         46.4161         5.72951 
        2.12305         46.1981         5.68887 
        2.12918         45.9318         5.64872 
        2.13531         45.7171         5.60896 
        2.14145         45.4955         5.56949 
         2.1476         45.3396         5.53035 
        2.15372         45.0475         5.49178 
        2.15985         44.8284         5.45355 
        2.16599         44.6884         5.41556 
        2.17213         44.5018         5.37798 
        2.17827         44.2426         5.34077 
         2.1844         43.9897         5.30394 
        2.19054         43.7404         5.26744 
        2.19666         43.5722         5.23134 
         2.2028          43.406         5.19555 
        2.20893         43.2432         5.16007 
        2.21508         43.0531         5.12488 
        2.22122         42.7827         5.09001 
        2.22736         42.6195         5.05554 
        2.23349         42.4666         5.02139 
        2.23962         42.0835         4.98754 
        2.24577         41.9215         4.95398 
         2.2519         41.6989         4.92076 
        2.25802         41.6531         4.88791 
        2.26417         41.3863         4.85526 
        2.27031         41.2217         4.82288 
        2.27644         40.9311         4.79089 
        2.28257         40.7958         4.75919 
        2.28872         40.4998         4.72772 
        2.29486          40.392         4.69654 
        2.30099         40.2465          4.6657 
        2.30712         40.0266         4.63513 
        2.31326         39.8031         4.60478 
         2.3194         39.5931         4.57472 
        2.32553         39.4365         4.54498 
        2.33166         39.2823         4.51551 
         2.3378         38.9783         4.48626 
        2.34394         38.7783         4.45727 
        2.35007         38.6207         4.42857 
        2.35619         38.5261         4.40016 
        2.36233         38.3975         4.37193 
        2.36848         38.0722         4.34389 
        2.37462         37.9676         4.31615 
        2.38075         37.7915         4.28868 
        2.38689         37.7007         4.26143 
        2.39303         37.4617         4.23442 
        2.39916         37.2555         4.20767 
        2.40529         37.0398         4.18116 
        2.41143          36.957         4.15485 
        2.41757         36.7825         4.12876 
         2.4237         36.6446         4.10294 
        2.42983         36.4493         4.07734 
        2.43598         36.2075         4.05189 
        2.44211         36.0666          4.0267 
        2.44823         35.9119         4.00179 
        2.45437            35.8         3.97701 
        2.46052         35.4949         3.95242 
        2.46665         35.4033         3.92809 
        2.47279         35.2759         3.90397 
        2.47892         35.0646         3.88003 
        2.48507           34.91         3.85627 
         2.4912         34.7899         3.83276 
