# k  (h/Mpc)    Pcb(k)  (Mpc/h)^3    Pcb_linear(k)  (Mpc/h)^3
     0.00783031         3014.09         3045.17 
       0.013688         3962.31         3956.42 
       0.019231         4167.05         4165.39 
      0.0249154         3948.64         3987.36 
      0.0312784         3553.16            3567 
      0.0375637         3114.88         3110.96 
      0.0433917         2728.28         2746.33 
      0.0492413         2463.96         2467.35 
      0.0555754         2228.75         2255.23 
      0.0619321         2112.63         2104.31 
       0.067871         1964.82         1985.28 
      0.0738098          1840.4         1861.83 
      0.0800417         1684.65          1714.5 
      0.0862327         1535.28         1552.57 
      0.0921407          1388.8            1396 
      0.0982031          1237.7         1248.47 
       0.104506         1129.84         1121.42 
       0.110769         1034.42         1026.46 
       0.116806         961.936         961.697 
       0.122832          921.17         915.657 
       0.129052         872.554          877.58 
       0.135211           834.7          839.98 
       0.141259         798.664         797.307 
       0.147318         753.364         747.434 
       0.153489         694.004         691.879 
       0.159709         644.252         636.043 
       0.165845          604.29         586.126 
       0.171974          558.78         544.732 
       0.178125         528.797         512.666 
       0.184229         507.049         489.043 
        0.19034         479.104         470.936 
       0.196428         470.046         455.255 
       0.202534         457.709         439.099 
       0.208729          436.04         420.519 
       0.214876         412.144         399.581 
       0.220989         396.935         377.199 
       0.227147         370.843         354.704 
        0.23329         352.394         333.954 
       0.239377         339.333         316.178 
       0.245482         318.567         301.519 
       0.251667         312.684         289.594 
       0.257832         302.631         279.781 
       0.263955         292.847          271.03 
       0.270079         283.657         262.333 
        0.27624         278.266         253.017 
       0.282372         267.291         243.023 
        0.28843         256.627         232.675 
       0.294538         245.827         222.237 
       0.300721         240.576         212.216 
        0.30691         229.149         203.139 
       0.313033         222.605         195.302 
       0.319153         212.938         188.535 
       0.325316         209.023         182.572 
        0.33145         202.242         177.136 
       0.337538         198.823         171.925 
       0.343633         192.516         166.653 
       0.349808         186.967         161.169 
       0.355968         182.578         155.583 
       0.362074         177.022          150.07 
       0.368217         172.151         144.718 
       0.374374         167.035         139.684 
       0.380519         163.073         135.088 
       0.386598         158.858         130.956 
       0.392688         156.159         127.178 
        0.39888         152.136         123.606 
       0.405048         148.937         120.202 
       0.411186         145.765         116.883 
       0.417313         141.805         113.587 
       0.423458         138.767         110.287 
       0.429607         135.258         107.029 
       0.435692         130.957         103.892 
       0.441815         129.778         100.863 
       0.447964         127.689         97.9943 
       0.454126         122.319         95.3007 
       0.460267         120.729         92.7798 
       0.466387         118.313         90.4072 
        0.47254         116.492         88.1284 
       0.478662          114.82         85.9293 
       0.484765         111.809         83.7824 
       0.490885         109.713         81.6706 
       0.497035         108.346         79.5905 
       0.503198         105.519         77.5557 
       0.509342         103.177         75.5922 
       0.515458         101.647          73.717 
       0.521598         100.329         71.9185 
       0.527764         98.6497         70.1923 
       0.533884         96.9745         68.5521 
           0.54         95.2707         66.9781 
       0.546137         94.2311         65.4521 
       0.552299          92.891         63.9628 
       0.558452         90.4198         62.5104 
       0.564573         88.8947         61.0999 
       0.570708         87.9712         59.7236 
       0.576825         86.3122         58.3912 
       0.582926         84.7748         57.1036 
       0.589034         82.9333         55.8562 
       0.595184         82.0626         54.6434 
       0.601379         81.0932         53.4653 
       0.607522         79.1804         52.3376 
       0.613639         78.9976           51.25 
       0.619772         77.0553         50.1905 
       0.625918         76.6448         49.1562 
       0.632068         75.5598         48.1471 
       0.638161         74.4393         47.1733 
         0.6443         73.3062         46.2185 
       0.650464          72.253         45.2871 
       0.656582         71.6562         44.3891 
       0.662703         70.2399         43.5163 
       0.668861         69.4475         42.6632 
       0.675024         68.5098         41.8335 
       0.681124         67.4448         41.0354 
       0.687237         66.3761         40.2574 
       0.693381          65.871         39.4966 
       0.699536         64.6546         38.7543 
       0.705665         64.9188         38.0343 
       0.711789         63.2661         37.3329 
       0.717957         62.7372         36.6438 
        0.72409         61.8761         35.9757 
       0.730186         60.9473         35.3283 
       0.736317         60.6871         34.6936 
       0.742472         59.6848         34.0725 
       0.748622         59.2601         33.4679 
        0.75476         58.4938         32.8799 
       0.760888         57.6817         32.3074 
       0.767043         57.1208         31.7466 
       0.773185         56.3388         31.2006 
       0.779291         56.1022         30.6707 
       0.785407         55.5382         30.1523 
       0.791564         54.6265         29.6427 
       0.797719         53.7725          29.145 
       0.803834         53.6859          28.662 
       0.809972          52.934         28.1883 
       0.816124         52.0581         27.7243 
       0.822261         51.8368         27.2722 
       0.828378         51.3887         26.8318 
       0.834502         50.7905         26.4008 
       0.840667         50.3753         25.9768 
       0.846816         49.6774         25.5634 
       0.852925         49.2624         25.1617 
       0.859047         48.6416          24.768 
       0.865192         48.3775         24.3816 
       0.871341         48.1255         24.0032 
       0.877463         47.1654         23.6347 
       0.883569         46.8469         23.2749 
       0.889708         46.5303         22.9209 
       0.895864         46.1211         22.5734 
       0.902008          45.748         22.2339 
       0.908149         45.3485         21.9017 
       0.914301         45.1392         21.5758 
       0.920448         44.3517         21.2569 
       0.926574         44.1542         20.9457 
       0.932687         43.7153         20.6414 
       0.938823         43.1412         20.3422 
       0.944975         42.9607         20.0482 
       0.951105         42.5982         19.7612 
       0.957225         42.0918         19.4804 
       0.963368         41.9198         19.2042 
       0.969511         41.6069         18.9334 
       0.975621         41.2905         18.6693 
       0.981748         40.7543         18.4096 
       0.987916         40.5876         18.1533 
        0.99406         40.2376         17.9029 
        1.00019         39.7409         17.6578 
        1.00632         39.5986         17.4175 
        1.01246         39.2776         17.1814 
        1.01859         38.8104         16.9502 
        1.02471          38.801         16.7235 
        1.03085         38.4118         16.5002 
        1.03698         37.8926         16.2815 
        1.04314         37.6218         16.0659 
        1.04929         37.3958         15.8548 
        1.05541         37.0065         15.6483 
        1.06154         36.8822          15.445 
        1.06769         36.6075         15.2451 
        1.07382          36.303         15.0494 
        1.07993         36.1849         14.8577 
        1.08607         35.7244         14.6685 
        1.09222         35.5896         14.4824 
        1.09836         35.1957         14.2999 
        1.10449         35.0686         14.1207 
        1.11063         34.6197         13.9444 
        1.11677         34.5194         13.7712 
         1.1229         34.3989         13.6013 
        1.12903          33.944         13.4342 
        1.13518         33.7158         13.2697 
        1.14131         33.6662         13.1082 
        1.14745         33.3775         12.9494 
        1.15359         33.2227         12.7932 
        1.15973         32.8595         12.6396 
        1.16584          32.552         12.4893 
        1.17197         32.6096         12.3412 
        1.17811         32.1749          12.195 
        1.18424         31.9164         12.0517 
        1.19038         31.8751         11.9103 
        1.19652         31.6487         11.7712 
        1.20267         31.4283         11.6344 
        1.20881         31.2481         11.4998 
        1.21495         31.0188         11.3675 
        1.22108         30.8033         11.2374 
         1.2272         30.4956         11.1097 
        1.23334         30.3829         10.9836 
        1.23949         30.1538         10.8593 
        1.24562         30.0877         10.7372 
        1.25174          29.904         10.6172 
        1.25789         29.7202         10.4987 
        1.26402         29.5676         10.3822 
        1.27014         29.2826         10.2678 
        1.27628         29.0615         10.1548 
        1.28244         28.9937         10.0433 
        1.28858         28.8644         9.93366 
        1.29471          28.616         9.82589 
        1.30084         28.4397         9.71984 
        1.30697         28.2647          9.6152 
        1.31312         28.0251         9.51196 
        1.31925         27.9083         9.41058 
        1.32537         27.8301         9.31078 
        1.33151         27.5805         9.21209 
        1.33765         27.5001          9.1149 
        1.34378         27.3854         9.01931 
        1.34992         27.0176         8.92504 
        1.35606         26.9851         8.83193 
         1.3622         26.8352         8.74032 
        1.36833         26.6659         8.65025 
        1.37445         26.6043         8.56149 
        1.38059         26.4499         8.47373 
        1.38675         26.1794         8.38699 
        1.39288         26.1257         8.30183 
        1.39901         25.9084         8.21789 
        1.40515         25.8197         8.13494 
         1.4113         25.6662         8.05318 
        1.41742         25.4551         7.97286 
        1.42355         25.4091         7.89349 
         1.4297         25.2504         7.81498 
        1.43585         25.1977         7.73757 
        1.44198         24.9274         7.66152 
        1.44809          24.873         7.58664 
        1.45423         24.7503          7.5125 
        1.46036          24.663         7.43949 
        1.46649         24.5076         7.36743 
        1.47263         24.3303         7.29627 
        1.47877          24.231          7.2261 
        1.48491         24.1024         7.15674 
        1.49104         24.0581         7.08845 
        1.49718         23.8413         7.02101 
        1.50333         23.7618         6.95434 
        1.50947         23.6775         6.88868 
         1.5156         23.4787         6.82398 
        1.52172          23.321         6.76011 
        1.52787         23.2881         6.69693 
          1.534         23.1461         6.63465 
        1.54013         22.9732         6.57323 
        1.54627          22.904         6.51248 
        1.55241         22.7611         6.45249 
        1.55855         22.6809         6.39335 
        1.56467         22.5916         6.33512 
         1.5708         22.5006         6.27746 
        1.57695         22.2893         6.22043 
        1.58308         22.2887         6.16425 
        1.58922         22.1545         6.10873 
        1.59535         22.0266         6.05392 
         1.6015         21.9072         5.99971 
        1.60764         21.8512         5.94619 
        1.61376         21.7634         5.89348 
        1.61989         21.5511         5.84138 
        1.62604         21.5609         5.78978 
        1.63218         21.4036         5.73885 
        1.63831          21.345         5.68866 
        1.64444         21.1818         5.63904 
        1.65059         21.1065         5.58991 
        1.65673         21.0369         5.54142 
        1.66285         20.8941         5.49365 
        1.66898         20.8451         5.44642 
        1.67512         20.7464         5.39967 
        1.68127         20.6025         5.35342 
         1.6874         20.5247         5.30783 
        1.69353         20.4884         5.26279 
        1.69967         20.3229         5.21818 
        1.70581         20.2202          5.1741 
        1.71193         20.1283         5.13071 
        1.71806         20.0883         5.08772 
        1.72421         19.9645         5.04515 
        1.73035         19.9202         5.00311 
        1.73649         19.7914         4.96157 
        1.74262         19.7576         4.92053 
        1.74876          19.636         4.87993 
        1.75489         19.5596         4.83988 
        1.76101         19.4498         4.80029 
        1.76715          19.445          4.7611 
        1.77329         19.3171         4.72229 
        1.77943         19.2011         4.68391 
        1.78557         19.1299         4.64601 
        1.79171         19.0849         4.60853 
        1.79785         18.9614         4.57145 
        1.80399         18.8964          4.5348 
        1.81012         18.8187          4.4986 
        1.81625         18.7177         4.46281 
        1.82239         18.6703         4.42736 
        1.82853         18.5221         4.39232 
        1.83466         18.4808         4.35769 
        1.84078         18.3447         4.32348 
        1.84692         18.3313         4.28957 
        1.85306         18.2418           4.256 
         1.8592         18.1761         4.22284 
        1.86533         18.1052         4.19005 
        1.87147         18.0171         4.15757 
        1.87761         17.9612         4.12543 
        1.88375         17.8378         4.09367 
        1.88988         17.8128         4.06227 
        1.89601         17.7367          4.0312 
        1.90215         17.6365         4.00042 
        1.90829         17.5887         3.96998 
        1.91442         17.5026         3.93986 
        1.92056          17.451         3.91008 
         1.9267         17.3759         3.88058 
        1.93284         17.2848         3.85137 
        1.93897         17.1947         3.82251 
        1.94509         17.1473         3.79402 
        1.95123         17.0809         3.76575 
        1.95737         17.0019         3.73774 
        1.96349          16.935          3.7101 
        1.96964         16.8724         3.68265 
        1.97578         16.8076         3.65548 
        1.98192          16.712         3.62863 
        1.98805          16.672         3.60205 
        1.99419         16.5901         3.57574 
        2.00033         16.5331         3.54968 
        2.00647         16.4959         3.52389 
         2.0126         16.3523          3.4984 
        2.01874         16.3167         3.47313 
        2.02488         16.2341         3.44808 
        2.03101         16.2278         3.42333 
        2.03714         16.1486         3.39885 
        2.04328         16.0626         3.37457 
        2.04941         16.0002         3.35056 
        2.05554         15.9786          3.3268 
        2.06167         15.8952         3.30324 
        2.06781         15.8396         3.27991 
        2.07396         15.7749         3.25677 
        2.08009         15.7066         3.23389 
        2.08622         15.6296         3.21126 
        2.09237         15.5901         3.18881 
        2.09851         15.5341         3.16656 
        2.10464         15.4617         3.14457 
        2.11077         15.4058         3.12282 
        2.11691         15.3305         3.10122 
        2.12305         15.2802         3.07983 
        2.12918         15.2375         3.05869 
        2.13531         15.1757         3.03775 
        2.14145         15.1147         3.01696 
         2.1476         15.0597         2.99634 
        2.15372         15.0126         2.97602 
        2.15985         14.9442         2.95586 
        2.16599         14.8922         2.93584 
        2.17213         14.8619         2.91603 
        2.17827         14.7973          2.8964 
         2.1844          14.738         2.87697 
        2.19054         14.6553         2.85772 
        2.19666         14.6206         2.83867 
         2.2028         14.5587         2.81978 
        2.20893         14.5218         2.80105 
        2.21508         14.4603         2.78247 
        2.22122         14.3789         2.76405 
        2.22736         14.3416         2.74584 
        2.23349         14.2748          2.7278 
        2.23962          14.255         2.70992 
        2.24577         14.1765         2.69218 
         2.2519          14.135         2.67462 
        2.25802         14.0828         2.65725 
        2.26417         14.0269         2.63999 
        2.27031         13.9888         2.62286 
        2.27644         13.9371         2.60594 
        2.28257         13.8991         2.58917 
        2.28872         13.8166         2.57251 
        2.29486         13.7963         2.55601 
        2.30099         13.7629         2.53969 
        2.30712         13.7065          2.5235 
        2.31326         13.6461         2.50742 
         2.3194         13.5613          2.4915 
        2.32553         13.5558         2.47574 
        2.33166         13.4685         2.46013 
         2.3378         13.4464         2.44463 
        2.34394         13.3878         2.42926 
        2.35007         13.3201         2.41404 
        2.35619         13.2873         2.39897 
        2.36233          13.231           2.384 
        2.36848         13.2177         2.36912 
        2.37462         13.1584         2.35441 
        2.38075         13.0862         2.33983 
        2.38689         13.0566         2.32537 
        2.39303         13.0175         2.31103 
        2.39916         12.9696         2.29682 
        2.40529         12.9391         2.28274 
        2.41143         12.8702         2.26877 
        2.41757         12.8517         2.25491 
         2.4237         12.7749         2.24119 
        2.42983         12.7564         2.22758 
        2.43598          12.709         2.21406 
        2.44211         12.6424         2.20067 
        2.44823         12.6145         2.18742 
        2.45437         12.5766         2.17424 
        2.46052         12.5311         2.16116 
        2.46665         12.4759         2.14822 
        2.47279         12.4404         2.13538 
        2.47892         12.3892         2.12264 
        2.48507         12.3487            2.11 
         2.4912         12.3177         2.09748 
