# k  (h/Mpc)    P(k)  (Mpc/h)^3    P_linear(k)  (Mpc/h)^3
     0.00783031         8499.64         8621.08 
       0.013688         10517.7         10467.3 
       0.019231         10479.6         10465.6 
      0.0249154         9405.21         9547.62 
      0.0312784         8063.72         8115.12 
      0.0375637         6768.29         6751.73 
      0.0433917         5685.92         5738.79 
      0.0492413         5002.69         5006.92 
      0.0555754         4406.61         4484.44 
      0.0619321         4173.55         4141.84 
       0.067871         3832.86         3890.72 
      0.0738098         3578.84         3635.67 
      0.0800417          3246.8         3325.61 
      0.0862327         2936.53         2976.19 
      0.0921407         2633.38         2632.69 
      0.0982031         2300.09          2306.9 
       0.104506         2080.55         2027.39 
       0.110769            1876         1822.29 
       0.116806         1731.75          1688.3 
       0.122832         1649.16          1600.7 
       0.129052         1551.71         1536.14 
       0.135211         1490.58         1476.01 
       0.141259         1434.87         1405.24 
       0.147318         1354.64         1316.91 
       0.153489         1240.95         1212.69 
       0.159709         1152.66         1103.42 
       0.165845         1077.03         1003.04 
       0.171974         992.783         918.776 
       0.178125         933.851         853.989 
       0.184229         889.019         808.137 
        0.19034         834.119         775.957 
       0.196428         822.318         751.142 
       0.202534         800.829         727.172 
       0.208729         764.205         699.029 
       0.214876         725.618         665.337 
       0.220989         698.373         627.017 
       0.227147         657.931          586.47 
        0.23329         624.709         547.612 
       0.239377         604.101         513.549 
       0.245482         560.855         485.362 
       0.251667         553.146         463.002 
       0.257832         533.455         445.711 
       0.263955         516.196         431.548 
       0.270079         497.896         418.369 
        0.27624         491.776         404.453 
       0.282372         472.387         389.111 
        0.28843         457.896         372.509 
       0.294538         435.511          354.97 
       0.300721         430.183         337.465 
        0.30691         409.205         321.164 
       0.313033         399.541         306.937 
       0.319153         384.794         294.777 
       0.325316         374.273         284.433 
        0.33145         362.688          275.48 
       0.337538         357.543          267.32 
       0.343633         345.924         259.291 
       0.349808         334.717          250.95 
       0.355968         330.099         242.274 
       0.362074         322.359         233.456 
       0.368217         313.289         224.626 
       0.374374         301.409         216.116 
       0.380519         297.298         208.236 
       0.386598         289.625         201.148 
       0.392688          286.32          194.77 
        0.39888         278.517         188.904 
       0.405048         272.154         183.487 
       0.411186         266.404         178.341 
       0.417313         261.204         173.288 
       0.423458         255.973         168.213 
       0.429607         250.346          163.14 
       0.435692         243.357          158.16 
       0.441815         241.354         153.273 
       0.447964         236.577         148.584 
       0.454126         227.616          144.16 
       0.460267         224.692         140.035 
       0.466387         221.936         136.206 
        0.47254         217.099         132.588 
       0.478662         215.909         129.151 
       0.484765         208.982         125.838 
       0.490885         206.175         122.596 
       0.497035         203.029         119.391 
       0.503198         198.228         116.232 
       0.509342         195.893         113.158 
       0.515458         193.105         110.199 
       0.521598         189.717         107.343 
       0.527764         187.017           104.6 
       0.533884         184.424         102.008 
           0.54         181.492         99.5411 
       0.546137         180.252         97.1686 
       0.552299         176.785         94.8693 
       0.558452         174.323         92.6405 
       0.564573         171.464         90.4826 
       0.570708         168.342         88.3749 
       0.576825         166.288         86.3251 
       0.582926         163.554         84.3344 
       0.589034         161.607         82.4009 
       0.595184         159.738         80.5203 
       0.601379         157.867         78.6973 
       0.607522         154.559         76.9559 
       0.613639         153.811         75.2813 
       0.619772         150.545         73.6562 
       0.625918         149.054         72.0765 
       0.632068         147.271         70.5414 
       0.638161         146.129         69.0627 
         0.6443         144.086         67.6126 
       0.650464         142.534          66.195 
       0.656582         140.719          64.825 
       0.662703         138.984         63.4922 
       0.668861         136.826         62.1901 
       0.675024         135.292         60.9261 
       0.681124         134.461         59.7137 
       0.687237         132.066         58.5348 
       0.693381         130.262         57.3839 
       0.699536         129.278         56.2624 
       0.705665         129.267         55.1751 
       0.711789         126.272          54.116 
       0.717957         125.935         53.0762 
        0.72409         124.058         52.0688 
       0.730186         122.142         51.0935 
       0.736317         121.433         50.1382 
       0.742472         120.564         49.2046 
       0.748622         119.412         48.2965 
        0.75476          118.32          47.414 
       0.760888         116.625         46.5554 
       0.767043         115.964         45.7149 
       0.773185         114.682          44.897 
       0.779291         113.089         44.1037 
       0.785407         112.475         43.3284 
       0.791564         111.442         42.5667 
       0.797719         109.667         41.8237 
       0.803834         109.153         41.1033 
       0.809972         107.835         40.3973 
       0.816124         107.485         39.7066 
       0.822261         106.368         39.0342 
       0.828378         105.396         38.3796 
       0.834502         104.854         37.7397 
       0.840667         103.443         37.1104 
       0.846816         102.326         36.4973 
       0.852925         101.678         35.9021 
       0.859047          100.39          35.319 
       0.865192         99.8609         34.7469 
       0.871341         99.0024         34.1872 
       0.877463         97.8992         33.6423 
       0.883569         97.2906         33.1108 
       0.889708         96.5721          32.588 
       0.895864         95.7234         32.0752 
       0.902008         94.9591         31.5745 
       0.908149          94.455         31.0849 
       0.914301         93.4696          30.605 
       0.920448         92.8235         30.1357 
       0.926574         92.1111         29.6779 
       0.932687         91.8952         29.2306 
       0.938823         90.4177         28.7911 
       0.944975         89.6344         28.3596 
       0.951105         89.1373         27.9386 
       0.957225         88.1238         27.5268 
       0.963368         87.6492         27.1221 
       0.969511         87.3971         26.7255 
       0.975621         86.9131          26.339 
       0.981748         86.1233         25.9592 
       0.987916         85.3034         25.5845 
        0.99406         84.7376         25.2187 
        1.00019          84.126         24.8608 
        1.00632         83.5655         24.5103 
        1.01246         82.9497          24.166 
        1.01859         81.8847         23.8289 
        1.02471         81.8681         23.4987 
        1.03085         81.0663         23.1736 
        1.03698         80.6469         22.8554 
        1.04314         79.8561         22.5419 
        1.04929         79.3618          22.235 
        1.05541         78.6996         21.9351 
        1.06154         78.4806         21.6401 
        1.06769         78.0468           21.35 
        1.07382         77.6375         21.0662 
        1.07993         77.0633         20.7883 
        1.08607         76.4433         20.5142 
        1.09222         76.0992         20.2449 
        1.09836         75.4857         19.9807 
        1.10449         75.0916         19.7215 
        1.11063         74.5007         19.4667 
        1.11677         74.1141         19.2165 
         1.1229         73.3938         18.9711 
        1.12903         72.7002         18.7299 
        1.13518         72.9308         18.4926 
        1.14131         72.3426         18.2596 
        1.14745          71.601         18.0307 
        1.15359         71.3141         17.8057 
        1.15973         70.8459         17.5845 
        1.16584         70.3672         17.3681 
        1.17197         69.9624          17.155 
        1.17811         69.5629         16.9448 
        1.18424         69.0366         16.7388 
        1.19038         68.6388         16.5356 
        1.19652         68.3751         16.3358 
        1.20267         67.7221         16.1394 
        1.20881         67.4327         15.9463 
        1.21495         66.9259         15.7566 
        1.22108         66.6341         15.5701 
         1.2272         65.9846          15.387 
        1.23334         65.7709         15.2065 
        1.23949         65.4748         15.0284 
        1.24562         65.0528         14.8537 
        1.25174         64.7156         14.6821 
        1.25789         64.4385         14.5126 
        1.26402         64.0261         14.3462 
        1.27014         63.4485         14.1827 
        1.27628         63.2281         14.0214 
        1.28244         62.7473         13.8622 
        1.28858         62.4797         13.7058 
        1.29471          62.233         13.5521 
        1.30084          61.854         13.4009 
        1.30697         61.4483         13.2518 
        1.31312         61.0796         13.1048 
        1.31925         60.8553         12.9604 
        1.32537         60.5952         12.8184 
        1.33151         59.9634          12.678 
        1.33765         59.7467         12.5398 
        1.34378          59.402          12.404 
        1.34992         59.1305         12.2701 
        1.35606         58.8161         12.1378 
         1.3622         58.3473         12.0078 
        1.36833         58.1799           11.88 
        1.37445          57.907         11.7541 
        1.38059         57.4284         11.6296 
        1.38675         57.1358         11.5067 
        1.39288         56.8502          11.386 
        1.39901         56.6749         11.2671 
        1.40515         56.3145         11.1496 
         1.4113         56.0713         11.0339 
        1.41742         55.8807         10.9202 
        1.42355         55.3893          10.808 
         1.4297         55.2043          10.697 
        1.43585         54.8383         10.5875 
        1.44198         54.5861         10.4801 
        1.44809          54.365         10.3743 
        1.45423         54.0771         10.2696 
        1.46036         53.8712         10.1666 
        1.46649         53.5492         10.0649 
        1.47263         53.1823         9.96455 
        1.47877         53.0176          9.8656 
        1.48491         52.8775         9.76785 
        1.49104         52.4468         9.67163 
        1.49718         51.9874         9.57664 
        1.50333         51.8919         9.48277 
        1.50947         51.6701         9.39036 
         1.5156         51.3562         9.29932 
        1.52172         51.2136         9.20949 
        1.52787         51.0637         9.12067 
          1.534         50.6929         9.03313 
        1.54013         50.4019         8.94683 
        1.54627         50.2447         8.86151 
        1.55241         49.8407         8.77729 
        1.55855         49.6435         8.69428 
        1.56467         49.2465         8.61258 
         1.5708         49.2577          8.5317 
        1.57695         49.0022         8.45174 
        1.58308          48.671         8.37298 
        1.58922         48.6547         8.29518 
        1.59535         48.4222          8.2184 
         1.6015         47.9449         8.14248 
        1.60764          47.783         8.06756 
        1.61376         47.5418         7.99379 
        1.61989         47.2685         7.92088 
        1.62604         47.1684         7.84872 
        1.63218         47.0338         7.77751 
        1.63831         46.7401         7.70734 
        1.64444         46.4709         7.63801 
        1.65059         46.1804         7.56938 
        1.65673         46.0112         7.50166 
        1.66285          45.751         7.43496 
        1.66898         45.5472         7.36905 
        1.67512         45.3121         7.30382 
        1.68127         45.0698         7.23931 
         1.6874         44.9565         7.17573 
        1.69353         44.6646         7.11295 
        1.69967         44.4712         7.05078 
        1.70581         44.4116         6.98937 
        1.71193         44.1722         6.92893 
        1.71806         43.7607         6.86908 
        1.72421         43.6764         6.80981 
        1.73035         43.4599         6.75131 
        1.73649         43.0985         6.69351 
        1.74262         43.0855         6.63644 
        1.74876         42.9197         6.57999 
        1.75489          42.658         6.52432 
        1.76101         42.5042         6.46931 
        1.76715         42.2728         6.41485 
        1.77329         42.0862         6.36096 
        1.77943         41.9057         6.30767 
        1.78557         41.7269         6.25507 
        1.79171         41.4825         6.20305 
        1.79785         41.3023         6.15162 
        1.80399         41.2094         6.10078 
        1.81012         40.9712         6.05059 
        1.81625         40.6592         6.00099 
        1.82239         40.5726         5.95186 
        1.82853         40.2766         5.90331 
        1.83466         40.1942         5.85535 
        1.84078         39.8745         5.80797 
        1.84692         39.7725         5.76105 
        1.85306         39.5886         5.71458 
         1.8592         39.3589         5.66869 
        1.86533         39.2451         5.62334 
        1.87147         39.1076         5.57843 
        1.87761         38.9593           5.534 
        1.88375         38.7239          5.4901 
        1.88988         38.6753         5.44672 
        1.89601         38.4003         5.40379 
        1.90215          38.257         5.36129 
        1.90829          38.164         5.31926 
        1.91442         37.9187         5.27768 
        1.92056         37.7479         5.23659 
         1.9267         37.5027         5.19589 
        1.93284          37.357          5.1556 
        1.93897         37.2521         5.11581 
        1.94509          36.991         5.07653 
        1.95123         36.9328         5.03757 
        1.95737         36.6712         4.99898 
        1.96349         36.5277          4.9609 
        1.96964         36.4377          4.9231 
        1.97578         36.2217         4.88568 
        1.98192         36.0818         4.84873 
        1.98805         35.9547         4.81215 
        1.99419         35.7189         4.77595 
        2.00033         35.5762          4.7401 
        2.00647         35.4184         4.70464 
         2.0126         35.2511         4.66959 
        2.01874         35.1553         4.63485 
        2.02488         35.0292         4.60043 
        2.03101         34.8101         4.56642 
        2.03714         34.6687         4.53279 
        2.04328         34.4933         4.49947 
        2.04941         34.3569          4.4665 
        2.05554         34.1653         4.43389 
        2.06167         34.0947         4.40156 
        2.06781         33.8925         4.36955 
        2.07396         33.7703         4.33781 
        2.08009         33.6615         4.30644 
        2.08622         33.4404         4.27541 
        2.09237         33.3011         4.24463 
        2.09851         33.1404         4.21415 
        2.10464          33.062         4.18402 
        2.11077         32.9143         4.15422 
        2.11691         32.7556         4.12465 
        2.12305         32.5849         4.09536 
        2.12918         32.5278         4.06642 
        2.13531         32.3134         4.03777 
        2.14145         32.2586         4.00932 
         2.1476         32.0364         3.98111 
        2.15372         31.8692         3.95332 
        2.15985         31.7607         3.92576 
        2.16599         31.7545         3.89839 
        2.17213         31.6081         3.87131 
        2.17827         31.3446         3.84449 
         2.1844         31.2347         3.81795 
        2.19054          31.102         3.79165 
        2.19666         30.9879         3.76563 
         2.2028         30.8306         3.73984 
        2.20893         30.7558         3.71428 
        2.21508         30.6213         3.68892 
        2.22122         30.4098          3.6638 
        2.22736         30.3579         3.63896 
        2.23349          30.222         3.61436 
        2.23962         30.0376         3.58997 
        2.24577         29.9222         3.56578 
         2.2519         29.8192         3.54186 
        2.25802         29.6809         3.51819 
        2.26417         29.5925         3.49467 
        2.27031         29.4961         3.47134 
        2.27644         29.2871         3.44829 
        2.28257         29.1997         3.42546 
        2.28872         29.0521         3.40279 
        2.29486         29.0112         3.38033 
        2.30099         28.8439         3.35811 
        2.30712         28.7336         3.33609 
        2.31326          28.665         3.31423 
         2.3194         28.5259         3.29257 
        2.32553         28.3461         3.27115 
        2.33166         28.2437         3.24992 
         2.3378         28.1016         3.22885 
        2.34394         27.9626         3.20797 
        2.35007         27.8787          3.1873 
        2.35619         27.7974         3.16683 
        2.36233         27.7239          3.1465 
        2.36848         27.5267          3.1263 
        2.37462         27.4435         3.10633 
        2.38075         27.3405         3.08655 
        2.38689         27.2814         3.06692 
        2.39303         27.1042         3.04747 
        2.39916         26.9581          3.0282 
        2.40529         26.8169         3.00911 
        2.41143         26.7681         2.99016 
        2.41757         26.6789         2.97137 
         2.4237         26.5228         2.95278 
        2.42983         26.4197         2.93434 
        2.43598         26.3114         2.91602 
        2.44211         26.1994         2.89788 
        2.44823         26.0773         2.87994 
        2.45437         25.9929         2.86209 
        2.46052         25.8603         2.84439 
        2.46665         25.8233         2.82687 
        2.47279         25.6936         2.80949 
        2.47892         25.5462         2.79226 
        2.48507         25.4542         2.77515 
         2.4912          25.384         2.75822 
