# k  (h/Mpc)    P(k)  (Mpc/h)^3    P_linear(k)  (Mpc/h)^3
     0.00783031         5665.68         5748.53 
       0.013688         6901.58         6888.27 
       0.019231         6674.07         6666.12 
      0.0249154         5740.22         5804.31 
      0.0312784         4658.63         4668.41 
      0.0375637         3751.98          3730.6 
      0.0433917         3122.74          3132.4 
      0.0492413         2773.94         2768.19 
      0.0555754         2520.77         2549.08 
      0.0619321         2419.19         2401.99 
       0.067871         2228.73         2249.92 
      0.0738098         2027.89         2047.04 
      0.0800417          1764.7         1787.79 
      0.0862327         1519.23         1522.89 
      0.0921407         1316.26         1303.12 
      0.0982031         1142.48         1135.18 
       0.104506         1052.59         1025.77 
       0.110769         989.374          968.65 
       0.116806         949.888         939.821 
       0.122832         925.579         913.657 
       0.129052         870.745         871.432 
       0.135211         810.107         808.094 
       0.141259         745.331         730.799 
       0.147318         673.137         650.837 
       0.153489         600.104         579.483 
       0.159709         552.041         525.735 
       0.165845         523.811         491.809 
       0.171974         497.965          472.82 
       0.178125          484.45         461.642 
       0.184229         471.734         450.827 
        0.19034         444.885         434.675 
       0.196428         429.691         411.265 
       0.202534         407.521         382.126 
       0.208729         376.465         350.884 
       0.214876         348.361         322.598 
       0.220989         330.921         300.101 
       0.227147         312.197         283.998 
        0.23329         300.555          273.46 
       0.239377         294.499         266.259 
       0.245482         278.812         259.732 
       0.251667          275.12         251.686 
       0.257832         264.959         241.231 
       0.263955          252.98         228.739 
       0.270079         240.493           215.3 
        0.27624         232.886         202.352 
       0.282372         222.514         191.212 
        0.28843         213.089         182.457 
       0.294538         204.016         175.783 
       0.300721         201.345         170.545 
        0.30691         192.906         165.956 
       0.313033         188.103         161.222 
       0.319153         179.997         155.846 
       0.325316         175.968         149.678 
        0.33145         168.748         143.122 
       0.337538         164.876          136.65 
       0.343633         158.451         130.675 
       0.349808         153.143         125.428 
       0.355968          149.88         121.046 
       0.362074          145.59         117.409 
       0.368217         141.471         114.154 
       0.374374         137.156         111.018 
       0.380519         134.437         107.776 
       0.386598         130.667         104.365 
       0.392688         128.141         100.807 
        0.39888         124.495         97.1545 
       0.405048         121.133         93.6617 
       0.411186         118.241         90.4719 
       0.417313         115.134         87.6054 
       0.423458         112.394         85.0506 
       0.429607          109.69         82.7378 
       0.435692         106.051         80.5731 
       0.441815         105.052         78.4303 
       0.447964         103.128          76.272 
       0.454126         98.4714         74.0733 
       0.460267          97.274         71.8743 
       0.466387          95.411         69.7366 
        0.47254         93.3996         67.6919 
       0.478662          92.254         65.7815 
       0.484765         89.4434         64.0103 
       0.490885         87.7693         62.3655 
       0.497035          86.629         60.8073 
       0.503198         84.1383         59.3001 
       0.509342         82.3403          57.821 
       0.515458         80.9931         56.3687 
       0.521598         79.7226         54.9326 
       0.527764         78.4006         53.5161 
       0.533884         77.1541         52.1484 
           0.54         75.4551         50.8355 
       0.546137         74.6291         49.5852 
       0.552299         73.4275         48.3984 
       0.558452         71.5724         47.2684 
       0.564573         70.2783         46.1848 
       0.570708         69.2659         45.1279 
       0.576825         68.1926         44.0994 
       0.582926         66.7079         43.0988 
       0.589034         65.3902         42.1219 
       0.595184         64.5297         41.1639 
       0.601379         63.5699         40.2265 
       0.607522         62.0845         39.3264 
       0.613639         61.8566         38.4611 
       0.619772         60.4191         37.6264 
       0.625918         59.7609         36.8217 
       0.632068          59.013          36.044 
       0.638161         58.1351         35.2968 
         0.6443         57.2527         34.5637 
       0.650464         56.4322         33.8446 
       0.656582         55.7381         33.1471 
       0.662703         54.6406         32.4669 
       0.668861         53.9265         31.8012 
       0.675024         53.2318         31.1546 
       0.681124         52.4046         30.5349 
       0.687237         51.4528         29.9334 
       0.693381         50.9805         29.3472 
       0.699536         50.1081         28.7769 
       0.705665         50.2495         28.2246 
       0.711789         48.8864         27.6869 
       0.717957         48.3939         27.1586 
        0.72409         47.7426          26.646 
       0.730186         46.9734         26.1492 
       0.736317         46.7628         25.6619 
       0.742472         46.0545         25.1852 
       0.748622         45.5473         24.7212 
        0.75476         44.9885         24.2704 
       0.760888         44.2887         23.8321 
       0.767043          43.797         23.4034 
       0.773185         43.2194         22.9866 
       0.779291         42.9854         22.5825 
       0.785407         42.5729         22.1879 
       0.791564         41.9377         21.8003 
       0.797719         41.1382         21.4222 
       0.803834         41.0223         21.0554 
       0.809972         40.3382         20.6959 
       0.816124         39.8454          20.344 
       0.822261         39.5196         20.0013 
       0.828378         39.2663         19.6675 
       0.834502         38.7716         19.3411 
       0.840667         38.3704         19.0201 
       0.846816         37.7709         18.7073 
       0.852925         37.4802         18.4036 
       0.859047         36.9894         18.1061 
       0.865192         36.6765         17.8143 
       0.871341         36.5362         17.5289 
       0.877463         35.7929          17.251 
       0.883569         35.5084           16.98 
       0.889708         35.2482         16.7134 
       0.895864         34.8895          16.452 
       0.902008         34.5653         16.1967 
       0.908149         34.2468         15.9471 
       0.914301          34.067         15.7023 
       0.920448         33.6133          15.463 
       0.926574         33.2701         15.2296 
       0.932687         32.9866         15.0015 
       0.938823         32.4992         14.7773 
       0.944975         32.3708         14.5572 
       0.951105         32.0367         14.3424 
       0.957225         31.6337         14.1324 
       0.963368         31.6323         13.9259 
       0.969511         31.2828         13.7235 
       0.975621         31.0301         13.5263 
       0.981748         30.6082         13.3325 
       0.987916         30.4143         13.1413 
        0.99406         30.1928         12.9546 
        1.00019         29.8349         12.7719 
        1.00632         29.6491          12.593 
        1.01246         29.5006         12.4172 
        1.01859         29.0277         12.2451 
        1.02471         28.9963         12.0765 
        1.03085         28.7309         11.9105 
        1.03698         28.3251         11.7481 
        1.04314         28.1436          11.588 
        1.04929         27.9171         11.4312 
        1.05541         27.6179         11.2781 
        1.06154         27.5466         11.1273 
        1.06769         27.3104         10.9792 
        1.07382         27.0866         10.8342 
        1.07993         26.9466         10.6922 
        1.08607         26.6042         10.5522 
        1.09222         26.5062         10.4146 
        1.09836         26.2457         10.2796 
        1.10449         26.0522         10.1472 
        1.11063         25.7202          10.017 
        1.11677         25.6309         9.88918 
         1.1229         25.4998          9.7638 
        1.12903         25.1755          9.6405 
        1.13518         25.0896         9.51925 
        1.14131         24.9728         9.40016 
        1.14745         24.6627          9.2832 
        1.15359         24.6301         9.16822 
        1.15973         24.3327         9.05515 
        1.16584         24.1104         8.94451 
        1.17197         24.1031         8.83558 
        1.17811         23.8041         8.72813 
        1.18424         23.6118          8.6228 
        1.19038         23.5559         8.51891 
        1.19652         23.4294         8.41678 
        1.20267         23.2515         8.31634 
        1.20881         23.0296         8.21756 
        1.21495         22.8901         8.12056 
        1.22108         22.7346         8.02514 
         1.2272         22.5035          7.9315 
        1.23334         22.4364         7.83914 
        1.23949         22.2967         7.74804 
        1.24562         22.1267         7.65866 
        1.25174         22.0332         7.57083 
        1.25789         21.8452         7.48412 
        1.26402         21.7383         7.39893 
        1.27014         21.4922         7.31528 
        1.27628         21.3915         7.23269 
        1.28244         21.2908         7.15122 
        1.28858          21.192         7.07113 
        1.29471         21.0509         6.99245 
        1.30084         20.9134         6.91505 
        1.30697         20.7623         6.83871 
        1.31312         20.5664         6.76342 
        1.31925           20.48         6.68951 
        1.32537          20.397         6.61679 
        1.33151         20.2345          6.5449 
        1.33765         20.1747         6.47412 
        1.34378         20.0329         6.40454 
        1.34992          19.816         6.33594 
        1.35606         19.7598          6.2682 
         1.3622         19.6459         6.20158 
        1.36833         19.4932         6.13609 
        1.37445         19.4926         6.07159 
        1.38059         19.3077         6.00782 
        1.38675         19.0962         5.94482 
        1.39288         19.0886         5.88297 
        1.39901         18.9324         5.82205 
        1.40515         18.8621         5.76185 
         1.4113         18.7429         5.70253 
        1.41742         18.5641         5.64427 
        1.42355         18.5414         5.58673 
         1.4297         18.4419         5.52982 
        1.43585         18.3711         5.47373 
        1.44198         18.2006         5.41864 
        1.44809         18.1056         5.36441 
        1.45423         18.0252         5.31073 
        1.46036         17.9612         5.25788 
        1.46649         17.8449         5.20574 
        1.47263         17.7102         5.15427 
        1.47877         17.6432         5.10352 
        1.48491         17.5803         5.05338 
        1.49104         17.4995         5.00402 
        1.49718         17.3403         4.95529 
        1.50333         17.2911         4.90713 
        1.50947         17.2131         4.85972 
         1.5156         17.0813           4.813 
        1.52172         16.9716          4.7669 
        1.52787         16.9558         4.72132 
          1.534         16.8084         4.67639 
        1.54013         16.6776          4.6321 
        1.54627         16.6344          4.5883 
        1.55241         16.5342         4.54507 
        1.55855          16.436         4.50245 
        1.56467         16.3607         4.46051 
         1.5708         16.3334         4.41898 
        1.57695         16.1744         4.37792 
        1.58308         16.1775         4.33748 
        1.58922         16.0681         4.29753 
        1.59535          15.961         4.25809 
         1.6015         15.8825          4.2191 
        1.60764         15.8464         4.18062 
        1.61376         15.7084         4.14272 
        1.61989         15.6183         4.10527 
        1.62604         15.6041          4.0682 
        1.63218         15.5005         4.03161 
        1.63831         15.4613         3.99556 
        1.64444         15.3294         3.95994 
        1.65059         15.2566         3.92467 
        1.65673         15.1995         3.88987 
        1.66285         15.1237         3.85559 
        1.66898         15.0882         3.82171 
        1.67512         15.0164         3.78818 
        1.68127         14.9335         3.75503 
         1.6874         14.8386         3.72234 
        1.69353          14.771         3.69007 
        1.69967         14.6899          3.6581 
        1.70581         14.6379         3.62653 
        1.71193           14.57         3.59545 
        1.71806         14.4864         3.56467 
        1.72421         14.4277          3.5342 
        1.73035         14.3463         3.50411 
        1.73649         14.3068         3.47438 
        1.74262          14.274         3.44503 
        1.74876         14.1951         3.41599 
        1.75489         14.1231         3.38735 
        1.76101         14.0364         3.35905 
        1.76715         14.0096         3.33104 
        1.77329         13.9255         3.30331 
        1.77943          13.853         3.27589 
        1.78557         13.8194         3.24882 
        1.79171         13.7619         3.22205 
        1.79785         13.6471         3.19558 
        1.80399          13.605         3.16942 
        1.81012         13.5973         3.14358 
        1.81625         13.5054         3.11805 
        1.82239         13.4752         3.09276 
        1.82853         13.3615         3.06776 
        1.83466         13.2836         3.04307 
        1.84078         13.2288         3.01868 
        1.84692         13.2213         2.99451 
        1.85306         13.1307         2.97058 
         1.8592         13.0858         2.94695 
        1.86533         13.0469          2.9236 
        1.87147         12.9769         2.90046 
        1.87761         12.9471         2.87758 
        1.88375         12.8601         2.85496 
        1.88988         12.8082         2.83261 
        1.89601          12.755          2.8105 
        1.90215         12.6993          2.7886 
        1.90829          12.665         2.76695 
        1.91442         12.6129         2.74552 
        1.92056         12.5514         2.72434 
         1.9267         12.4958         2.70337 
        1.93284         12.4334          2.6826 
        1.93897         12.3844          2.6621 
        1.94509         12.3296         2.64185 
        1.95123         12.2864         2.62176 
        1.95737         12.2496         2.60187 
        1.96349         12.1845         2.58224 
        1.96964         12.1281         2.56275 
        1.97578         12.0854         2.54346 
        1.98192         12.0293          2.5244 
        1.98805         11.9959         2.50554 
        1.99419         11.9235         2.48687 
        2.00033         11.8693         2.46839 
        2.00647         11.8291         2.45009 
         2.0126         11.7949         2.43202 
        2.01874         11.7217          2.4141 
        2.02488         11.6746         2.39634 
        2.03101         11.6578          2.3788 
        2.03714         11.6183         2.36145 
        2.04328         11.5426         2.34425 
        2.04941         11.4811         2.32724 
        2.05554         11.4815         2.31042 
        2.06167         11.4177         2.29373 
        2.06781          11.389         2.27721 
        2.07396         11.3575         2.26083 
        2.08009         11.3054         2.24464 
        2.08622          11.211         2.22863 
        2.09237         11.2039         2.21274 
        2.09851         11.1623         2.19701 
        2.10464         11.1138         2.18145 
        2.11077         11.0523         2.16606 
        2.11691         11.0247         2.15079 
        2.12305          10.999         2.13567 
        2.12918         10.9241         2.12073 
        2.13531         10.9025         2.10593 
        2.14145         10.8444         2.09124 
         2.1476         10.8409         2.07667 
        2.15372           10.78         2.06231 
        2.15985         10.7158         2.04808 
        2.16599         10.7055         2.03394 
        2.17213         10.6538         2.01995 
        2.17827         10.6302          2.0061 
         2.1844         10.5806         1.99238 
        2.19054         10.5282         1.97879 
        2.19666         10.5246         1.96535 
         2.2028         10.4756         1.95202 
        2.20893         10.4269         1.93881 
        2.21508         10.3624         1.92571 
        2.22122         10.3343         1.91272 
        2.22736         10.3075         1.89989 
        2.23349         10.2549         1.88717 
        2.23962         10.2134         1.87456 
        2.24577         10.1808         1.86206 
         2.2519         10.1686         1.84969 
        2.25802         10.1193         1.83745 
        2.26417         10.0947         1.82529 
        2.27031         10.0235         1.81323 
        2.27644         10.0074         1.80131 
        2.28257         9.96495          1.7895 
        2.28872         9.93999         1.77777 
        2.29486         9.90494         1.76616 
        2.30099         9.88369         1.75467 
        2.30712         9.83514         1.74327 
        2.31326         9.80163         1.73196 
         2.3194         9.76778         1.72076 
        2.32553         9.72307         1.70968 
        2.33166         9.66855          1.6987 
         2.3378         9.65246          1.6878 
        2.34394         9.62378         1.67699 
        2.35007         9.57121         1.66629 
        2.35619         9.52576          1.6557 
        2.36233         9.51047         1.64518 
        2.36848         9.50006         1.63472 
        2.37462         9.46751         1.62438 
        2.38075         9.39881         1.61414 
        2.38689         9.37875         1.60398 
        2.39303          9.3447         1.59391 
        2.39916         9.32945         1.58394 
        2.40529         9.28224         1.57405 
        2.41143         9.26639         1.56424 
        2.41757         9.23167         1.55451 
         2.4237         9.19934         1.54488 
        2.42983          9.1517         1.53534 
        2.43598         9.14674         1.52585 
        2.44211         9.10111         1.51645 
        2.44823         9.05992         1.50716 
        2.45437         9.05526         1.49792 
        2.46052         8.99953         1.48875 
        2.46665         8.96094         1.47967 
        2.47279         8.92523         1.47067 
        2.47892         8.91051         1.46174 
        2.48507         8.88476         1.45287 
         2.4912         8.85901          1.4441 
