# k  (h/Mpc)    P(k)  (Mpc/h)^3    P_linear(k)  (Mpc/h)^3
     0.00783031         5199.17         5268.26 
       0.013688            6940         6920.54 
       0.019231         7398.06          7401.2 
      0.0249154         7132.43         7234.61 
      0.0312784         6597.06         6648.94 
      0.0375637         5942.33         5953.56 
      0.0433917         5288.27         5361.66 
      0.0492413         4845.04         4879.13 
      0.0555754         4386.44         4483.21 
      0.0619321         4175.24         4179.32 
       0.067871         3854.29         3933.65 
      0.0738098         3607.63          3688.5 
      0.0800417         3306.46         3412.16 
      0.0862327         3046.46         3119.95 
      0.0921407         2797.13         2840.85 
      0.0982031         2523.94         2575.24 
       0.104506          2341.3         2339.34 
       0.110769          2155.2         2153.36 
       0.116806         2004.28         2016.69 
       0.122832         1912.29          1911.4 
       0.129052         1794.27         1820.82 
       0.135211         1711.36         1735.38 
       0.141259         1641.29         1646.54 
       0.147318         1555.48         1549.72 
       0.153489         1440.17         1445.79 
       0.159709         1355.98         1342.07 
       0.165845          1289.8         1247.68 
       0.171974         1202.47         1166.25 
       0.178125         1139.89         1099.23 
       0.184229         1093.49         1045.96 
        0.19034         1025.93         1002.34 
       0.196428         1008.39         964.095 
       0.202534         979.507         926.897 
       0.208729         934.852         887.565 
       0.214876         887.267         846.073 
       0.220989         862.219         803.219 
       0.227147         812.183         760.385 
        0.23329         778.269         720.143 
       0.239377         758.255         684.335 
       0.245482         709.332         653.178 
       0.251667         700.544          626.23 
       0.257832         676.745         602.989 
       0.263955         654.882         582.111 
       0.270079         634.281         562.129 
        0.27624         626.158         541.997 
       0.282372         600.536         521.527 
        0.28843         583.729         501.029 
       0.294538           558.2         480.552 
       0.300721          553.46         460.673 
        0.30691          528.14          442.15 
       0.313033         516.559         425.496 
       0.319153         498.748         410.498 
       0.325316         485.573         396.829 
        0.33145         471.742         384.257 
       0.337538         466.204         372.403 
       0.343633         451.631         360.821 
       0.349808         438.317          349.22 
       0.355968         432.734         337.727 
       0.362074         422.648         326.536 
       0.368217         411.756         315.632 
       0.374374         397.898          305.22 
       0.380519         391.829         295.465 
       0.386598         382.882         286.451 
       0.392688         379.227         278.028 
        0.39888         369.074         269.971 
       0.405048         361.984          262.33 
       0.411186         354.444         255.003 
       0.417313         348.128         247.874 
       0.423458         341.863         240.883 
       0.429607         334.078         234.058 
       0.435692          325.47         227.497 
       0.441815         323.484         221.134 
       0.447964         317.883         215.023 
       0.454126         305.637         209.188 
       0.460267         302.528         203.655 
       0.466387         298.918         198.403 
        0.47254         293.058         193.342 
       0.478662         290.945         188.487 
       0.484765          283.49         183.802 
       0.490885         279.591         179.239 
       0.497035         275.724         174.778 
       0.503198         269.068         170.436 
       0.509342         266.277         166.247 
       0.515458         262.912         162.221 
       0.521598         259.572         158.325 
       0.527764         255.304         154.559 
       0.533884           251.7         150.963 
           0.54          248.41           147.5 
       0.546137         247.074         144.141 
       0.552299         242.748         140.872 
       0.558452         238.978         137.706 
       0.564573         234.918         134.647 
       0.570708         231.634         131.669 
       0.576825         228.764         128.785 
       0.582926         225.903         125.994 
       0.589034         222.418         123.285 
       0.595184         220.578         120.644 
       0.601379         218.668         118.068 
       0.607522          213.87         115.594 
       0.613639         213.418         113.203 
       0.619772         208.585         110.876 
       0.625918         206.931          108.61 
       0.632068         204.639         106.406 
       0.638161         203.297         104.283 
         0.6443         200.197         102.202 
       0.650464         198.218         100.169 
       0.656582         196.547         98.2058 
       0.662703         193.479         96.2957 
       0.668861          191.38         94.4273 
       0.675024         189.287         92.6093 
       0.681124         188.131         90.8594 
       0.687237         184.911         89.1527 
       0.693381         182.748         87.4826 
       0.699536         181.315         85.8527 
       0.705665         181.769         84.2714 
       0.711789          177.43         82.7313 
       0.717957          176.79         81.2194 
        0.72409         174.477         79.7541 
       0.730186         171.703         78.3345 
       0.736317         171.251         76.9424 
       0.742472         169.904         75.5799 
       0.748622         168.753         74.2523 
        0.75476         167.132           72.96 
       0.760888         164.946          71.701 
       0.767043           163.6         70.4671 
       0.773185         162.036         69.2652 
       0.779291         160.207         68.0985 
       0.785407         159.309         66.9574 
       0.791564         157.598         65.8356 
       0.797719         155.757         64.7404 
       0.803834         155.146         63.6775 
       0.809972         152.931          62.635 
       0.816124         152.701          61.614 
       0.822261         151.024         60.6188 
       0.828378         149.651          59.649 
       0.834502         148.939         58.6999 
       0.840667         147.194         57.7656 
       0.846816         146.119         56.8546 
       0.852925         144.557         55.9692 
       0.859047         143.155          55.101 
       0.865192         142.755         54.2486 
       0.871341         141.249         53.4139 
       0.877463          139.94         52.6008 
       0.883569          138.88         51.8069 
       0.889708         138.144         51.0254 
       0.895864         136.882         50.2583 
       0.902008          135.98         49.5088 
       0.908149         135.166         48.7752 
       0.914301         133.619         48.0554 
       0.920448          132.93          47.351 
       0.926574         132.132         46.6634 
       0.932687         131.237         45.9911 
       0.938823         129.597         45.3297 
       0.944975         129.014           44.68 
       0.951105         127.987         44.0456 
       0.957225         126.424         43.4247 
       0.963368         125.981         42.8138 
       0.969511         125.328         42.2148 
       0.975621         124.783         41.6306 
       0.981748         123.708         41.0562 
       0.987916         122.622          40.489 
        0.99406         122.133         39.9349 
        1.00019          120.74         39.3924 
        1.00632         120.307         38.8606 
        1.01246         119.182         38.3379 
        1.01859         117.845         37.8259 
        1.02471         118.378         37.3239 
        1.03085         117.103         36.8294 
        1.03698         115.949          36.345 
        1.04314         115.002         35.8674 
        1.04929         114.539         35.3996 
        1.05541         113.755         34.9422 
        1.06154         113.116         34.4918 
        1.06769         112.462         34.0487 
        1.07382         112.005          33.615 
        1.07993         111.351         33.1899 
        1.08607         110.355         32.7705 
        1.09222         109.769          32.358 
        1.09836          108.97         31.9531 
        1.10449         108.328         31.5557 
        1.11063         107.605         31.1647 
        1.11677         106.987         30.7806 
         1.1229         106.267         30.4036 
        1.12903         105.163         30.0327 
        1.13518         105.344         29.6677 
        1.14131         104.565         29.3091 
        1.14745         103.393         28.9566 
        1.15359         103.049           28.61 
        1.15973         102.553         28.2689 
        1.16584         101.804          27.935 
        1.17197         101.173          27.606 
        1.17811         100.639         27.2814 
        1.18424         99.7005          26.963 
        1.19038         99.3707         26.6489 
        1.19652         98.9026         26.3398 
        1.20267         98.1126         26.0358 
        1.20881         97.5637         25.7366 
        1.21495         96.8743         25.4427 
        1.22108         96.3076         25.1535 
         1.2272         95.7713         24.8695 
        1.23334         95.2789         24.5892 
        1.23949         94.7008         24.3127 
        1.24562         94.4551         24.0413 
        1.25174         93.7631         23.7744 
        1.25789          93.239         23.5108 
        1.26402         92.7018         23.2517 
        1.27014          91.868         22.9972 
        1.27628         91.6852         22.7458 
        1.28244         90.8295         22.4977 
        1.28858          90.438         22.2537 
        1.29471         90.0908         22.0139 
        1.30084         89.4843         21.7779 
        1.30697         88.7851          21.545 
        1.31312         88.4137         21.3152 
        1.31925         88.2142         21.0896 
        1.32537         87.6256         20.8674 
        1.33151         86.9564         20.6477 
        1.33765         86.5631         20.4313 
        1.34378         86.0305         20.2185 
        1.34992         85.4726         20.0085 
        1.35606         85.0744         19.8012 
         1.3622         84.3656         19.5971 
        1.36833         84.2782         19.3965 
        1.37445         83.6857         19.1987 
        1.38059         83.1165         19.0032 
        1.38675         82.7729         18.8099 
        1.39288         82.1811         18.6201 
        1.39901         82.0274         18.4331 
        1.40515          81.609         18.2482 
         1.4113         81.0011         18.0659 
        1.41742         80.5804         17.8869 
        1.42355          80.194         17.7099 
         1.4297         79.7286         17.5349 
        1.43585         79.2896         17.3623 
        1.44198         79.0191         17.1927 
        1.44809         78.3876         17.0257 
        1.45423         78.1873         16.8603 
        1.46036         77.6859         16.6974 
        1.46649         77.2782         16.5367 
        1.47263         76.9327          16.378 
        1.47877         76.6347         16.2214 
        1.48491         76.1365         16.0666 
        1.49104         75.6902         15.9143 
        1.49718         75.2566         15.7638 
        1.50333         74.9254          15.615 
        1.50947         74.3943         15.4684 
         1.5156          74.169          15.324 
        1.52172         73.8319         15.1815 
        1.52787          73.514         15.0404 
          1.534         73.2045         14.9014 
        1.54013         72.6793         14.7643 
        1.54627         72.4562         14.6287 
        1.55241         71.9205         14.4947 
        1.55855         71.4496         14.3627 
        1.56467         70.9972         14.2326 
         1.5708         70.8882         14.1039 
        1.57695         70.5108         13.9765 
        1.58308         70.2601          13.851 
        1.58922         69.9126          13.727 
        1.59535          69.581         13.6045 
         1.6015          69.074         13.4834 
        1.60764         68.9801         13.3639 
        1.61376         68.5211         13.2461 
        1.61989         67.9714         13.1297 
        1.62604         67.7863         13.0144 
        1.63218         67.5432         12.9006 
        1.63831         67.1378         12.7884 
        1.64444         66.9487         12.6775 
        1.65059          66.278         12.5677 
        1.65673         66.1269         12.4593 
        1.66285         65.8706         12.3525 
        1.66898         65.4305         12.2469 
        1.67512         65.0626         12.1424 
        1.68127         64.7237          12.039 
         1.6874         64.5498          11.937 
        1.69353         64.1466         11.8363 
        1.69967         63.9037         11.7365 
        1.70581         63.7112         11.6379 
        1.71193         63.2699         11.5409 
        1.71806         62.8118         11.4447 
        1.72421         62.6638         11.3495 
        1.73035         62.2662         11.2555 
        1.73649         61.9456         11.1625 
        1.74262         61.7198         11.0707 
        1.74876         61.6041         10.9799 
        1.75489         61.0568         10.8902 
        1.76101          60.914         10.8017 
        1.76715         60.5033         10.7139 
        1.77329         60.2388         10.6271 
        1.77943         60.0784         10.5412 
        1.78557         59.8172         10.4564 
        1.79171         59.3739         10.3725 
        1.79785         59.1299         10.2895 
        1.80399         58.7849         10.2074 
        1.81012         58.6412         10.1264 
        1.81625         58.1485         10.0463 
        1.82239         57.9673         9.96692 
        1.82853         57.5677         9.88845 
        1.83466         57.4085         9.81091 
        1.84078         56.9455         9.73429 
        1.84692         56.8057         9.65837 
        1.85306         56.5221         9.58317 
         1.8592         56.2697          9.5089 
        1.86533         55.9204         9.43546 
        1.87147         55.7358         9.36272 
        1.87761         55.5571         9.29072 
        1.88375         55.3206         9.21957 
        1.88988         55.1766         9.14925 
        1.89601         54.7155         9.07962 
        1.90215         54.5091         9.01067 
        1.90829         54.3075         8.94248 
        1.91442         53.9897         8.87499 
        1.92056         53.7954         8.80826 
         1.9267         53.3855         8.74215 
        1.93284         53.1088         8.67669 
        1.93897         52.9736         8.61203 
        1.94509         52.7032         8.54817 
        1.95123         52.4927         8.48479 
        1.95737         52.2375         8.42202 
        1.96349         51.9316         8.36005 
        1.96964         51.6459         8.29853 
        1.97578         51.4813         8.23761 
        1.98192         51.2486         8.17742 
        1.98805         51.0884         8.11783 
        1.99419         50.6935         8.05884 
        2.00033         50.4337         8.00041 
        2.00647         50.3008         7.94258 
         2.0126         50.0381         7.88542 
        2.01874          49.827         7.82874 
        2.02488         49.6275         7.77257 
        2.03101         49.3368         7.71707 
        2.03714         49.0486         7.66216 
        2.04328         48.8253         7.60772 
        2.04941         48.5882         7.55386 
        2.05554         48.3364         7.50057 
        2.06167         48.1988         7.44772 
        2.06781         47.9324         7.39537 
        2.07396          47.669         7.34346 
        2.08009         47.5251         7.29214 
        2.08622         47.2075         7.24137 
        2.09237         47.0549         7.19099 
        2.09851         46.7325         7.14108 
        2.10464         46.5855         7.09173 
        2.11077         46.3951         7.04291 
        2.11691          46.193         6.99444 
        2.12305         45.9012         6.94643 
        2.12918         45.7556         6.89899 
        2.13531         45.5761         6.85199 
        2.14145         45.3447         6.80533 
         2.1476         45.1222         6.75904 
        2.15372         44.8907         6.71342 
        2.15985         44.7786         6.66819 
        2.16599         44.5586         6.62324 
        2.17213         44.5087         6.57875 
        2.17827          44.018         6.53469 
         2.1844         43.8634         6.49107 
        2.19054         43.6879         6.44784 
        2.19666         43.4937         6.40507 
         2.2028         43.3579         6.36265 
        2.20893         43.1407          6.3206 
        2.21508         42.9478         6.27888 
        2.22122         42.7039         6.23752 
        2.22736         42.4719         6.19663 
        2.23349         42.3385         6.15612 
        2.23962         42.1189         6.11594 
        2.24577         41.8763          6.0761 
         2.2519         41.6811         6.03667 
        2.25802         41.6459         5.99765 
        2.26417         41.3488         5.95887 
        2.27031         41.1702          5.9204 
        2.27644         40.9461         5.88238 
        2.28257         40.8238          5.8447 
        2.28872         40.5827         5.80728 
        2.29486         40.4101          5.7702 
        2.30099         40.2866         5.73352 
        2.30712         40.0549         5.69715 
        2.31326         39.9101         5.66103 
         2.3194         39.7327         5.62525 
        2.32553          39.538         5.58984 
        2.33166         39.3396         5.55475 
         2.3378         39.2108         5.51992 
        2.34394         38.9632         5.48537 
        2.35007         38.8129         5.45117 
        2.35619         38.7297         5.41731 
        2.36233         38.4729         5.38366 
        2.36848         38.2776         5.35022 
        2.37462         38.1605         5.31714 
        2.38075         37.8894         5.28438 
        2.38689         37.7625         5.25186 
        2.39303         37.6402         5.21963 
        2.39916         37.4325          5.1877 
        2.40529         37.2496         5.15604 
        2.41143         37.1157         5.12463 
        2.41757         36.9133         5.09346 
         2.4237         36.8025         5.06261 
        2.42983         36.6283         5.03203 
        2.43598         36.4455         5.00161 
        2.44211          36.363          4.9715 
        2.44823         36.1429          4.9417 
        2.45437         35.9882         4.91207 
        2.46052         35.8103         4.88266 
        2.46665         35.6579         4.85354 
        2.47279         35.5085         4.82467 
        2.47892          35.299         4.79602 
        2.48507         35.1456         4.76758 
         2.4912         34.9885         4.73942 
