# k  (h/Mpc)    P(k)  (Mpc/h)^3    P_linear(k)  (Mpc/h)^3
     0.00783031         4155.63         4208.21 
       0.013688         5436.33         5426.94 
       0.019231         5691.51         5691.69 
      0.0249154          5373.4         5437.51 
      0.0312784         4837.46         4863.27 
      0.0375637         4251.08         4248.79 
      0.0433917         3727.48         3761.04 
      0.0492413         3378.59         3388.57 
      0.0555754         3055.55         3103.05 
      0.0619321         2903.12         2894.51 
       0.067871         2687.36         2724.51 
      0.0738098         2508.17         2545.95 
      0.0800417         2284.49         2335.22 
      0.0862327         2078.48          2108.7 
      0.0921407         1882.13         1894.74 
      0.0982031          1679.7         1697.45 
       0.104506         1543.69         1530.75 
       0.110769         1419.41         1407.68 
       0.116806         1324.09         1323.41 
       0.122832         1269.24         1261.42 
       0.129052         1197.74         1206.81 
       0.135211         1142.05         1150.38 
       0.141259         1089.59         1086.47 
       0.147318         1024.55         1013.91 
       0.153489         941.208         936.001 
       0.159709         876.458         860.511 
       0.165845         826.507         795.182 
       0.171974         768.297         742.363 
       0.178125         729.899         701.931 
       0.184229         701.865         671.701 
        0.19034         661.866         647.246 
       0.196428         649.894         624.444 
       0.202534         631.123         599.913 
       0.208729         599.592         571.825 
       0.214876         565.668         541.187 
       0.220989         545.211          509.76 
       0.227147          510.66         479.427 
        0.23329         487.039         452.418 
       0.239377         471.894          429.87 
       0.245482         442.647         411.435 
       0.251667         436.446         396.153 
       0.257832         422.578          382.96 
       0.263955         408.685         370.471 
       0.270079         395.202         357.565 
        0.27624         388.192         343.705 
       0.282372         372.176         329.152 
        0.28843         358.446         314.598 
       0.294538         342.875         300.434 
       0.300721         337.517         287.269 
        0.30691         321.822         275.605 
       0.313033         313.784         265.599 
       0.319153         301.271         256.843 
       0.325316         294.758         248.864 
        0.33145         285.503         241.294 
       0.337538         281.325         233.817 
       0.343633         272.202         226.172 
       0.349808         264.011         218.305 
       0.355968          258.87         210.463 
       0.362074         251.579         202.933 
       0.368217         244.878         195.796 
       0.374374         237.399         189.205 
       0.380519         232.581         183.223 
       0.386598         226.776         177.804 
       0.392688         223.565         172.761 
        0.39888         217.822         167.874 
       0.405048         213.241         163.117 
       0.411186         208.612         158.435 
       0.417313         203.836         153.786 
       0.423458         199.701         149.188 
       0.429607         194.845         144.721 
       0.435692         188.883         140.487 
       0.441815         187.576         136.453 
       0.447964         184.497         132.656 
       0.454126         176.688         129.081 
       0.460267         174.704         125.706 
       0.466387         172.006         122.491 
        0.47254         168.925         119.362 
       0.478662          166.96         116.316 
       0.484765         162.576         113.339 
       0.490885         159.882         110.423 
       0.497035         157.872          107.57 
       0.503198          153.68         104.807 
       0.509342         150.995         102.163 
       0.515458         148.926         99.6515 
       0.521598         147.107         97.2418 
       0.527764         144.789         94.9214 
       0.533884         142.355         92.7049 
           0.54          140.08          90.564 
       0.546137         138.895         88.4774 
       0.552299         136.786         86.4339 
       0.558452         133.714         84.4437 
       0.564573         131.343         82.5178 
       0.570708         129.892         80.6465 
       0.576825         127.902         78.8428 
       0.582926         125.743         77.1047 
       0.589034         123.398         75.4233 
       0.595184         122.175         73.7881 
       0.601379         120.923         72.1967 
       0.607522         117.974         70.6682 
       0.613639         117.872         69.1902 
       0.619772         115.104         67.7476 
       0.625918         114.209         66.3386 
       0.632068         112.829         64.9658 
       0.638161         111.491          63.643 
         0.6443         109.984         62.3485 
       0.650464         108.589         61.0879 
       0.656582         107.415         59.8737 
       0.662703         105.389          58.694 
       0.668861         104.407         57.5406 
       0.675024         103.174          56.418 
       0.681124         101.906          55.337 
       0.687237         100.203         54.2822 
       0.693381         99.2486         53.2501 
       0.699536          97.937         52.2431 
       0.705665         98.4387         51.2665 
       0.711789         95.7749         50.3157 
       0.717957           95.26         49.3826 
        0.72409         93.9192         48.4785 
       0.730186          92.393         47.6029 
       0.736317         92.2434         46.7445 
       0.742472         91.0244         45.9046 
       0.748622         90.3461         45.0866 
        0.75476         89.3197         44.2909 
       0.760888         88.1242         43.5159 
       0.767043          87.276         42.7567 
       0.773185         86.2831         42.0174 
       0.779291         85.7377            41.3 
       0.785407         85.0004         40.5984 
       0.791564         83.8237         39.9088 
       0.797719         82.7306         39.2356 
       0.803834         82.4706         38.5824 
       0.809972         81.0892         37.9419 
       0.816124         80.3909         37.3147 
       0.822261         79.8985         36.7035 
       0.828378          79.187         36.1081 
       0.834502         78.3558         35.5255 
       0.840667         77.7563         34.9522 
       0.846816         76.8322         34.3933 
       0.852925         76.1191         33.8503 
       0.859047         75.1672          33.318 
       0.865192         74.9416         32.7956 
       0.871341         74.4509         32.2842 
       0.877463          73.126         31.7861 
       0.883569         72.7312         31.2999 
       0.889708         72.3862         30.8215 
       0.895864         71.6944          30.352 
       0.902008         71.1148         29.8933 
       0.908149         70.6013         29.4446 
       0.914301         70.0116         29.0044 
       0.920448         69.2776         28.5737 
       0.926574         68.8337         28.1534 
       0.932687         68.3139         27.7425 
       0.938823         67.3205         27.3384 
       0.944975          67.219         26.9415 
       0.951105         66.5458          26.554 
       0.957225          65.752         26.1749 
       0.963368         65.5946          25.802 
       0.969511         65.1525         25.4364 
       0.975621         64.6471         25.0799 
       0.981748         63.9282         24.7294 
       0.987916         63.6386         24.3835 
        0.99406         63.2733         24.0456 
        1.00019         62.4108         23.7148 
        1.00632         62.2176         23.3906 
        1.01246         61.6418          23.072 
        1.01859          60.977         22.7599 
        1.02471         61.1429         22.4541 
        1.03085         60.4308         22.1529 
        1.03698         59.8325         21.8579 
        1.04314         59.2642          21.567 
        1.04929         59.0961         21.2822 
        1.05541         58.4541         21.0037 
        1.06154         58.3578         20.7296 
        1.06769         57.8217           20.46 
        1.07382         57.4831         20.1961 
        1.07993         57.3003         19.9375 
        1.08607         56.6619         19.6824 
        1.09222          56.473         19.4315 
        1.09836         55.9825         19.1854 
        1.10449         55.6381         18.9438 
        1.11063         54.9728         18.7062 
        1.11677         54.7586         18.4728 
         1.1229          54.592         18.2438 
        1.12903           53.84         18.0185 
        1.13518         53.8084         17.7969 
        1.14131         53.6462         17.5791 
        1.14745         52.9817         17.3652 
        1.15359           52.85         17.1548 
        1.15973         52.2656         16.9478 
        1.16584         51.9308         16.7452 
        1.17197          51.837         16.5457 
        1.17811         51.3985         16.3488 
        1.18424         50.9172         16.1558 
        1.19038         50.9049         15.9653 
        1.19652         50.5722          15.778 
        1.20267         50.2111         15.5937 
        1.20881          49.854         15.4124 
        1.21495         49.5135         15.2343 
        1.22108         49.2155         15.0591 
         1.2272         48.7251         14.8871 
        1.23334         48.5999         14.7174 
        1.23949         48.4073           14.55 
        1.24562         48.1457         14.3856 
        1.25174         47.8811         14.2241 
        1.25789         47.5888         14.0645 
        1.26402         47.2752         13.9077 
        1.27014         46.8805         13.7538 
        1.27628         46.7106         13.6016 
        1.28244         46.3811         13.4516 
        1.28858         46.2251          13.304 
        1.29471         45.9965         13.1589 
        1.30084          45.724         13.0162 
        1.30697         45.3527         12.8754 
        1.31312         45.0058         12.7365 
        1.31925         44.9237         12.6001 
        1.32537         44.6949         12.4658 
        1.33151         44.3879          12.333 
        1.33765         44.3289         12.2023 
        1.34378         44.0883         12.0737 
        1.34992          43.457         11.9469 
        1.35606         43.3398         11.8216 
         1.3622          43.105         11.6984 
        1.36833         42.9234         11.5773 
        1.37445         42.8847         11.4579 
        1.38059         42.6464         11.3399 
        1.38675         42.2715         11.2233 
        1.39288         42.1296         11.1087 
        1.39901         41.7683         10.9959 
        1.40515         41.6054         10.8844 
         1.4113         41.5077         10.7744 
        1.41742         41.0392         10.6664 
        1.42355         41.0215         10.5597 
         1.4297         40.7119         10.4542 
        1.43585         40.6778         10.3502 
        1.44198         40.3168         10.2479 
        1.44809         40.1418         10.1473 
        1.45423         40.0165         10.0476 
        1.46036          39.842         9.94952 
        1.46649         39.5614         9.85269 
        1.47263         39.3779         9.75707 
        1.47877         39.2243         9.66277 
        1.48491         38.9863         9.56958 
        1.49104          38.868         9.47782 
        1.49718         38.5104         9.38721 
        1.50333          38.432         9.29764 
        1.50947         38.2237         9.20943 
         1.5156         38.0031          9.1225 
        1.52172         37.7458          9.0367 
        1.52787          37.776         8.95184 
          1.534         37.4488         8.86817 
        1.54013         37.2147         8.78567 
        1.54627         37.1778         8.70408 
        1.55241         36.9403         8.62351 
        1.55855         36.7383         8.54408 
        1.56467         36.5499         8.46589 
         1.5708         36.4409         8.38845 
        1.57695         36.1043         8.31187 
        1.58308         36.1871         8.23643 
        1.58922         35.9307         8.16189 
        1.59535         35.6732         8.08829 
         1.6015         35.5384         8.01551 
        1.60764         35.4575         7.94367 
        1.61376         35.2404         7.87291 
        1.61989         34.9406         7.80295 
        1.62604           34.91          7.7337 
        1.63218         34.6457         7.66534 
        1.63831         34.5754         7.59796 
        1.64444         34.4176         7.53138 
        1.65059         34.1527         7.46544 
        1.65673         34.0696         7.40036 
        1.66285         33.9219         7.33625 
        1.66898         33.7277         7.27288 
        1.67512         33.6313         7.21014 
        1.68127         33.3687         7.14809 
         1.6874         33.2927         7.08691 
        1.69353         33.1761         7.02649 
        1.69967         32.9712         6.96664 
        1.70581         32.8293         6.90751 
        1.71193         32.6316         6.84929 
        1.71806         32.5372         6.79163 
        1.72421         32.3532         6.73452 
        1.73035         32.2625         6.67814 
        1.73649         32.0778         6.62241 
        1.74262         31.9265         6.56737 
        1.74876           31.85         6.51292 
        1.75489          31.632         6.45921 
        1.76101         31.5275         6.40611 
        1.76715         31.3883         6.35355 
        1.77329         31.2942         6.30151 
        1.77943         31.1356         6.25004 
        1.78557         30.9756         6.19922 
        1.79171         30.8484         6.14896 
        1.79785         30.7155         6.09925 
        1.80399         30.5784         6.05011 
        1.81012         30.5012         6.00157 
        1.81625         30.3396         5.95359 
        1.82239         30.2594         5.90607 
        1.82853         29.9889         5.85909 
        1.83466          29.879         5.81267 
        1.84078         29.6796         5.76681 
        1.84692         29.6947         5.72137 
        1.85306         29.4799         5.67636 
         1.8592          29.382         5.63192 
        1.86533         29.2254         5.58797 
        1.87147         29.1271         5.54445 
        1.87761         29.1067         5.50137 
        1.88375         28.8874         5.45881 
        1.88988         28.8504         5.41674 
        1.89601         28.6349          5.3751 
        1.90215         28.5423         5.33386 
        1.90829         28.4592         5.29308 
        1.91442         28.2782         5.25272 
        1.92056         28.1973         5.21282 
         1.9267         28.0744          5.1733 
        1.93284         27.9348         5.13417 
        1.93897          27.852         5.09552 
        1.94509         27.7285         5.05735 
        1.95123         27.5709         5.01947 
        1.95737          27.466         4.98196 
        1.96349         27.3567         4.94494 
        1.96964          27.201         4.90818 
        1.97578         27.1698         4.87178 
        1.98192         26.9647         4.83583 
        1.98805         26.9229         4.80023 
        1.99419         26.7792           4.765 
        2.00033         26.6356          4.7301 
        2.00647         26.5493         4.69557 
         2.0126         26.3693         4.66144 
        2.01874         26.3372         4.62759 
        2.02488         26.2942         4.59406 
        2.03101         26.1854         4.56092 
        2.03714          26.003         4.52814 
        2.04328         25.8872         4.49564 
        2.04941         25.7963          4.4635 
        2.05554          25.739         4.43169 
        2.06167         25.6185         4.40015 
        2.06781          25.522         4.36891 
        2.07396         25.3961         4.33794 
        2.08009         25.3465         4.30732 
        2.08622         25.2205         4.27703 
        2.09237         25.1244         4.24698 
        2.09851         24.9773         4.21721 
        2.10464         24.9175         4.18777 
        2.11077         24.7603         4.15866 
        2.11691         24.7579         4.12976 
        2.12305         24.5794         4.10113 
        2.12918         24.5148         4.07284 
        2.13531         24.4253         4.04482 
        2.14145         24.3104           4.017 
         2.1476         24.1813         3.98941 
        2.15372         24.1187         3.96222 
        2.15985         23.9716         3.93526 
        2.16599         23.9356         3.90847 
        2.17213         23.8464         3.88196 
        2.17827         23.7129          3.8557 
         2.1844         23.6105         3.82971 
        2.19054         23.5481         3.80396 
        2.19666         23.4596         3.77847 
         2.2028         23.3905          3.7532 
        2.20893         23.2295         3.72815 
        2.21508         23.1855          3.7033 
        2.22122         23.0345         3.67867 
        2.22736         22.9878         3.65432 
        2.23349         22.8981         3.63019 
        2.23962         22.8025         3.60627 
        2.24577         22.6712         3.58255 
         2.2519         22.6137         3.55907 
        2.25802         22.5602         3.53584 
        2.26417         22.4544         3.51276 
        2.27031         22.3761         3.48986 
        2.27644          22.306         3.46723 
        2.28257         22.1972         3.44481 
        2.28872         22.0793         3.42254 
        2.29486         22.0353         3.40047 
        2.30099         21.9294         3.37865 
        2.30712         21.8965         3.35701 
        2.31326         21.7782         3.33552 
         2.3194         21.6579         3.31423 
        2.32553         21.5857         3.29317 
        2.33166         21.4838         3.27229 
         2.3378         21.4039         3.25157 
        2.34394         21.3204         3.23103 
        2.35007         21.2306         3.21069 
        2.35619         21.1405         3.19055 
        2.36233         21.0709         3.17054 
        2.36848         21.0062         3.15066 
        2.37462         20.9609         3.13099 
        2.38075         20.8624         3.11151 
        2.38689         20.8029         3.09218 
        2.39303         20.6816         3.07302 
        2.39916         20.5966         3.05404 
        2.40529         20.5222         3.03522 
        2.41143         20.4693         3.01655 
        2.41757         20.3955         2.99803 
         2.4237         20.2809          2.9797 
        2.42983         20.2247         2.96153 
        2.43598         20.1495         2.94345 
        2.44211         20.0334         2.92556 
        2.44823         19.9665         2.90786 
        2.45437         19.9182         2.89026 
        2.46052         19.8585         2.87279 
        2.46665         19.7875          2.8555 
        2.47279         19.6984         2.83835 
        2.47892         19.6209         2.82134 
        2.48507         19.5599         2.80444 
         2.4912         19.4843         2.78772 
