# k  (h/Mpc)    P(k)  (Mpc/h)^3    P_linear(k)  (Mpc/h)^3
     0.00783031         12463.5         12581.6 
       0.013688         14599.3         14981.5 
       0.019231         14607.6         14827.4 
      0.0249154         13506.1         13483.5 
      0.0312784         11424.9         11523.1 
      0.0375637         9579.35         9722.39 
      0.0433917          8377.7          8408.6 
      0.0492413         7377.55            7456 
      0.0555754         6727.87         6742.38 
      0.0619321         6023.54         6212.24 
       0.067871         5674.49         5765.16 
      0.0738098         5253.02         5294.59 
      0.0800417         4743.05          4759.1 
      0.0862327         4190.15         4215.45 
      0.0921407         3745.28         3732.64 
      0.0982031         3380.22         3313.56 
       0.104506         3003.71         2978.96 
       0.110769         2786.41         2741.98 
       0.116806         2664.84         2579.74 
       0.122832          2504.9         2452.01 
       0.129052         2374.68         2326.48 
       0.135211         2282.73         2189.12 
       0.141259         2102.76          2036.8 
       0.147318         1928.91         1874.19 
       0.153489         1795.57         1712.21 
       0.159709         1700.75         1566.64 
       0.165845         1548.05         1448.74 
       0.171974         1505.71         1357.75 
       0.178125         1446.59         1288.56 
       0.184229         1342.39         1233.65 
        0.19034         1317.05         1183.74 
       0.196428            1274         1132.33 
       0.202534         1188.26         1075.89 
       0.208729          1161.9         1014.16 
       0.214876          1104.9         951.713 
       0.220989         1037.15         892.538 
       0.227147         1007.61         839.293 
        0.23329         965.749         794.224 
       0.239377          953.68         757.292 
       0.245482         904.562         726.269 
       0.251667         870.873          698.53 
       0.257832         858.256         672.208 
       0.263955         814.136         645.727 
       0.270079         786.522         618.294 
        0.27624         753.484         590.127 
       0.282372         738.779         562.444 
        0.28843         729.654         536.529 
       0.294538         692.198         512.632 
       0.300721          674.12           491.1 
        0.30691         660.593         472.046 
       0.313033         631.675         455.127 
       0.319153         622.637         439.457 
       0.325316         612.706           424.3 
        0.33145         598.185         409.415 
       0.337538         576.453         394.713 
       0.343633         560.908         380.156 
       0.349808         547.228         365.835 
       0.355968         537.136         352.228 
       0.362074         518.306         339.629 
       0.368217         515.787         327.892 
       0.374374         506.608         317.024 
       0.380519          486.33         306.912 
       0.386598          481.56         297.434 
       0.392688         470.022         288.311 
        0.39888         458.003         279.288 
       0.405048         449.042         270.512 
       0.411186         447.816         262.017 
       0.417313         442.427         253.815 
       0.423458          429.51         245.936 
       0.429607         417.448         238.447 
       0.435692         411.794         231.425 
       0.441815         404.367         224.731 
       0.447964         396.276         218.344 
       0.454126          391.79         212.218 
       0.460267         385.326         206.336 
       0.466387         378.162         200.668 
        0.47254         372.949         195.144 
       0.478662         365.092         189.815 
       0.484765         360.647         184.683 
       0.490885         356.816          179.73 
       0.497035         349.696         174.948 
       0.503198         349.193         170.352 
       0.509342         340.962         165.959 
       0.515458         335.149          161.76 
       0.521598         330.244         157.698 
       0.527764         325.429         153.758 
       0.533884          323.35         149.973 
           0.54         318.854         146.311 
       0.546137         312.212         142.753 
       0.552299          311.04         139.293 
       0.558452         305.907         135.953 
       0.564573         303.663         132.742 
       0.570708         298.732         129.635 
       0.576825         293.632         126.644 
       0.582926         291.761         123.759 
       0.589034         287.054         120.963 
       0.595184         285.204         118.235 
       0.601379         280.768         115.573 
       0.607522         274.995         113.013 
       0.613639         274.103          110.54 
       0.619772         272.865         108.134 
       0.625918         268.311         105.794 
       0.632068         264.983         103.523 
       0.638161         263.416         101.341 
         0.6443         260.182         99.2074 
       0.650464         256.574         97.1297 
       0.656582         254.285         95.1276 
       0.662703         252.833         93.1819 
       0.668861         248.058         91.2797 
       0.675024         247.245         89.4288 
       0.681124         244.051         87.6476 
       0.687237          242.35         85.9115 
       0.693381         238.899         84.2146 
       0.699536         237.513          82.561 
       0.705665          235.13         80.9597 
       0.711789          232.78         79.4028 
       0.717957         230.596         77.8768 
        0.72409         227.617         76.3998 
       0.730186         229.089         74.9703 
       0.736317         225.216         73.5699 
       0.742472         222.648         72.2002 
       0.748622         220.088         70.8669 
        0.75476         220.231         69.5704 
       0.760888         217.409         68.3085 
       0.767043          214.58         67.0732 
       0.773185         213.242         65.8713 
       0.779291         210.622          64.706 
       0.785407         209.822         63.5675 
       0.791564         207.944         62.4495 
       0.797719         204.583         61.3591 
       0.803834          205.98         60.3019 
       0.809972         203.422         59.2661 
       0.816124         200.312         58.2524 
       0.822261         199.095         57.2654 
       0.828378         198.667         56.3044 
       0.834502          196.15         55.3647 
       0.840667         196.154         54.4405 
       0.846816         192.555         53.5402 
       0.852925         192.255          52.666 
       0.859047         190.473         51.8096 
       0.865192          190.06         50.9696 
       0.871341         187.693         50.1477 
       0.877463          186.12         49.3478 
       0.883569         185.931         48.5675 
       0.889708         184.167         47.8001 
       0.895864         182.439         47.0474 
       0.902008         180.827         46.3126 
       0.908149         179.328         45.5941 
       0.914301         178.339         44.8896 
       0.920448         178.065         44.2008 
       0.926574         175.882         43.5289 
       0.932687         175.537         42.8725 
       0.938823         174.056         42.2273 
       0.944975         173.227         41.5939 
       0.951105         171.454          40.976 
       0.957225         170.437         40.3716 
       0.963368         169.736         39.7775 
       0.969511         167.579         39.1954 
       0.975621         166.118         38.6282 
       0.981748         165.609         38.0708 
       0.987916         164.853         37.5209 
        0.99406          163.68         36.9841 
        1.00019          162.71         36.4588 
        1.00632         161.669         35.9443 
        1.01246         160.667         35.4391 
        1.01859         159.395         34.9444 
        1.02471         158.251         34.4598 
        1.03085         157.257         33.9828 
        1.03698         156.366         33.5159 
        1.04314         156.023         33.0559 
        1.04929         155.146         32.6056 
        1.05541         154.249         32.1655 
        1.06154         152.697         31.7325 
        1.06769         152.018         31.3069 
        1.07382           151.3         30.8905 
        1.07993         149.979         30.4827 
        1.08607         149.484         30.0806 
        1.09222         148.243         29.6853 
        1.09836          147.59         29.2977 
        1.10449         146.536         28.9174 
        1.11063         145.583         28.5436 
        1.11677         144.988         28.1764 
         1.1229         143.877         27.8164 
        1.12903         143.023         27.4624 
        1.13518         142.143         27.1142 
        1.14131          141.61         26.7723 
        1.14745         140.618         26.4365 
        1.15359         139.444         26.1064 
        1.15973         139.091         25.7819 
        1.16584         138.251         25.4643 
        1.17197         137.629         25.1516 
        1.17811         136.449         24.8433 
        1.18424         135.919          24.541 
        1.19038         135.146         24.2429 
        1.19652         134.368         23.9499 
        1.20267         133.467         23.6617 
        1.20881         132.572         23.3784 
        1.21495         132.332         23.1001 
        1.22108         131.371         22.8265 
         1.2272         130.555         22.5579 
        1.23334         130.071         22.2931 
        1.23949         129.529         22.0319 
        1.24562         128.591         21.7756 
        1.25174         128.168         21.5239 
        1.25789         127.068         21.2753 
        1.26402          126.85         21.0311 
        1.27014         125.975         20.7914 
        1.27628         125.079         20.5547 
        1.28244         124.724         20.3213 
        1.28858          123.81         20.0918 
        1.29471         123.078         19.8663 
        1.30084         122.331         19.6446 
        1.30697          121.71         19.4259 
        1.31312         121.071         19.2102 
        1.31925         120.224         18.9985 
        1.32537         119.823         18.7902 
        1.33151         119.548         18.5843 
        1.33765         118.495         18.3816 
        1.34378         118.322         18.1824 
        1.34992         117.643          17.986 
        1.35606         117.024          17.792 
         1.3622         116.675         17.6013 
        1.36833         115.511         17.4138 
        1.37445         115.432         17.2291 
        1.38059         114.693         17.0466 
        1.38675         113.968         16.8663 
        1.39288         113.263         16.6893 
        1.39901         112.755         16.5149 
        1.40515         112.378         16.3426 
         1.4113         111.678         16.1729 
        1.41742         111.186         16.0062 
        1.42355         110.858         15.8416 
         1.4297         110.017         15.6787 
        1.43585         109.543         15.5183 
        1.44198         108.603         15.3607 
        1.44809         108.215         15.2056 
        1.45423         108.084          15.052 
        1.46036         107.037         14.9009 
        1.46649         106.603         14.7518 
        1.47263         106.055         14.6046 
        1.47877         105.507         14.4595 
        1.48491         105.185         14.3162 
        1.49104          104.16         14.1751 
        1.49718         103.922         14.0358 
        1.50333         103.577         13.8981 
        1.50947         103.059         13.7626 
         1.5156         102.589         13.6291 
        1.52172         101.816         13.4974 
        1.52787         101.543         13.3671 
          1.534         100.989         13.2388 
        1.54013         100.511         13.1122 
        1.54627         99.8061         12.9871 
        1.55241         99.6909         12.8636 
        1.55855         98.8864         12.7419 
        1.56467         98.3534         12.6221 
         1.5708         97.6396         12.5035 
        1.57695         97.5875         12.3863 
        1.58308         96.9448         12.2708 
        1.58922         96.8582         12.1567 
        1.59535         96.5561         12.0442 
         1.6015         95.6635         11.9328 
        1.60764         95.1577          11.823 
        1.61376          94.893         11.7148 
        1.61989         94.3605         11.6079 
        1.62604          93.867         11.5021 
        1.63218         93.4904         11.3977 
        1.63831         93.0243         11.2948 
        1.64444         92.4094         11.1932 
        1.65059         92.0248         11.0925 
        1.65673         91.8674         10.9932 
        1.66285         91.2893         10.8954 
        1.66898         90.6633         10.7988 
        1.67512         90.2072         10.7031 
        1.68127         89.9955         10.6086 
         1.6874         89.2906         10.5153 
        1.69353         88.9385         10.4233 
        1.69967         88.5031         10.3321 
        1.70581         88.2893         10.2421 
        1.71193          87.734         10.1535 
        1.71806         87.4081         10.0657 
        1.72421         86.8803         9.97885 
        1.73035         86.5271         9.89308 
        1.73649         86.0083         9.80835 
        1.74262          85.695         9.72467 
        1.74876         85.1851         9.64192 
        1.75489         84.8722          9.5603 
        1.76101         84.5073         9.47965 
        1.76715         84.0412         9.39983 
        1.77329          83.608         9.32082 
        1.77943         83.3945          9.2427 
        1.78557         83.0089         9.16558 
        1.79171         82.4742         9.08933 
        1.79785          81.938         9.01394 
        1.80399         81.9229         8.93941 
        1.81012         81.2572         8.86583 
        1.81625         80.8846         8.79311 
        1.82239         80.5367          8.7211 
        1.82853         80.1301         8.64994 
        1.83466         79.6425         8.57963 
        1.84078         79.5036         8.51018 
        1.84692          79.295         8.44139 
        1.85306         78.8962         8.37327 
         1.8592         78.4764         8.30601 
        1.86533         78.0064         8.23953 
        1.87147         77.6971         8.17369 
        1.87761         77.0205         8.10855 
        1.88375         76.9841          8.0442 
        1.88988         76.3588         7.98061 
        1.89601         76.3753         7.91768 
        1.90215         75.7538         7.85537 
        1.90829         75.3822         7.79377 
        1.91442         75.0501         7.73282 
        1.92056         74.8927         7.67258 
         1.9267         74.3995         7.61292 
        1.93284         74.2123         7.55386 
        1.93897         73.7483         7.49553 
        1.94509          73.416         7.43795 
        1.95123         73.1158         7.38083 
        1.95737         72.8392         7.32427 
        1.96349          72.541         7.26845 
        1.96964         72.1567         7.21304 
        1.97578          71.769          7.1582 
        1.98192         71.3132         7.10403 
        1.98805         70.8424         7.05042 
        1.99419         70.9324         6.99735 
        2.00033         70.3082         6.94481 
        2.00647         70.0234         6.89282 
         2.0126         69.7711         6.84146 
        2.01874         69.6587         6.79053 
        2.02488          69.311         6.74008 
        2.03101         68.8238         6.69024 
        2.03714         68.5707         6.64095 
        2.04328         68.3235          6.5921 
        2.04941         67.8702         6.54378 
        2.05554         67.6026         6.49599 
        2.06167         67.2157          6.4486 
        2.06781         66.9606         6.40168 
        2.07396         66.6913         6.35516 
        2.08009         66.3576         6.30918 
        2.08622         66.1052         6.26372 
        2.09237         65.8456         6.21861 
        2.09851         65.2837         6.17393 
        2.10464         65.1471         6.12977 
        2.11077         64.9931          6.0861 
        2.11691         64.6375         6.04275 
        2.12305         64.2488         5.99982 
        2.12918         63.9794         5.95742 
        2.13531         63.7194         5.91542 
        2.14145         63.3511         5.87373 
         2.1476         63.2912         5.83239 
        2.15372          62.815         5.79165 
        2.15985         62.5238         5.75127 
        2.16599         62.3056         5.71115 
        2.17213         61.9355         5.67146 
        2.17827         61.6171         5.63215 
         2.1844         61.3299         5.59325 
        2.19054          61.241         5.55471 
        2.19666         61.0181         5.51659 
         2.2028         60.5504         5.47878 
        2.20893         60.2735         5.44132 
        2.21508         59.9286         5.40416 
        2.22122         59.6964         5.36734 
        2.22736         59.4543         5.33094 
        2.23349         59.1852         5.29488 
        2.23962          59.022         5.25914 
        2.24577         58.6754         5.22369 
         2.2519         58.3622         5.18863 
        2.25802         58.1596         5.15394 
        2.26417         57.8449         5.11947 
        2.27031         57.6738         5.08528 
        2.27644         57.4061         5.05151 
        2.28257         57.1053         5.01805 
        2.28872         56.8605         4.98482 
        2.29486         56.6739          4.9519 
        2.30099         56.2346         4.91935 
        2.30712         56.1198         4.88707 
        2.31326         55.9343         4.85503 
         2.3194         55.6477          4.8233 
        2.32553         55.3487          4.7919 
        2.33166          55.114          4.7608 
         2.3378         54.8473         4.72993 
        2.34394         54.6068         4.69932 
        2.35007         54.3821         4.66902 
        2.35619         54.1746         4.63904 
        2.36233         53.9473         4.60924 
        2.36848         53.6545         4.57964 
        2.37462         53.3663         4.55037 
        2.38075         53.1706         4.52138 
        2.38689          52.876         4.49262 
        2.39303         52.7644         4.46411 
        2.39916         52.4319         4.43588 
        2.40529          52.304          4.4079 
        2.41143          52.076         4.38014 
        2.41757         51.8027          4.3526 
         2.4237          51.658         4.32535 
        2.42983         51.3911         4.29834 
        2.43598         51.2094         4.27149 
        2.44211         50.8135         4.24491 
        2.44823         50.7515         4.21862 
        2.45437          50.401         4.19247 
        2.46052         50.1222         4.16653 
        2.46665         49.9487         4.14085 
        2.47279         49.7607          4.1154 
        2.47892         49.5735         4.09014 
        2.48507         49.3865         4.06507 
         2.4912         49.0705         4.04026 
