# k  (h/Mpc)    P(k)  (Mpc/h)^3    P_linear(k)  (Mpc/h)^3
     0.00783031         12735.6           12859 
       0.013688         14913.4         15310.9 
       0.019231         14922.4         15153.1 
      0.0249154         13799.3         13779.6 
      0.0312784           11671         11776.1 
      0.0375637         9784.99         9935.79 
      0.0433917         8558.28         8593.14 
      0.0492413         7536.24         7619.62 
      0.0555754         6872.66         6890.33 
      0.0619321         6151.74         6348.55 
       0.067871         5795.66         5891.65 
      0.0738098         5366.06         5410.76 
      0.0800417         4845.06         4863.51 
      0.0862327          4280.5         4307.93 
      0.0921407         3826.83         3814.53 
      0.0982031         3454.53         3386.25 
       0.104506         3069.78         3044.31 
       0.110769         2848.03         2802.14 
       0.116806         2723.89         2636.33 
       0.122832         2560.58          2505.8 
       0.129052         2426.95         2377.51 
       0.135211         2333.72         2237.14 
       0.141259         2149.58         2081.48 
       0.147318         1972.28          1915.3 
       0.153489         1836.33         1749.77 
       0.159709         1740.17            1601 
       0.165845         1584.12         1480.52 
       0.171974         1540.91         1387.53 
       0.178125         1480.89         1316.82 
       0.184229         1373.72         1260.72 
        0.19034         1348.15          1209.7 
       0.196428         1304.32         1157.17 
       0.202534         1216.79         1099.49 
       0.208729         1189.95         1036.41 
       0.214876         1131.55         972.589 
       0.220989         1062.78         912.115 
       0.227147         1032.51         857.703 
        0.23329         989.661         811.645 
       0.239377         977.759         773.903 
       0.245482         927.505           742.2 
       0.251667         893.068         713.852 
       0.257832         879.989         686.953 
       0.263955         835.029         659.891 
       0.270079         806.939         631.856 
        0.27624         773.101         603.071 
       0.282372         758.311         574.781 
        0.28843         748.767         548.298 
       0.294538         710.469         523.876 
       0.300721         692.231         501.872 
        0.30691         678.187           482.4 
       0.313033         648.625          465.11 
       0.319153         639.481         449.096 
       0.325316         629.468         433.607 
        0.33145         614.597         418.396 
       0.337538         592.327         403.371 
       0.343633         576.517         388.494 
       0.349808         562.594         373.859 
       0.355968         552.254         359.954 
       0.362074         532.839         347.078 
       0.368217         530.399         335.084 
       0.374374         521.122         323.978 
       0.380519         500.333         313.644 
       0.386598         495.543         303.958 
       0.392688         483.682         294.635 
        0.39888         471.363         285.414 
       0.405048         462.138         276.445 
       0.411186         460.963         267.764 
       0.417313         455.595         259.382 
       0.423458         442.263          251.33 
       0.429607         429.816         243.677 
       0.435692         424.118         236.502 
       0.441815         416.448         229.661 
       0.447964         408.299         223.133 
       0.454126         403.711         216.873 
       0.460267         397.042         210.862 
       0.466387         389.705          205.07 
        0.47254         384.313         199.424 
       0.478662         376.382         193.979 
       0.484765         371.812         188.734 
       0.490885         367.927         183.672 
       0.497035         360.503         178.786 
       0.503198         360.093         174.089 
       0.509342         351.709         169.599 
       0.515458         345.621         165.308 
       0.521598         340.795         161.157 
       0.527764          335.68          157.13 
       0.533884         333.474         153.262 
           0.54         328.995         149.521 
       0.546137          322.22         145.884 
       0.552299         321.067         142.348 
       0.558452         315.788         138.935 
       0.564573         313.462         135.653 
       0.570708         308.516         132.478 
       0.576825         303.179         129.421 
       0.582926         301.364         126.473 
       0.589034         296.457         123.616 
       0.595184         294.555         120.828 
       0.601379         289.993         118.108 
       0.607522         284.077         115.491 
       0.613639         283.207         112.964 
       0.619772         281.994         110.506 
       0.625918         277.154         108.115 
       0.632068         273.938         105.794 
       0.638161         272.286         103.563 
         0.6443         268.876         101.383 
       0.650464         265.279         99.2601 
       0.656582         262.887         97.2141 
       0.662703         261.404         95.2258 
       0.668861         256.502         93.2818 
       0.675024         255.631         91.3903 
       0.681124         252.292         89.5701 
       0.687237         250.624         87.7959 
       0.693381         247.051         86.0617 
       0.699536         245.693         84.3719 
       0.705665         243.202         82.7354 
       0.711789         240.848         81.1444 
       0.717957         238.577         79.5849 
        0.72409         235.481         78.0755 
       0.730186         237.036         76.6147 
       0.736317         233.004         75.1835 
       0.742472         230.438         73.7838 
       0.748622         227.873         72.4213 
        0.75476         227.898         71.0964 
       0.760888         225.014         69.8068 
       0.767043         222.167         68.5444 
       0.773185         220.806         67.3161 
       0.779291         218.099         66.1253 
       0.785407         217.272         64.9618 
       0.791564         215.349         63.8192 
       0.797719         211.868         62.7049 
       0.803834         213.355         61.6246 
       0.809972         210.636          60.566 
       0.816124         207.483         59.5301 
       0.822261         206.205         58.5215 
       0.828378         205.747         57.5393 
       0.834502         203.137          56.579 
       0.840667         203.192         55.6346 
       0.846816         199.403         54.7145 
       0.852925         199.209         53.8212 
       0.859047         197.366          52.946 
       0.865192         196.942         52.0875 
       0.871341         194.477         51.2477 
       0.877463         192.877         50.4302 
       0.883569         192.626         49.6327 
       0.889708         190.814         48.8485 
       0.895864          189.01         48.0794 
       0.902008         187.386         47.3285 
       0.908149         185.871         46.5941 
       0.914301         184.803         45.8742 
       0.920448         184.496         45.1703 
       0.926574         182.336         44.4837 
       0.932687         181.959         43.8128 
       0.938823         180.379         43.1535 
       0.944975         179.596         42.5063 
       0.951105         177.728         41.8747 
       0.957225         176.638         41.2571 
       0.963368         176.032           40.65 
       0.969511         173.686         40.0551 
       0.975621          172.21         39.4754 
       0.981748         171.731         38.9058 
       0.987916         170.949         38.3439 
        0.99406         169.694         37.7952 
        1.00019         168.707         37.2585 
        1.00632          167.67         36.7327 
        1.01246         166.601         36.2164 
        1.01859         165.247         35.7108 
        1.02471         164.061         35.2156 
        1.03085         163.065         34.7282 
        1.03698         162.198         34.2511 
        1.04314         161.832         33.7809 
        1.04929         160.901         33.3207 
        1.05541         159.988          32.871 
        1.06154         158.376         32.4285 
        1.06769         157.672         31.9936 
        1.07382          156.92          31.568 
        1.07993         155.533         31.1513 
        1.08607         155.047         30.7403 
        1.09222         153.748         30.3364 
        1.09836         153.117         29.9403 
        1.10449         152.006         29.5517 
        1.11063         151.013         29.1696 
        1.11677         150.392         28.7944 
         1.1229         149.291         28.4265 
        1.12903         148.367         28.0647 
        1.13518         147.469         27.7089 
        1.14131          146.93         27.3595 
        1.14745         145.848         27.0164 
        1.15359         144.682          26.679 
        1.15973         144.313         26.3474 
        1.16584         143.449         26.0228 
        1.17197           142.8         25.7033 
        1.17811         141.585         25.3882 
        1.18424         141.026         25.0793 
        1.19038         140.233         24.7746 
        1.19652         139.382         24.4752 
        1.20267         138.469         24.1807 
        1.20881         137.551         23.8912 
        1.21495         137.343         23.6068 
        1.22108         136.313         23.3272 
         1.2272         135.465         23.0527 
        1.23334         134.931         22.7821 
        1.23949         134.398         22.5152 
        1.24562         133.433         22.2533 
        1.25174             133          21.996 
        1.25789         131.851         21.7419 
        1.26402         131.629         21.4924 
        1.27014         130.753         21.2474 
        1.27628         129.814         21.0056 
        1.28244         129.393          20.767 
        1.28858         128.491         20.5325 
        1.29471         127.722         20.3021 
        1.30084         126.958         20.0755 
        1.30697         126.278          19.852 
        1.31312          125.64         19.6316 
        1.31925         124.756         19.4152 
        1.32537         124.349         19.2024 
        1.33151         124.025          18.992 
        1.33765         122.948         18.7848 
        1.34378         122.794         18.5812 
        1.34992         122.049         18.3805 
        1.35606         121.436         18.1823 
         1.3622          121.03         17.9873 
        1.36833         119.854         17.7957 
        1.37445         119.784          17.607 
        1.38059         118.985         17.4205 
        1.38675         118.263         17.2362 
        1.39288         117.513         17.0554 
        1.39901         116.985         16.8772 
        1.40515         116.616         16.7011 
         1.4113         115.868         16.5276 
        1.41742         115.367         16.3573 
        1.42355          115.03          16.189 
         1.4297         114.156         16.0226 
        1.43585         113.657         15.8587 
        1.44198         112.673         15.6976 
        1.44809         112.313         15.5391 
        1.45423         112.131         15.3822 
        1.46036         111.045         15.2277 
        1.46649         110.607         15.0754 
        1.47263          110.04          14.925 
        1.47877         109.453         14.7767 
        1.48491         109.142         14.6302 
        1.49104         108.067          14.486 
        1.49718         107.823         14.3436 
        1.50333         107.459          14.203 
        1.50947         106.915         14.0645 
         1.5156         106.396          13.928 
        1.52172         105.634         13.7934 
        1.52787          105.35         13.6603 
          1.534         104.777         13.5291 
        1.54013         104.248         13.3998 
        1.54627          103.55          13.272 
        1.55241         103.408         13.1458 
        1.55855         102.618         13.0214 
        1.56467         102.071          12.899 
         1.5708         101.271         12.7778 
        1.57695         101.253          12.658 
        1.58308         100.557           12.54 
        1.58922          100.46         12.4234 
        1.59535         100.157         12.3083 
         1.6015         99.2343         12.1946 
        1.60764         98.6951         12.0823 
        1.61376         98.4229         11.9718 
        1.61989         97.9098         11.8625 
        1.62604          97.352         11.7544 
        1.63218         96.9623         11.6477 
        1.63831         96.4664         11.5425 
        1.64444         95.8246         11.4387 
        1.65059          95.429         11.3358 
        1.65673         95.3046         11.2344 
        1.66285         94.7184         11.1344 
        1.66898         94.0452         11.0357 
        1.67512         93.5691         10.9379 
        1.68127          93.346         10.8412 
         1.6874         92.5974          10.746 
        1.69353         92.2473         10.6519 
        1.69967          91.778         10.5588 
        1.70581         91.5785         10.4668 
        1.71193         91.0013         10.3762 
        1.71806         90.6315         10.2865 
        1.72421          90.092         10.1977 
        1.73035         89.7164         10.1101 
        1.73649         89.1825         10.0235 
        1.74262          88.881         9.93797 
        1.74876         88.3206          9.8534 
        1.75489         88.0272         9.76999 
        1.76101         87.6445         9.68758 
        1.76715         87.1416           9.606 
        1.77329         86.6991         9.52526 
        1.77943         86.4507         9.44542 
        1.78557         86.0791         9.36661 
        1.79171         85.5374         9.28869 
        1.79785         84.9543         9.21164 
        1.80399         84.9443         9.13549 
        1.81012         84.2349         9.06029 
        1.81625         83.8519         8.98598 
        1.82239         83.5012         8.91239 
        1.82853         83.0801         8.83966 
        1.83466         82.5625         8.76781 
        1.84078         82.4328         8.69684 
        1.84692         82.1954         8.62654 
        1.85306         81.8002         8.55692 
         1.8592         81.3634         8.48819 
        1.86533         80.8576         8.42025 
        1.87147         80.5615         8.35297 
        1.87761         79.8298          8.2864 
        1.88375         79.7977         8.22064 
        1.88988         79.1514         8.15565 
        1.89601         79.1791         8.09134 
        1.90215         78.5429         8.02767 
        1.90829         78.1324         7.96471 
        1.91442         77.7934         7.90243 
        1.92056         77.6142         7.84087 
         1.9267         77.1194          7.7799 
        1.93284         76.9313         7.71954 
        1.93897         76.4441         7.65994 
        1.94509          76.096         7.60109 
        1.95123          75.778         7.54272 
        1.95737         75.5036         7.48492 
        1.96349         75.1894         7.42787 
        1.96964         74.7908         7.37125 
        1.97578          74.385          7.3152 
        1.98192         73.9241         7.25985 
        1.98805         73.4372         7.20506 
        1.99419         73.5329         7.15083 
        2.00033         72.8743         7.09714 
        2.00647         72.5641         7.04401 
         2.0126         72.3073         6.99151 
        2.01874         72.1832         6.93947 
        2.02488          71.819         6.88792 
        2.03101         71.3153         6.83698 
        2.03714          71.058         6.78661 
        2.04328         70.8254         6.73669 
        2.04941         70.3716         6.68731 
        2.05554         70.0536         6.63847 
        2.06167         69.6345         6.59004 
        2.06781         69.3617         6.54209 
        2.07396         69.0961         6.49455 
        2.08009         68.7438         6.44757 
        2.08622         68.4969          6.4011 
        2.09237         68.2256           6.355 
        2.09851         67.6391         6.30935 
        2.10464         67.5011         6.26422 
        2.11077         67.3509         6.21959 
        2.11691         66.9803         6.17529 
        2.12305          66.566         6.13142 
        2.12918         66.3045         6.08809 
        2.13531         66.0058         6.04516 
        2.14145         65.6403         6.00256 
         2.1476         65.5661         5.96031 
        2.15372         65.0692         5.91868 
        2.15985         64.7674         5.87741 
        2.16599         64.5511         5.83641 
        2.17213         64.1545         5.79585 
        2.17827          63.807         5.75569 
         2.1844         63.5495         5.71593 
        2.19054         63.4249         5.67655 
        2.19666         63.2012         5.63758 
         2.2028         62.7286         5.59895 
        2.20893         62.4427         5.56067 
        2.21508         62.0857         5.52269 
        2.22122         61.8346         5.48506 
        2.22736         61.5749         5.44786 
        2.23349         61.2941         5.41101 
        2.23962         61.1375         5.37449 
        2.24577         60.7725         5.33827 
         2.2519         60.4419         5.30243 
        2.25802         60.2391         5.26698 
        2.26417         59.9074         5.23176 
        2.27031         59.7242         5.19682 
        2.27644         59.4357         5.16231 
        2.28257         59.1439         5.12811 
        2.28872         58.8651         5.09416 
        2.29486         58.6984         5.06052 
        2.30099         58.2385         5.02725 
        2.30712         58.1127         4.99427 
        2.31326         57.9212         4.96152 
         2.3194         57.6254         4.92909 
        2.32553         57.3035         4.89701 
        2.33166         57.0646         4.86522 
         2.3378         56.8002         4.83367 
        2.34394           56.53         4.80239 
        2.35007         56.3043         4.77143 
        2.35619         56.0981         4.74079 
        2.36233         55.8632         4.71034 
        2.36848         55.5415         4.68009 
        2.37462         55.2609         4.65018 
        2.38075         55.0448         4.62055 
        2.38689         54.7237         4.59116 
        2.39303          54.631         4.56203 
        2.39916         54.2786         4.53318 
        2.40529         54.1448         4.50458 
        2.41143         53.9177         4.47621 
        2.41757         53.5977         4.44807 
         2.4237         53.4823         4.42022 
        2.42983         53.1986         4.39262 
        2.43598           53.01         4.36518 
        2.44211         52.6047         4.33802 
        2.44823         52.5438         4.31115 
        2.45437         52.1445         4.28443 
        2.46052          51.881         4.25792 
        2.46665         51.6981         4.23168 
        2.47279         51.5063         4.20566 
        2.47892         51.3102         4.17985 
        2.48507         51.1032         4.15423 
         2.4912         50.8092         4.12888 
