# k  (h/Mpc)    Pcb(k)  (Mpc/h)^3    Pcb_linear(k)  (Mpc/h)^3
     0.00783031         12178.4         12344.2 
       0.013688         15762.6         15639.2 
       0.019231         16266.1         16251.9 
      0.0249154         15118.3         15431.3 
      0.0312784         13550.5         13716.6 
      0.0375637         11854.3         11888.6 
      0.0433917         10214.9           10420 
      0.0492413         9191.55         9280.78 
      0.0555754         8135.62         8401.12 
      0.0619321         7763.77          7777.3 
       0.067871         7087.47         7306.49 
      0.0738098         6632.04          6846.3 
      0.0800417         6040.54         6316.19 
      0.0862327            5550         5735.74 
      0.0921407          5081.2         5165.31 
      0.0982031         4523.45         4613.11 
       0.104506         4179.38         4120.84 
       0.110769         3807.12          3738.5 
       0.116806         3532.28         3468.96 
       0.122832         3351.58         3276.47 
       0.129052         3127.42         3126.26 
       0.135211         2996.36         2992.82 
       0.141259          2893.8         2851.71 
       0.147318         2749.97         2688.52 
       0.153489         2536.18         2501.79 
       0.159709         2394.08         2305.55 
       0.165845         2281.55         2120.79 
       0.171974         2130.68          1959.1 
       0.178125         2012.77          1827.4 
       0.184229         1918.96         1727.21 
        0.19034         1806.99         1651.56 
       0.196428         1778.95         1591.44 
       0.202534         1722.01         1536.43 
       0.208729         1650.56         1477.74 
       0.214876         1582.33         1412.23 
       0.220989         1533.04         1339.87 
       0.227147         1460.77         1263.18 
        0.23329         1399.72         1188.05 
       0.239377         1372.03         1119.82 
       0.245482         1282.35         1060.71 
       0.251667         1272.76         1011.27 
       0.257832         1223.48         971.262 
       0.263955         1185.06         937.992 
       0.270079          1145.7         907.901 
        0.27624         1135.24         877.977 
       0.282372         1087.84         846.618 
        0.28843         1076.43         813.591 
       0.294538         1023.18         778.871 
       0.300721         1018.33         743.711 
        0.30691         975.004         710.153 
       0.313033         956.154         679.846 
       0.319153         935.993         653.108 
       0.325316         905.932         629.668 
        0.33145         884.731         609.205 
       0.337538         871.631          590.73 
       0.343633         849.048         573.099 
       0.349808         821.039         555.339 
       0.355968         816.122         537.281 
       0.362074         805.583         519.079 
       0.368217         781.849         500.737 
       0.374374         750.845         482.833 
       0.380519         749.778         465.876 
       0.386598          730.63         450.326 
       0.392688         728.302         436.086 
        0.39888         706.572         422.846 
       0.405048          695.97         410.682 
       0.411186         685.415         399.247 
       0.417313          671.68         388.192 
       0.423458         660.691         377.286 
       0.429607         650.066         366.438 
       0.435692         636.105         355.798 
       0.441815         631.436         345.311 
       0.447964         618.083         335.122 
       0.454126         607.926         325.377 
       0.460267          596.01         316.223 
       0.466387         589.536         307.651 
        0.47254         580.976         299.522 
       0.478662         578.302         291.849 
       0.484765         560.752         284.514 
       0.490885         556.635         277.371 
       0.497035         545.462         270.346 
       0.503198         540.278         263.458 
       0.509342         535.394         256.744 
       0.515458         531.103         250.231 
       0.521598         518.786         243.906 
       0.527764         508.856         237.809 
       0.533884         507.459         232.021 
           0.54         500.954         226.483 
       0.546137         498.574         221.154 
       0.552299          489.58         216.011 
       0.558452         486.941         211.053 
       0.564573         479.681         206.262 
       0.570708         473.471         201.577 
       0.576825         461.896         197.022 
       0.582926          461.93         192.599 
       0.589034         457.776         188.299 
       0.595184         453.582         184.101 
       0.601379         447.616          180.01 
       0.607522         441.125         176.088 
       0.613639         440.372         172.317 
       0.619772         429.649         168.665 
       0.625918         428.364         165.122 
       0.632068         422.142         161.682 
       0.638161         420.627         158.364 
         0.6443         412.896         155.107 
       0.650464         410.335         151.921 
       0.656582         408.391         148.844 
       0.662703         406.051          145.85 
       0.668861         398.788         142.924 
       0.675024         395.453         140.078 
       0.681124         392.892         137.342 
       0.687237         389.174         134.676 
       0.693381         383.868         132.071 
       0.699536         379.301         129.533 
       0.705665         377.521         127.075 
       0.711789         374.782         124.683 
       0.717957         371.754         122.338 
        0.72409         368.618         120.065 
       0.730186         364.487         117.862 
       0.736317         361.137         115.701 
       0.742472         359.599         113.585 
       0.748622         355.766         111.525 
        0.75476         351.991          109.52 
       0.760888         348.038         107.569 
       0.767043         348.658          105.66 
       0.773185         343.879         103.802 
       0.779291         339.199         102.001 
       0.785407         337.998          100.24 
       0.791564         333.933          98.511 
       0.797719         331.504         96.8235 
       0.803834         328.853         95.1862 
       0.809972         327.485         93.5807 
       0.816124          327.28         92.0087 
       0.822261         322.094         90.4769 
       0.828378         320.231         88.9848 
       0.834502          317.95         87.5253 
       0.840667         314.378         86.0893 
       0.846816         312.967         84.6899 
       0.852925         310.692         83.3309 
       0.859047         308.893         81.9992 
       0.865192          305.54         80.6926 
       0.871341         303.187         79.4139 
       0.877463         301.567         78.1689 
       0.883569         299.923          76.954 
       0.889708         297.118         75.7589 
       0.895864         293.941         74.5863 
       0.902008         292.715          73.441 
       0.908149         291.045         72.3207 
       0.914301         287.599          71.222 
       0.920448         285.721         70.1473 
       0.926574         283.119         69.0986 
       0.932687         283.355         68.0738 
       0.938823         279.819         67.0662 
       0.944975          278.84         66.0768 
       0.951105         276.685          65.111 
       0.957225         274.573         64.1663 
       0.963368         271.314         63.2373 
       0.969511         269.945         62.3267 
       0.975621          267.77         61.4392 
       0.981748         267.726         60.5667 
       0.987916         265.252         59.7058 
        0.99406         261.576          58.865 
        1.00019         261.671         58.0422 
        1.00632         259.733         57.2359 
        1.01246         257.489         56.4439 
        1.01859         257.708         55.6682 
        1.02471         253.949         54.9082 
        1.03085         251.946         54.1599 
        1.03698         251.155         53.4271 
        1.04314         248.683         52.7049 
        1.04929          246.98         51.9978 
        1.05541         247.174         51.3067 
        1.06154         243.631         50.6264 
        1.06769         243.189         49.9576 
        1.07382         241.483         49.3031 
        1.07993         239.576         48.6618 
        1.08607         238.823         48.0294 
        1.09222         237.035         47.4077 
        1.09836          235.12         46.7977 
        1.10449         232.778         46.1992 
        1.11063         230.854         45.6106 
        1.11677         230.617         45.0325 
         1.1229         228.849         44.4655 
        1.12903         227.447         43.9077 
        1.13518         226.006         43.3592 
        1.14131         224.196         42.8203 
        1.14745         223.893          42.291 
        1.15359         221.806         41.7705 
        1.15973         220.685         41.2586 
        1.16584         218.632         40.7577 
        1.17197          218.43         40.2643 
        1.17811          216.22         39.7777 
        1.18424         215.033         39.3005 
        1.19038         214.293         38.8298 
        1.19652         212.653         38.3671 
        1.20267         212.016         37.9119 
        1.20881         210.005         37.4642 
        1.21495         208.853         37.0246 
        1.22108         207.754          36.592 
         1.2272         206.065         36.1675 
        1.23334         205.118         35.7487 
        1.23949         203.815         35.3356 
        1.24562         202.769         34.9302 
        1.25174         200.786         34.5318 
        1.25789         199.569         34.1384 
        1.26402         198.402         33.7519 
        1.27014         197.082         33.3724 
        1.27628          196.15         32.9976 
        1.28244         195.907         32.6278 
        1.28858         193.765         32.2642 
        1.29471         192.114          31.907 
        1.30084         191.515         31.5556 
        1.30697         190.093          31.209 
        1.31312         188.745         30.8671 
        1.31925         188.219         30.5314 
        1.32537         187.099          30.201 
        1.33151         185.267         29.8744 
        1.33765         184.406         29.5528 
        1.34378         183.559         29.2366 
        1.34992         182.663         28.9248 
        1.35606         182.304         28.6169 
         1.3622         180.512          28.314 
        1.36833         178.868         28.0163 
        1.37445         178.004          27.723 
        1.38059         176.858          27.433 
        1.38675         176.077         27.1465 
        1.39288         175.011         26.8652 
        1.39901         174.847          26.588 
        1.40515         173.014         26.3142 
         1.4113         171.835         26.0443 
        1.41742         170.968         25.7793 
        1.42355         169.801         25.5174 
         1.4297         168.836         25.2585 
        1.43585         167.735         25.0032 
        1.44198         166.922         24.7524 
        1.44809         166.179         24.5056 
        1.45423         164.984         24.2612 
        1.46036         164.109         24.0206 
        1.46649         162.971         23.7832 
        1.47263         161.925         23.5488 
        1.47877         161.226         23.3177 
        1.48491         159.683         23.0894 
        1.49104         159.475         22.8646 
        1.49718         157.698         22.6426 
        1.50333         157.244         22.4233 
        1.50947         156.634         22.2073 
         1.5156         155.311         21.9944 
        1.52172         154.516         21.7844 
        1.52787         153.331         21.5767 
          1.534         152.874          21.372 
        1.54013         151.685         21.1701 
        1.54627         151.037         20.9705 
        1.55241          149.89         20.7735 
        1.55855         149.039         20.5792 
        1.56467         148.282          20.388 
         1.5708         147.421         20.1987 
        1.57695          146.53         20.0115 
        1.58308         145.937         19.8271 
        1.58922          145.06         19.6449 
        1.59535         143.902         19.4651 
         1.6015          143.52         19.2873 
        1.60764         142.525         19.1118 
        1.61376          141.64         18.9389 
        1.61989         140.758         18.7681 
        1.62604         140.043          18.599 
        1.63218         139.346         18.4321 
        1.63831         138.337         18.2676 
        1.64444         137.857         18.1051 
        1.65059         137.075         17.9442 
        1.65673         135.787         17.7854 
        1.66285         135.572          17.629 
        1.66898          134.63         17.4744 
        1.67512         134.222         17.3214 
        1.68127         132.892           17.17 
         1.6874         131.884         17.0208 
        1.69353         131.708         16.8735 
        1.69967         130.863         16.7276 
        1.70581         130.033         16.5835 
        1.71193         129.292         16.4416 
        1.71806         128.686          16.301 
        1.72421         127.841         16.1619 
        1.73035         127.563         16.0245 
        1.73649          126.67         15.8888 
        1.74262         125.767         15.7547 
        1.74876         125.337         15.6221 
        1.75489         124.198         15.4913 
        1.76101         123.642         15.3621 
        1.76715         122.892         15.2341 
        1.77329         122.673         15.1075 
        1.77943         121.512         14.9822 
        1.78557         120.934         14.8586 
        1.79171         120.229         14.7363 
        1.79785         119.561         14.6154 
        1.80399         118.826         14.4958 
        1.81012         118.242         14.3778 
        1.81625         117.573         14.2611 
        1.82239         117.231         14.1456 
        1.82853          116.51         14.0314 
        1.83466         115.635         13.9185 
        1.84078         115.276          13.807 
        1.84692         114.261         13.6966 
        1.85306         113.952         13.5873 
         1.8592         113.115         13.4793 
        1.86533         112.277         13.3725 
        1.87147         111.725         13.2668 
        1.87761         111.273         13.1622 
        1.88375          110.31         13.0588 
        1.88988          109.88         12.9567 
        1.89601          109.17         12.8556 
        1.90215         108.729         12.7555 
        1.90829         108.105         12.6565 
        1.91442         107.571         12.5585 
        1.92056         106.891         12.4617 
         1.9267         106.479         12.3658 
        1.93284         105.936         12.2709 
        1.93897         105.136         12.1771 
        1.94509         104.801         12.0845 
        1.95123         104.172         11.9927 
        1.95737         103.613         11.9017 
        1.96349         103.027         11.8119 
        1.96964         102.137         11.7228 
        1.97578         101.742         11.6346 
        1.98192         101.423         11.5474 
        1.98805         100.464         11.4612 
        1.99419         100.233         11.3758 
        2.00033         99.5806         11.2912 
        2.00647         99.0537         11.2075 
         2.0126         98.4225         11.1249 
        2.01874         97.8641         11.0429 
        2.02488         97.3785         10.9617 
        2.03101         96.7631         10.8814 
        2.03714          96.208          10.802 
        2.04328         95.8381         10.7234 
        2.04941         95.3057         10.6455 
        2.05554         94.6697         10.5686 
        2.06167         94.2882         10.4922 
        2.06781         93.7322         10.4166 
        2.07396         93.1241         10.3417 
        2.08009         92.7254         10.2676 
        2.08622         92.2715         10.1943 
        2.09237         91.5775         10.1216 
        2.09851         91.2995         10.0496 
        2.10464         90.6861         9.97842 
        2.11077         90.3374         9.90801 
        2.11691         89.9398         9.83813 
        2.12305         89.1589         9.76892 
        2.12918         88.6936         9.70054 
        2.13531         88.4548         9.63281 
        2.14145         87.6061         9.56557 
         2.1476         87.2267          9.4989 
        2.15372         86.8726         9.43319 
        2.15985         86.4661         9.36805 
        2.16599         85.9893         9.30333 
        2.17213         85.4006         9.23929 
        2.17827         85.0589         9.17588 
         2.1844         84.4617         9.11311 
        2.19054         84.2842         9.05091 
        2.19666         83.6996         8.98938 
         2.2028         83.3689         8.92837 
        2.20893         82.7623          8.8679 
        2.21508         82.2595         8.80791 
        2.22122         81.9023         8.74847 
        2.22736         81.5144         8.68969 
        2.23349         81.1699         8.63147 
        2.23962         80.5837         8.57375 
        2.24577         80.2483         8.51651 
         2.2519         79.9572         8.45988 
        2.25802         79.3302         8.40384 
        2.26417         78.9055         8.34816 
        2.27031         78.5619         8.29294 
        2.27644         78.1078         8.23837 
        2.28257         77.6353          8.1843 
        2.28872         77.2015         8.13061 
        2.29486         76.7897         8.07742 
        2.30099         76.3776         8.02481 
        2.30712         76.0698         7.97265 
        2.31326         75.7257         7.92086 
         2.3194         75.2257         7.86957 
        2.32553         74.8427         7.81881 
        2.33166         74.4164         7.76852 
         2.3378          73.998         7.71861 
        2.34394         73.7098         7.66912 
        2.35007         73.1787         7.62013 
        2.35619         72.8315         7.57164 
        2.36233         72.5001         7.52345 
        2.36848         72.1022         7.47558 
        2.37462         71.6747         7.42822 
        2.38075         71.4538         7.38133 
        2.38689         70.9352         7.33479 
        2.39303         70.6255         7.28867 
        2.39916         70.1819         7.24299 
        2.40529         70.0142         7.19771 
        2.41143         69.5208         7.15278 
        2.41757         69.2309         7.10822 
         2.4237         68.9426         7.06411 
        2.42983          68.452         7.02039 
        2.43598         68.1648         6.97692 
        2.44211         67.7931         6.93389 
        2.44823         67.4912         6.89132 
        2.45437         67.0038         6.84899 
        2.46052         66.6884         6.80698 
        2.46665         66.4041          6.7654 
        2.47279         66.0312         6.72418 
        2.47892         65.7222         6.68327 
        2.48507         65.2378         6.64267 
         2.4912         65.0034         6.60248 
