# k  (h/Mpc)    Pcb(k)  (Mpc/h)^3    Pcb_linear(k)  (Mpc/h)^3
     0.00783031         17009.6         17262.7 
       0.013688           22082           21868 
       0.019231         22732.5         22723.5 
      0.0249154         21034.5         21575.4 
      0.0312784         18862.5         19177.5 
      0.0375637         16526.3         16621.5 
      0.0433917         14188.1         14568.2 
      0.0492413           12791         12975.3 
      0.0555754         11263.3         11745.4 
      0.0619321         10799.9         10873.2 
       0.067871         9804.85           10215 
      0.0738098         9176.97         9571.56 
      0.0800417         8336.14         8830.41 
      0.0862327         7675.01          8018.9 
      0.0921407         7057.44         7221.39 
      0.0982031         6293.28         6449.38 
       0.104506         5847.61         5761.15 
       0.110769         5337.64         5226.61 
       0.116806         4974.29         4849.77 
       0.122832         4711.58         4580.67 
       0.129052         4384.03         4370.67 
       0.135211         4196.64         4184.11 
       0.141259         4062.99         3986.82 
       0.147318         3868.11         3758.67 
       0.153489         3566.42         3497.61 
       0.159709         3378.97         3223.27 
       0.165845         3246.67         2964.96 
       0.171974         3047.08         2738.91 
       0.178125         2885.87         2554.79 
       0.184229         2744.53         2414.71 
        0.19034         2610.88         2308.95 
       0.196428         2562.49         2224.91 
       0.202534         2468.06            2148 
       0.208729         2374.13         2065.94 
       0.214876         2293.32         1974.35 
       0.220989         2219.49         1873.19 
       0.227147         2130.41         1765.98 
        0.23329         2046.58         1660.95 
       0.239377          2017.6         1565.55 
       0.245482         1896.29         1482.91 
       0.251667         1886.11          1413.8 
       0.257832         1812.32         1357.86 
       0.263955         1754.15         1311.35 
       0.270079          1698.7         1269.28 
        0.27624         1679.77         1227.45 
       0.282372         1612.56         1183.61 
        0.28843         1612.06         1137.43 
       0.294538         1536.87         1088.89 
       0.300721         1525.33         1039.74 
        0.30691         1471.66         992.822 
       0.313033         1441.33         950.452 
       0.319153         1424.67         913.071 
       0.325316         1376.76         880.301 
        0.33145         1349.39         851.693 
       0.337538         1324.29         825.864 
       0.343633         1300.02         801.216 
       0.349808         1260.16         776.386 
       0.355968         1250.29          751.14 
       0.362074         1240.65         725.693 
       0.368217         1200.78         700.051 
       0.374374         1161.74          675.02 
       0.380519         1164.69         651.314 
       0.386598         1131.69         629.573 
       0.392688         1126.46         609.666 
        0.39888         1095.85         591.156 
       0.405048         1086.18          574.15 
       0.411186         1070.12         558.164 
       0.417313         1047.56         542.708 
       0.423458         1030.86          527.46 
       0.429607         1018.69         512.295 
       0.435692         1000.52         497.419 
       0.441815         992.131         482.758 
       0.447964         971.797         468.513 
       0.454126         966.259          454.89 
       0.460267         942.712         442.093 
       0.466387         929.403         430.108 
        0.47254         929.449         418.743 
       0.478662         916.113         408.017 
       0.484765         893.521         397.762 
       0.490885         888.751         387.775 
       0.497035         869.024         377.954 
       0.503198         865.249         368.325 
       0.509342         854.368         358.938 
       0.515458         851.012         349.833 
       0.521598         831.481          340.99 
       0.527764         816.432         332.467 
       0.533884         814.806         324.374 
           0.54         808.847         316.633 
       0.546137         798.375         309.183 
       0.552299         790.394         301.992 
       0.558452         782.664          295.06 
       0.564573          773.19         288.362 
       0.570708         765.691         281.813 
       0.576825         746.056         275.444 
       0.582926         750.156         269.262 
       0.589034         741.832         263.249 
       0.595184          735.33         257.381 
       0.601379         725.748         251.661 
       0.607522         715.203         246.178 
       0.613639         715.818         240.906 
       0.619772         702.116           235.8 
       0.625918         696.109         230.847 
       0.632068         688.526         226.037 
       0.638161         685.564         221.399 
         0.6443         673.995         216.845 
       0.650464         672.813         212.391 
       0.656582         666.566         208.089 
       0.662703         663.807         203.904 
       0.668861         652.833         199.813 
       0.675024          646.98         195.835 
       0.681124         643.631         192.009 
       0.687237         638.694         188.282 
       0.693381         630.869          184.64 
       0.699536          619.45         181.092 
       0.705665         620.464         177.655 
       0.711789         616.178         174.312 
       0.717957         610.596         171.033 
        0.72409         607.279         167.855 
       0.730186         598.487         164.775 
       0.736317         595.832         161.754 
       0.742472         591.645         158.797 
       0.748622          585.73         155.916 
        0.75476         576.468         153.114 
       0.760888         572.731         150.386 
       0.767043          570.91         147.717 
       0.773185         566.222         145.119 
       0.779291         561.272         142.601 
       0.785407         555.584          140.14 
       0.791564          550.57         137.722 
       0.797719         548.673         135.363 
       0.803834         542.415         133.074 
       0.809972         539.712         130.829 
       0.816124         538.446         128.632 
       0.822261         530.175          126.49 
       0.828378         527.711         124.404 
       0.834502         522.098         122.364 
       0.840667         518.093         120.356 
       0.846816         515.168           118.4 
       0.852925         511.523           116.5 
       0.859047         510.265         114.638 
       0.865192         503.179         112.811 
       0.871341         499.072         111.024 
       0.877463          498.77         109.283 
       0.883569         493.116         107.585 
       0.889708         491.018         105.914 
       0.895864         489.142         104.274 
       0.902008         484.746         102.673 
       0.908149         477.916         101.107 
       0.914301         476.531         99.5711 
       0.920448         474.089         98.0686 
       0.926574         466.325         96.6025 
       0.932687         465.234         95.1697 
       0.938823         461.064         93.7611 
       0.944975         460.824         92.3778 
       0.951105         455.637         91.0277 
       0.957225         452.218          89.707 
       0.963368         447.824         88.4081 
       0.969511          446.52         87.1352 
       0.975621         443.782         85.8943 
       0.981748         440.267         84.6746 
       0.987916         437.606          83.471 
        0.99406         431.058         82.2956 
        1.00019         429.554         81.1452 
        1.00632         427.562          80.018 
        1.01246         424.065         78.9108 
        1.01859         423.237         77.8264 
        1.02471         418.089         76.7638 
        1.03085          416.33         75.7176 
        1.03698          414.09         74.6932 
        1.04314         410.509         73.6835 
        1.04929          406.04          72.695 
        1.05541         407.145         71.7287 
        1.06154         400.998         70.7777 
        1.06769         398.809         69.8426 
        1.07382         395.876         68.9276 
        1.07993         393.766         68.0311 
        1.08607         392.646          67.147 
        1.09222         387.999         66.2777 
        1.09836         385.476          65.425 
        1.10449         383.122         64.5883 
        1.11063         377.736         63.7654 
        1.11677         379.267         62.9572 
         1.1229         376.283         62.1644 
        1.12903          373.43         61.3847 
        1.13518         369.118         60.6178 
        1.14131          367.98         59.8645 
        1.14745         364.805         59.1244 
        1.15359         363.193         58.3968 
        1.15973         360.863         57.6812 
        1.16584         358.065         56.9808 
        1.17197         356.851         56.2911 
        1.17811         353.521         55.6107 
        1.18424         350.346         54.9436 
        1.19038         348.777         54.2856 
        1.19652         346.896         53.6386 
        1.20267         344.777         53.0023 
        1.20881         342.686         52.3765 
        1.21495          340.04         51.7617 
        1.22108         337.979         51.1571 
         1.2272         335.668         50.5635 
        1.23334         333.628          49.978 
        1.23949         330.712         49.4005 
        1.24562         329.444         48.8337 
        1.25174         327.444         48.2768 
        1.25789         323.768         47.7268 
        1.26402         322.084         47.1865 
        1.27014         319.932         46.6559 
        1.27628         317.555         46.1319 
        1.28244         317.917         45.6149 
        1.28858         314.271         45.1066 
        1.29471         313.077         44.6073 
        1.30084         310.498          44.116 
        1.30697         309.095         43.6314 
        1.31312         305.593         43.1533 
        1.31925          304.24          42.684 
        1.32537         303.346         42.2222 
        1.33151          300.19         41.7655 
        1.33765          297.98         41.3159 
        1.34378         297.089         40.8739 
        1.34992         295.044         40.4379 
        1.35606         293.178         40.0075 
         1.3622         291.121         39.5841 
        1.36833         289.629         39.1678 
        1.37445         287.499         38.7578 
        1.38059         285.252         38.3523 
        1.38675          283.53         37.9518 
        1.39288         282.137         37.5585 
        1.39901         280.611         37.1711 
        1.40515         278.957         36.7882 
         1.4113         276.941          36.411 
        1.41742         274.788         36.0404 
        1.42355         273.475         35.6743 
         1.4297          271.62         35.3123 
        1.43585         270.173         34.9554 
        1.44198         268.655         34.6048 
        1.44809         265.829         34.2597 
        1.45423         264.532         33.9181 
        1.46036         263.372         33.5817 
        1.46649          261.52         33.2498 
        1.47263         260.103         32.9222 
        1.47877         257.966         32.5991 
        1.48491         255.761         32.2798 
        1.49104         254.863         31.9656 
        1.49718         253.128         31.6553 
        1.50333         251.886         31.3486 
        1.50947          250.31         31.0466 
         1.5156         248.124         30.7491 
        1.52172         247.448         30.4554 
        1.52787         245.288         30.1651 
          1.534         244.524         29.8789 
        1.54013          241.97         29.5967 
        1.54627         241.098         29.3176 
        1.55241         239.563         29.0421 
        1.55855         237.399         28.7705 
        1.56467         236.915         28.5032 
         1.5708         235.408         28.2385 
        1.57695         233.477         27.9768 
        1.58308         232.329          27.719 
        1.58922         229.629         27.4643 
        1.59535         228.952         27.2129 
         1.6015         227.703         26.9644 
        1.60764         226.264          26.719 
        1.61376         225.177         26.4774 
        1.61989         223.621         26.2385 
        1.62604         221.941         26.0021 
        1.63218         220.956         25.7688 
        1.63831         219.417         25.5389 
        1.64444         218.184         25.3117 
        1.65059         217.199         25.0867 
        1.65673         215.441         24.8647 
        1.66285         213.854          24.646 
        1.66898         212.864         24.4299 
        1.67512         211.843         24.2159 
        1.68127         209.582         24.0044 
         1.6874         208.667         23.7958 
        1.69353         207.602         23.5898 
        1.69967         206.144         23.3858 
        1.70581         205.154         23.1843 
        1.71193         203.568         22.9859 
        1.71806         202.741         22.7895 
        1.72421         201.088         22.5949 
        1.73035         200.516         22.4029 
        1.73649         199.214         22.2131 
        1.74262         197.614         22.0257 
        1.74876         196.215         21.8403 
        1.75489         195.483         21.6575 
        1.76101         193.942         21.4768 
        1.76715         192.937         21.2979 
        1.77329         191.869         21.1208 
        1.77943         190.808         20.9457 
        1.78557         189.207         20.7728 
        1.79171         188.712         20.6019 
        1.79785         187.007         20.4328 
        1.80399         186.131         20.2657 
        1.81012         185.008         20.1007 
        1.81625         183.909         19.9376 
        1.82239         182.691          19.776 
        1.82853         181.955         19.6164 
        1.83466         180.814         19.4586 
        1.84078         179.757         19.3028 
        1.84692         178.508         19.1484 
        1.85306         177.506         18.9955 
         1.8592         176.482         18.8445 
        1.86533         175.761         18.6953 
        1.87147         174.577         18.5475 
        1.87761         173.391         18.4012 
        1.88375         172.322         18.2567 
        1.88988         170.695         18.1139 
        1.89601         170.629         17.9726 
        1.90215         169.425         17.8327 
        1.90829         168.106         17.6943 
        1.91442         167.419         17.5573 
        1.92056         166.393          17.422 
         1.9267          164.93         17.2879 
        1.93284         164.196         17.1552 
        1.93897         163.581         17.0241 
        1.94509         162.508         16.8946 
        1.95123         161.413         16.7662 
        1.95737         160.416          16.639 
        1.96349         159.571         16.5135 
        1.96964         158.482         16.3889 
        1.97578         157.682         16.2656 
        1.98192         156.621         16.1437 
        1.98805         155.629         16.0231 
        1.99419         154.897         15.9038 
        2.00033         153.966         15.7855 
        2.00647         153.109         15.6686 
         2.0126         151.978          15.553 
        2.01874         151.645         15.4384 
        2.02488         150.667         15.3248 
        2.03101         149.523         15.2126 
        2.03714         148.771         15.1017 
        2.04328         147.624         14.9917 
        2.04941         147.301         14.8829 
        2.05554         145.783         14.7752 
        2.06167         145.384         14.6685 
        2.06781         144.373         14.5628 
        2.07396         143.603         14.4581 
        2.08009         142.764         14.3545 
        2.08622         141.729          14.252 
        2.09237         141.016         14.1504 
        2.09851         140.289         14.0497 
        2.10464         139.762         13.9502 
        2.11077         138.796         13.8518 
        2.11691         137.993         13.7541 
        2.12305         137.216         13.6573 
        2.12918           136.4         13.5617 
        2.13531         135.807          13.467 
        2.14145          134.58          13.373 
         2.1476         133.758         13.2798 
        2.15372          133.52          13.188 
        2.15985         132.749         13.0969 
        2.16599         131.799         13.0064 
        2.17213          131.12         12.9169 
        2.17827         130.293         12.8282 
         2.1844         129.472         12.7405 
        2.19054         128.861         12.6535 
        2.19666          128.01         12.5675 
         2.2028         127.482         12.4822 
        2.20893         126.871         12.3977 
        2.21508         126.021         12.3138 
        2.22122         125.167         12.2307 
        2.22736         124.458         12.1485 
        2.23349          123.85         12.0671 
        2.23962          123.12         11.9864 
        2.24577         122.485         11.9064 
         2.2519         121.899         11.8272 
        2.25802         121.023         11.7489 
        2.26417         120.637         11.6711 
        2.27031          119.81         11.5938 
        2.27644         119.079         11.5176 
        2.28257         118.439          11.442 
        2.28872          117.87         11.3669 
        2.29486         116.952         11.2925 
        2.30099         116.393          11.219 
        2.30712         115.889         11.1461 
        2.31326         115.156         11.0737 
         2.3194         114.483          11.002 
        2.32553         113.816          10.931 
        2.33166         113.372         10.8607 
         2.3378         112.891         10.7909 
        2.34394         112.078         10.7217 
        2.35007         111.449         10.6532 
        2.35619         110.826         10.5854 
        2.36233         110.218         10.5181 
        2.36848         109.648         10.4511 
        2.37462         109.129         10.3849 
        2.38075         108.375         10.3194 
        2.38689         107.986         10.2543 
        2.39303         107.331         10.1898 
        2.39916         106.807          10.126 
        2.40529         106.405         10.0627 
        2.41143         105.775         9.99986 
        2.41757          104.99         9.93756 
         2.4237         104.419          9.8759 
        2.42983         103.962         9.81477 
        2.43598         103.375           9.754 
        2.44211         102.892         9.69384 
        2.44823         102.197         9.63432 
        2.45437         101.857         9.57514 
        2.46052         101.008         9.51642 
        2.46665         100.669         9.45828 
        2.47279         100.345         9.40065 
        2.47892         99.5484         9.34347 
        2.48507         98.9953         9.28671 
         2.4912          98.474         9.23052 
