# k  (h/Mpc)    Pcb(k)  (Mpc/h)^3    Pcb_linear(k)  (Mpc/h)^3
     0.00783031         2278.38         2303.28 
       0.013688         2767.99         2766.69 
       0.019231         2733.39         2730.83 
      0.0249154         2449.33         2466.11 
      0.0312784         2095.77         2097.46 
      0.0375637         1784.97         1778.68 
      0.0433917         1556.76         1560.69 
      0.0492413         1410.74            1410 
      0.0555754         1285.14          1294.7 
      0.0619321         1201.25         1195.39 
       0.067871         1091.06         1096.73 
      0.0738098         982.131         987.406 
      0.0800417         861.959         869.039 
      0.0862327         759.443         761.126 
      0.0921407         678.803         676.969 
      0.0982031         612.229         613.089 
       0.104506         573.074         567.529 
       0.110769          539.15         535.472 
       0.116806         508.567         508.651 
       0.122832         482.238         479.691 
       0.129052         444.313         444.998 
       0.135211         407.566         407.297 
       0.141259         374.684         370.747 
       0.147318         344.359          338.33 
       0.153489         316.267         311.886 
       0.159709         297.254         292.106 
       0.165845         285.234         277.742 
       0.171974         270.425         266.026 
       0.178125         259.274          254.53 
       0.184229         247.426         241.906 
        0.19034         230.192         227.795 
       0.196428         218.575         213.029 
       0.202534         206.835         198.734 
       0.208729         193.043          185.87 
       0.214876         181.311         175.304 
       0.220989         174.832         166.889 
       0.227147         165.769         159.957 
        0.23329          159.55         153.805 
       0.239377          154.36         147.782 
       0.245482         145.893         141.434 
       0.251667         141.257         134.657 
       0.257832         134.697         127.813 
       0.263955         128.315         121.308 
       0.270079         122.616         115.399 
        0.27624         118.791         110.212 
       0.282372         114.184         105.762 
        0.28843         109.592         101.885 
       0.294538         105.488         98.2713 
       0.300721         103.024         94.7038 
        0.30691         98.4085         91.1127 
       0.313033         95.0106         87.5254 
       0.319153         90.3027         83.9855 
       0.325316         88.4135         80.5664 
        0.33145         84.8039         77.4044 
       0.337538         82.4836         74.5401 
       0.343633         79.4849         71.9366 
       0.349808         77.1408         69.5129 
       0.355968         75.0199         67.2353 
       0.362074         72.6164         65.0573 
       0.368217         70.3987         62.9042 
       0.374374         68.1437         60.7827 
       0.380519          66.326         58.7169 
       0.386598          64.386         56.7513 
       0.392688         62.8995         54.8876 
        0.39888         60.9491         53.1091 
       0.405048          59.415         51.4515 
       0.411186         57.9598         49.9007 
       0.417313         56.0995         48.4258 
       0.423458         54.6598         47.0011 
       0.429607         53.1678         45.6194 
       0.435692          51.469         44.2885 
       0.441815         50.5999         42.9887 
       0.447964         49.6626         41.7317 
       0.454126         47.6108          40.526 
       0.460267         46.7836         39.3794 
       0.466387         45.4373         38.2915 
        0.47254         44.6747         37.2482 
       0.478662         43.8855         36.2528 
       0.484765         42.5666         35.2954 
       0.490885         41.6051         34.3666 
       0.497035         41.0286         33.4629 
       0.503198         39.9032         32.5866 
       0.509342         38.8704         31.7417 
       0.515458         38.0496         30.9307 
       0.521598            37.4         30.1477 
       0.527764         36.5964         29.3921 
       0.533884         35.9593         28.6703 
           0.54          35.158         27.9744 
       0.546137         34.5933         27.2993 
       0.552299         34.0229         26.6433 
       0.558452         32.9703         26.0094 
       0.564573         32.4659         25.3985 
       0.570708         31.9304         24.8052 
       0.576825         31.1563         24.2324 
       0.582926         30.5454         23.6795 
       0.589034         29.7538          23.144 
       0.595184         29.3698         22.6227 
       0.601379         28.8112         22.1146 
       0.607522         28.2603         21.6266 
       0.613639         27.9879         21.1554 
       0.619772         27.2561         20.6968 
       0.625918         27.0918         20.2506 
       0.632068         26.6454         19.8172 
       0.638161         26.0694         19.4004 
         0.6443         25.5478         18.9929 
       0.650464         25.0938         18.5959 
       0.656582         24.9238         18.2133 
       0.662703         24.4317         17.8417 
       0.668861         23.9788         17.4784 
       0.675024         23.5534          17.125 
       0.681124         23.1451          16.785 
       0.687237         22.7504         16.4536 
       0.693381         22.5407         16.1295 
       0.699536         21.9599         15.8137 
       0.705665         21.8753         15.5078 
       0.711789         21.3912         15.2103 
       0.717957         21.0923         14.9186 
        0.72409         20.7786         14.6364 
       0.730186         20.4831         14.3632 
       0.736317         20.2593         14.0956 
       0.742472         19.9059         13.8338 
       0.748622         19.6924          13.579 
        0.75476          19.325         13.3312 
       0.760888         19.0476           13.09 
       0.767043         18.8207         12.8538 
       0.773185          18.477          12.624 
       0.779291         18.3673         12.4011 
       0.785407         18.1376         12.1834 
       0.791564         17.8091         11.9695 
       0.797719         17.4238         11.7609 
       0.803834         17.3878         11.5586 
       0.809972         17.2268         11.3604 
       0.816124         16.8226         11.1665 
       0.822261         16.6545         10.9776 
       0.828378         16.4813         10.7937 
       0.834502         16.3196          10.614 
       0.840667         16.0784         10.4371 
       0.846816         15.7897         10.2649 
       0.852925         15.6431         10.0976 
       0.859047         15.4656         9.93375 
       0.865192         15.3147         9.77302 
       0.871341         15.1819         9.61577 
       0.877463         14.9133         9.46271 
       0.883569         14.7152          9.3134 
       0.889708          14.489         9.16657 
       0.895864         14.3772         9.02254 
       0.902008          14.266         8.88194 
       0.908149         14.1042         8.74443 
       0.914301         13.9915         8.60963 
       0.920448         13.7256         8.47781 
       0.926574         13.5996         8.34923 
       0.932687         13.4515          8.2236 
       0.938823         13.2741         8.10012 
       0.944975         13.1189         7.97891 
       0.951105          13.004         7.86062 
       0.957225         12.8916         7.74495 
       0.963368         12.7598         7.63122 
       0.969511         12.6399         7.51978 
       0.975621         12.5097         7.41117 
       0.981748         12.3481         7.30444 
       0.987916         12.2631         7.19914 
        0.99406         12.0908         7.09633 
        1.00019         11.9129         6.99574 
        1.00632         11.8859         6.89719 
        1.01246         11.7564         6.80041 
        1.01859         11.5726         6.70566 
        1.02471         11.5178         6.61283 
        1.03085         11.4012         6.52145 
        1.03698         11.2238           6.432 
        1.04314         11.1599         6.34385 
        1.04929         11.0167         6.25757 
        1.05541         10.8929         6.17325 
        1.06154         10.8217         6.09029 
        1.06769         10.7665         6.00873 
        1.07382         10.6123         5.92895 
        1.07993          10.528          5.8508 
        1.08607         10.4279         5.77374 
        1.09222         10.3452         5.69801 
        1.09836         10.2183         5.62372 
        1.10449         10.1407         5.55086 
        1.11063         10.0331         5.47921 
        1.11677         9.98444         5.40886 
         1.1229         9.91509         5.33987 
        1.12903         9.78921         5.27203 
        1.13518         9.66961         5.20532 
        1.14131         9.61253          5.1398 
        1.14745         9.52358         5.07546 
        1.15359         9.46014          5.0122 
        1.15973         9.37125         4.95001 
        1.16584         9.23622         4.88915 
        1.17197         9.18656         4.82923 
        1.17811         9.13713         4.77014 
        1.18424         9.05043          4.7122 
        1.19038         9.00963         4.65507 
        1.19652         8.90602         4.59891 
        1.20267          8.8158         4.54367 
        1.20881         8.79108         4.48936 
        1.21495         8.71505         4.43602 
        1.22108         8.60787         4.38356 
         1.2272         8.55039         4.33207 
        1.23334         8.46388          4.2813 
        1.23949         8.39114         4.23121 
        1.24562         8.35428         4.18208 
        1.25174         8.29114          4.1338 
        1.25789         8.22264         4.08613 
        1.26402         8.18584         4.03931 
        1.27014         8.10779         3.99334 
        1.27628         8.00672         3.94794 
        1.28244         7.94155         3.90317 
        1.28858         7.93905         3.85916 
        1.29471         7.84662         3.81592 
        1.30084         7.76916         3.77339 
        1.30697         7.75913         3.73145 
        1.31312         7.63928         3.69008 
        1.31925         7.58955         3.64948 
        1.32537         7.54657         3.60953 
        1.33151           7.511         3.57003 
        1.33765         7.43538         3.53115 
        1.34378         7.38005         3.49293 
        1.34992         7.32752         3.45526 
        1.35606         7.27802         3.41805 
         1.3622         7.23635         3.38147 
        1.36833         7.16885          3.3455 
        1.37445         7.12797         3.31008 
        1.38059         7.09917         3.27507 
        1.38675         7.03141         3.24048 
        1.39288         7.00018         3.20652 
        1.39901         6.91895         3.17307 
        1.40515         6.88873         3.14002 
         1.4113         6.84093         3.10746 
        1.41742         6.79345         3.07548 
        1.42355         6.73312         3.04389 
         1.4297          6.6994         3.01266 
        1.43585         6.66884         2.98187 
        1.44198         6.63528         2.95163 
        1.44809          6.5759         2.92188 
        1.45423         6.52406         2.89242 
        1.46036          6.4783         2.86342 
        1.46649         6.44531         2.83481 
        1.47263         6.38538         2.80657 
        1.47877         6.34803         2.77873 
        1.48491         6.31503         2.75122 
        1.49104         6.27173         2.72414 
        1.49718         6.23856         2.69741 
        1.50333         6.20163         2.67099 
        1.50947          6.1509         2.64498 
         1.5156         6.11834         2.61936 
        1.52172         6.08721         2.59408 
        1.52787         6.04553         2.56908 
          1.534         5.99871         2.54445 
        1.54013         5.97302         2.52016 
        1.54627         5.91923         2.49614 
        1.55241          5.8895         2.47244 
        1.55855         5.86581         2.44908 
        1.56467         5.81929         2.42608 
         1.5708         5.79873         2.40332 
        1.57695         5.74473         2.38081 
        1.58308         5.70466         2.35865 
        1.58922         5.69165         2.33675 
        1.59535         5.66414         2.31514 
         1.6015         5.61297         2.29377 
        1.60764         5.57362         2.27268 
        1.61376         5.55581         2.25191 
        1.61989         5.52211         2.23139 
        1.62604         5.48342         2.21108 
        1.63218         5.46969         2.19103 
        1.63831         5.43343         2.17128 
        1.64444         5.40399         2.15177 
        1.65059         5.34368         2.13245 
        1.65673         5.34737         2.11339 
        1.66285         5.29084         2.09461 
        1.66898         5.26716         2.07606 
        1.67512          5.2433          2.0577 
        1.68127          5.2084         2.03954 
         1.6874         5.19177         2.02164 
        1.69353         5.14864         2.00397 
        1.69967         5.12864         1.98646 
        1.70581         5.10229         1.96918 
        1.71193         5.06762         1.95216 
        1.71806         5.04911         1.93531 
        1.72421         5.01451         1.91863 
        1.73035           4.999         1.90216 
        1.73649         4.96835         1.88589 
        1.74262          4.9342         1.86982 
        1.74876         4.91695         1.85393 
        1.75489         4.89511         1.83826 
        1.76101         4.85408         1.82277 
        1.76715          4.8418         1.80744 
        1.77329         4.81233         1.79227 
        1.77943         4.77396         1.77727 
        1.78557         4.76616         1.76246 
        1.79171         4.73655         1.74781 
        1.79785         4.70988         1.73333 
        1.80399         4.68025         1.71902 
        1.81012         4.66164         1.70489 
        1.81625         4.63749         1.69092 
        1.82239         4.61899         1.67709 
        1.82853         4.58835         1.66342 
        1.83466         4.57114         1.64992 
        1.84078         4.55187         1.63658 
        1.84692         4.53763         1.62336 
        1.85306         4.49991         1.61028 
         1.8592         4.47317         1.59736 
        1.86533         4.45507         1.58459 
        1.87147          4.4377         1.57194 
        1.87761         4.41342         1.55943 
        1.88375         4.38867         1.54707 
        1.88988         4.37128         1.53486 
        1.89601         4.34979         1.52277 
        1.90215         4.33028          1.5108 
        1.90829         4.30372         1.49896 
        1.91442         4.28597         1.48726 
        1.92056         4.26688         1.47568 
         1.9267         4.24065         1.46422 
        1.93284         4.22417         1.45288 
        1.93897         4.20195         1.44167 
        1.94509         4.18739         1.43061 
        1.95123         4.16384         1.41964 
        1.95737         4.13642         1.40877 
        1.96349         4.12822         1.39805 
        1.96964         4.11044          1.3874 
        1.97578         4.08052         1.37686 
        1.98192         4.07134         1.36646 
        1.98805         4.05351         1.35616 
        1.99419         4.03076         1.34596 
        2.00033         4.02027         1.33587 
        2.00647         3.99597         1.32588 
         2.0126         3.98336         1.31601 
        2.01874         3.95567         1.30622 
        2.02488         3.94676         1.29653 
        2.03101         3.91746         1.28695 
        2.03714         3.90122         1.27748 
        2.04328         3.88416          1.2681 
        2.04941         3.86238         1.25881 
        2.05554         3.85033         1.24963 
        2.06167         3.83666         1.24052 
        2.06781         3.81863         1.23151 
        2.07396         3.80854         1.22257 
        2.08009         3.78777         1.21373 
        2.08622         3.76601           1.205 
        2.09237         3.75126         1.19633 
        2.09851         3.74133         1.18774 
        2.10464         3.72379         1.17926 
        2.11077         3.69989         1.17086 
        2.11691         3.68645         1.16253 
        2.12305         3.67554         1.15429 
        2.12918         3.66494         1.14614 
        2.13531           3.647         1.13806 
        2.14145         3.63111         1.13005 
         2.1476         3.60952         1.12211 
        2.15372         3.59445         1.11428 
        2.15985         3.59276         1.10652 
        2.16599         3.56365         1.09881 
        2.17213          3.5518         1.09118 
        2.17827         3.54291         1.08363 
         2.1844         3.52483         1.07615 
        2.19054         3.50818         1.06874 
        2.19666         3.49184         1.06142 
         2.2028         3.47843         1.05415 
        2.20893         3.46696         1.04695 
        2.21508         3.44923         1.03981 
        2.22122         3.43565         1.03273 
        2.22736         3.42325         1.02574 
        2.23349         3.41549         1.01881 
        2.23962         3.39922         1.01194 
        2.24577          3.3833         1.00512 
         2.2519         3.37546        0.998383 
        2.25802         3.35607        0.991715 
        2.26417         3.34653         0.98509 
        2.27031         3.32952        0.978519 
        2.27644         3.31415        0.972027 
        2.28257         3.29966        0.965595 
        2.28872         3.29611        0.959208 
        2.29486         3.27855        0.952881 
        2.30099         3.26226        0.946623 
        2.30712         3.25016        0.940419 
        2.31326         3.23444         0.93426 
         2.3194         3.22651         0.92816 
        2.32553         3.21597        0.922124 
        2.33166         3.20624        0.916145 
         2.3378          3.1904         0.91021 
        2.34394         3.17888        0.904326 
        2.35007         3.16308        0.898502 
        2.35619         3.15585        0.892737 
        2.36233         3.14433        0.887009 
        2.36848          3.1268        0.881319 
        2.37462         3.12372        0.875691 
        2.38075         3.10724        0.870118 
        2.38689             3.1        0.864589 
        2.39303         3.08413        0.859108 
        2.39916          3.0733        0.853681 
        2.40529         3.06229        0.848301 
        2.41143         3.05013        0.842964 
        2.41757         3.04285         0.83767 
         2.4237         3.03269        0.832431 
        2.42983         3.00881        0.827237 
        2.43598         3.00695        0.822075 
        2.44211         2.99005        0.816964 
        2.44823         2.98421        0.811909 
        2.45437         2.96965        0.806882 
        2.46052         2.96413        0.801894 
        2.46665         2.95315        0.796957 
        2.47279         2.94007        0.792063 
        2.47892         2.93054        0.787206 
        2.48507         2.92078        0.782386 
         2.4912         2.90512        0.777616 
