# k  (h/Mpc)    P(k)  (Mpc/h)^3    P_linear(k)  (Mpc/h)^3
     0.00783031         27719.5         28166.1 
       0.013688         30924.1         30485.7 
       0.019231           27727         27561.1 
      0.0249154         22364.6         22853.7 
      0.0312784         17718.6         17841.4 
      0.0375637         14337.8           14192 
      0.0433917         11922.7         12030.8 
      0.0492413         10732.6         10719.3 
      0.0555754         9534.28         9792.73 
      0.0619321         9056.73         8951.43 
       0.067871         7893.55         8038.37 
      0.0738098         6935.35         7003.41 
      0.0800417         5867.04         5923.27 
      0.0862327         5092.32         5012.69 
      0.0921407         4588.72          4374.3 
      0.0982031         4103.91         3949.63 
       0.104506         3939.98         3687.11 
       0.110769         3695.85         3508.68 
       0.116806         3501.88         3330.32 
       0.122832         3275.09         3100.35 
       0.129052          2938.7         2809.21 
       0.135211         2684.74         2503.28 
       0.141259         2510.72         2229.73 
       0.147318         2331.24          2012.1 
       0.153489         2134.08         1856.05 
       0.159709         2033.48         1753.17 
       0.165845         1968.14         1681.28 
       0.171974         1880.82         1613.98 
       0.178125         1782.12         1533.81 
       0.184229         1678.31         1437.13 
        0.19034         1573.73         1329.92 
       0.196428         1513.93         1224.79 
       0.202534         1439.23         1132.12 
       0.208729         1362.72         1057.09 
       0.214876         1311.78         1001.08 
       0.220989         1262.76         958.377 
       0.227147         1218.33         921.267 
        0.23329          1166.3         883.886 
       0.239377         1141.29         843.151 
       0.245482         1065.93         798.602 
       0.251667         1054.72         752.368 
       0.257832         1005.31         708.631 
       0.263955         967.534         670.158 
       0.270079         930.631         637.702 
        0.27624          916.53         610.434 
       0.282372         880.127         586.939 
        0.28843         870.351         565.317 
       0.294538         823.809         543.584 
       0.300721         816.085         521.001 
        0.30691         784.841         497.981 
       0.313033         766.144         475.626 
       0.319153         749.124         454.555 
       0.325316         726.075         435.252 
        0.33145         707.186         418.085 
       0.337538         690.395         402.796 
       0.343633         675.479          388.72 
       0.349808         649.275         375.139 
       0.355968          644.01         361.907 
       0.362074         636.525         348.915 
       0.368217         615.092         336.083 
       0.374374         591.647         323.653 
       0.380519         590.306         311.885 
       0.386598         571.142         301.028 
       0.392688         567.231         290.917 
        0.39888         550.079         281.327 
       0.405048         543.084         272.325 
       0.411186         534.458         263.738 
       0.417313         523.401          255.43 
       0.423458         510.198          247.34 
       0.429607         506.249         239.485 
       0.435692         492.265         231.999 
       0.441815         486.091         224.808 
       0.447964         477.069         217.953 
       0.454126         471.473         211.431 
       0.460267         459.534         205.254 
       0.466387         452.725         199.376 
        0.47254         450.604         193.694 
       0.478662         443.839         188.227 
       0.484765          429.15         182.957 
       0.490885         425.119         177.855 
       0.497035         416.474         172.914 
       0.503198          412.69         168.152 
       0.509342         410.243         163.596 
       0.515458         405.686          159.25 
       0.521598         393.499         155.062 
       0.527764         389.756         151.015 
       0.533884         385.138         147.138 
           0.54         380.241         143.393 
       0.546137          376.93         139.759 
       0.552299         371.793         136.234 
       0.558452         367.968         132.835 
       0.564573          364.16         129.568 
       0.570708          357.81         126.406 
       0.576825         350.969         123.362 
       0.582926         349.379         120.431 
       0.589034         345.018         117.594 
       0.595184         342.934         114.832 
       0.601379         335.275          112.14 
       0.607522         332.489         109.554 
       0.613639          328.92         107.059 
       0.619772         325.439         104.634 
       0.625918         322.564         102.279 
       0.632068         317.199         99.9964 
       0.638161          314.91         97.8051 
         0.6443         311.191         95.6654 
       0.650464         308.609         93.5829 
       0.656582         303.704         91.5779 
       0.662703         303.615         89.6313 
       0.668861         299.764           87.73 
       0.675024         296.434         85.8821 
       0.681124          293.16         84.1059 
       0.687237         290.779         82.3763 
       0.693381         286.325         80.6875 
       0.699536         282.712         79.0433 
       0.705665         281.002         77.4523 
       0.711789         279.833         75.9069 
       0.717957         277.043         74.3935 
        0.72409         275.573         72.9299 
       0.730186          271.96         71.5147 
       0.736317          269.45         70.1295 
       0.742472         266.514         68.7759 
       0.748622         264.835         67.4593 
        0.75476         261.429           66.18 
       0.760888         258.806         64.9358 
       0.767043         257.768         63.7188 
       0.773185         255.806         62.5354 
       0.779291         252.332         61.3889 
       0.785407         251.418         60.2695 
       0.791564         249.095         59.1711 
       0.797719         246.721         58.1006 
       0.803834         243.484         57.0634 
       0.809972         242.622          56.048 
       0.816124         241.488         55.0551 
       0.822261         239.916         54.0889 
       0.828378         237.233         53.1489 
       0.834502         234.498         52.2306 
       0.840667         233.193          51.328 
       0.846816         232.083         50.4493 
       0.852925         230.427         49.5968 
       0.859047         228.151         48.7622 
       0.865192         225.667         47.9442 
       0.871341         223.577         47.1444 
       0.877463         224.021         46.3665 
       0.883569         221.466         45.6082 
       0.889708         219.319          44.863 
       0.895864         219.246         44.1326 
       0.902008         216.585           43.42 
       0.908149         214.481         42.7236 
       0.914301         212.903         42.0414 
       0.920448         211.139         41.3747 
       0.926574         209.141         40.7248 
       0.932687          208.98         40.0903 
       0.938823         206.145          39.467 
       0.944975           206.1         38.8556 
       0.951105         204.152         38.2593 
       0.957225         203.242         37.6766 
       0.963368         200.418          37.104 
       0.969511         199.507         36.5433 
       0.975621          198.33         35.9972 
       0.981748         196.915         35.4609 
       0.987916         195.816         34.9321 
        0.99406          194.52          34.416 
        1.00019         192.665         33.9115 
        1.00632         192.219         33.4175 
        1.01246         190.349         32.9326 
        1.01859         189.663          32.458 
        1.02471         187.517         31.9935 
        1.03085         186.707         31.5364 
        1.03698             185         31.0892 
        1.04314         184.151         30.6487 
        1.04929         183.138         30.2178 
        1.05541         181.847         29.7969 
        1.06154         180.191         29.3831 
        1.06769          179.85         28.9764 
        1.07382         178.431         28.5788 
        1.07993         177.215         28.1895 
        1.08607         176.766         27.8059 
        1.09222         175.027         27.4291 
        1.09836         173.585         27.0597 
        1.10449         172.482         26.6975 
        1.11063          171.18         26.3415 
        1.11677         170.543         25.9922 
         1.1229         168.658         25.6498 
        1.12903          168.05         25.3133 
        1.13518         167.189         24.9826 
        1.14131         166.038         24.6579 
        1.14745         166.003         24.3392 
        1.15359         163.899         24.0261 
        1.15973         162.815         23.7183 
        1.16584         162.255         23.4173 
        1.17197          161.95         23.1211 
        1.17811         159.941         22.8291 
        1.18424         159.291          22.543 
        1.19038         158.327          22.261 
        1.19652         156.826         21.9839 
        1.20267          157.01         21.7115 
        1.20881         155.343         21.4437 
        1.21495         154.513         21.1809 
        1.22108          153.56         20.9225 
         1.2272          152.42         20.6691 
        1.23334         152.466         20.4192 
        1.23949         150.632         20.1729 
        1.24562         150.023         19.9313 
        1.25174         149.072         19.6941 
        1.25789         148.576         19.4599 
        1.26402         146.894           19.23 
        1.27014         146.519         19.0043 
        1.27628         145.225         18.7816 
        1.28244         145.037          18.562 
        1.28858         143.604         18.3463 
        1.29471         143.286         18.1344 
        1.30084         141.906          17.926 
        1.30697         141.131         17.7206 
        1.31312         139.989         17.5182 
        1.31925         139.345         17.3195 
        1.32537         139.058         17.1241 
        1.33151         137.801          16.931 
        1.33765         137.152          16.741 
        1.34378         136.337         16.5543 
        1.34992         135.843         16.3703 
        1.35606         135.178         16.1887 
         1.3622         133.695         16.0101 
        1.36833         133.291         15.8347 
        1.37445         132.505          15.662 
        1.38059          131.78         15.4914 
        1.38675         131.402         15.3229 
        1.39288         130.079         15.1575 
        1.39901         129.595         14.9947 
        1.40515         128.948         14.8339 
         1.4113         128.185         14.6755 
        1.41742         127.058           14.52 
        1.42355          126.82         14.3664 
         1.4297         125.662         14.2147 
        1.43585          125.12         14.0651 
        1.44198         125.082         13.9183 
        1.44809         123.963         13.7739 
        1.45423         123.541          13.631 
        1.46036         122.615         13.4903 
        1.46649         121.832         13.3516 
        1.47263         121.066         13.2147 
        1.47877         120.346         13.0798 
        1.48491         119.642         12.9465 
        1.49104         119.215         12.8154 
        1.49718         118.056         12.6859 
        1.50333         117.446         12.5581 
        1.50947         116.934         12.4323 
         1.5156         116.378         12.3084 
        1.52172         115.721         12.1861 
        1.52787         114.828         12.0653 
          1.534         114.493         11.9463 
        1.54013         113.944          11.829 
        1.54627         113.293          11.713 
        1.55241         112.495         11.5986 
        1.55855         111.867         11.4858 
        1.56467          110.83         11.3749 
         1.5708         110.517         11.2651 
        1.57695         110.409         11.1566 
        1.58308         109.697         11.0498 
        1.58922         109.107         10.9443 
        1.59535         108.308         10.8402 
         1.6015         107.912         10.7373 
        1.60764         107.526         10.6358 
        1.61376         106.737         10.5359 
        1.61989         105.931         10.4372 
        1.62604         105.468         10.3395 
        1.63218         105.122         10.2431 
        1.63831          104.64         10.1482 
        1.64444         103.925         10.0545 
        1.65059         103.015         9.96167 
        1.65673         102.839         9.87015 
        1.66285         102.405         9.78002 
        1.66898         101.773         9.69099 
        1.67512         100.816         9.60289 
        1.68127          100.75          9.5158 
         1.6874         100.239         9.42998 
        1.69353         99.6885         9.34526 
        1.69967         99.0192         9.26138 
        1.70581         98.1426         9.17856 
        1.71193         97.6086         9.09707 
        1.71806           97.58         9.01638 
        1.72421         96.9222         8.93651 
        1.73035         96.6656          8.8577 
        1.73649         96.0022         8.77984 
        1.74262         95.5354         8.70299 
        1.74876         94.9466           8.627 
        1.75489         94.3891         8.55207 
        1.76101         93.8457         8.47805 
        1.76715         93.6184          8.4048 
        1.77329          92.765         8.33232 
        1.77943         92.8098         8.26067 
        1.78557         92.3005         8.18996 
        1.79171         91.3495         8.12006 
        1.79785         91.1538         8.05096 
        1.80399         90.5946         7.98268 
        1.81012         90.1556         7.91528 
        1.81625         89.7609         7.84869 
        1.82239         89.2123         7.78276 
        1.82853         88.7098         7.71761 
        1.83466         88.3392         7.65327 
        1.84078         88.0528         7.58973 
        1.84692         87.2594         7.52681 
        1.85306         87.1258         7.46452 
         1.8592         86.3825         7.40303 
        1.86533         85.9967         7.34227 
        1.87147         85.5384         7.28212 
        1.87761         84.9718         7.22261 
        1.88375         84.6805         7.16384 
        1.88988         84.0137         7.10578 
        1.89601         83.6201         7.04833 
        1.90215         83.3961         6.99146 
        1.90829         82.8264         6.93525 
        1.91442          82.474         6.87966 
        1.92056         81.9182         6.82471 
         1.9267         81.5709         6.77032 
        1.93284         81.1494         6.71647 
        1.93897         80.6185         6.66332 
        1.94509         80.3598         6.61085 
        1.95123         79.9979         6.55881 
        1.95737         79.4864         6.50729 
        1.96349         79.0517         6.45645 
        1.96964         78.6412         6.40601 
        1.97578         78.1019         6.35608 
        1.98192         77.9513         6.30679 
        1.98805         77.4908         6.25801 
        1.99419         76.9855         6.20973 
        2.00033         76.7382         6.16195 
        2.00647         76.3014         6.11467 
         2.0126         75.8792         6.06798 
        2.01874         75.6626         6.02169 
        2.02488         75.0765         5.97585 
        2.03101         74.7718         5.93056 
        2.03714         74.2394         5.88579 
        2.04328         73.9477         5.84143 
        2.04941         73.5906         5.79755 
        2.05554         73.2437         5.75416 
        2.06167         72.8609         5.71115 
        2.06781         72.3994         5.66858 
        2.07396         72.2401         5.62637 
        2.08009         71.8001         5.58467 
        2.08622         71.4191         5.54344 
        2.09237         71.1289         5.50253 
        2.09851          70.712         5.46204 
        2.10464         70.2785         5.42201 
        2.11077         69.8211         5.38243 
        2.11691         69.7094         5.34316 
        2.12305         69.3768         5.30428 
        2.12918          68.984         5.26588 
        2.13531         68.6528         5.22785 
        2.14145         68.2618          5.1901 
         2.1476         68.0404         5.15269 
        2.15372         67.6126         5.11583 
        2.15985         67.1873         5.07929 
        2.16599         66.9123           5.043 
        2.17213         66.5944         5.00711 
        2.17827         66.0759         4.97157 
         2.1844         65.8689         4.93641 
        2.19054         65.4395         4.90157 
        2.19666         65.0939         4.86712 
         2.2028         64.9372         4.83297 
        2.20893          64.478         4.79913 
        2.21508          64.312         4.76557 
        2.22122         63.9388         4.73232 
        2.22736         63.4851         4.69946 
        2.23349          63.375         4.66691 
        2.23962         63.0091         4.63466 
        2.24577         62.7286         4.60268 
         2.2519         62.4263         4.57104 
        2.25802         62.1283         4.53975 
        2.26417         61.7843         4.50867 
        2.27031          61.452         4.47784 
        2.27644         61.1296          4.4474 
        2.28257         60.8266         4.41723 
        2.28872         60.6365         4.38729 
        2.29486         60.1571         4.35763 
        2.30099         59.8933         4.32831 
        2.30712         59.7105         4.29924 
        2.31326         59.3472         4.27038 
         2.3194         59.0918         4.24181 
        2.32553         58.9176         4.21355 
        2.33166         58.4242         4.18555 
         2.3378         58.1913         4.15777 
        2.34394         57.9608         4.13023 
        2.35007         57.6451         4.10298 
        2.35619         57.3564         4.07601 
        2.36233          57.135         4.04921 
        2.36848         56.6709          4.0226 
        2.37462         56.5809         3.99629 
        2.38075          56.295         3.97023 
        2.38689         56.0123         3.94438 
        2.39303         55.7417         3.91877 
        2.39916         55.3963         3.89341 
        2.40529         55.1407         3.86827 
        2.41143         54.7639         3.84334 
        2.41757         54.6099         3.81862 
         2.4237         54.3425         3.79415 
        2.42983         54.1157         3.76991 
        2.43598         53.7781         3.74581 
        2.44211         53.5353         3.72196 
        2.44823         53.3193         3.69836 
        2.45437         53.0549         3.67491 
        2.46052         52.7914         3.65164 
        2.46665         52.5698         3.62862 
        2.47279         52.2391         3.60579 
        2.47892          51.994         3.58315 
        2.48507         51.7513         3.56068 
         2.4912         51.4667         3.53845 
