# k  (h/Mpc)    Pcb(k)  (Mpc/h)^3    Pcb_linear(k)  (Mpc/h)^3
     0.00783031         1081.78         1093.67 
       0.013688          1185.2         1186.99 
       0.019231          1075.3         1074.38 
      0.0249154         888.909         891.474 
      0.0312784         698.035         696.267 
      0.0375637         556.807         554.006 
      0.0433917         470.353         469.725 
      0.0492413         419.408         418.573 
      0.0555754         381.082         382.432 
      0.0619321         350.883         349.605 
       0.067871         313.258         313.963 
      0.0738098         273.076         273.552 
      0.0800417         230.847         231.371 
      0.0862327         196.222         195.809 
      0.0921407         171.631         170.877 
      0.0982031         154.454         154.291 
       0.104506         145.108         144.038 
       0.110769         137.673          137.07 
       0.116806         130.093         130.104 
       0.122832         121.556         121.121 
       0.129052         109.755         109.749 
       0.135211         97.9597         97.7975 
       0.141259         87.7933         87.1114 
       0.147318         79.5593         78.6096 
       0.153489          73.212         72.5136 
       0.159709         69.1561         68.4945 
       0.165845          66.626          65.686 
       0.171974         63.4438         63.0569 
       0.178125         60.4612         59.9252 
       0.184229          56.795         56.1481 
        0.19034         52.2413         51.9596 
       0.196428          48.486         47.8525 
       0.202534         45.2306         44.2321 
       0.208729         42.0845         41.3009 
       0.214876         39.7159         39.1126 
       0.220989         38.2464         37.4441 
       0.227147         36.5202         35.9943 
        0.23329         35.0449         34.5338 
       0.239377         33.5412         32.9421 
       0.245482         31.6019         31.2018 
       0.251667         30.0691         29.3955 
       0.257832         28.3271         27.6868 
       0.263955         26.8712         26.1838 
       0.270079          25.596         24.9156 
        0.27624         24.6573         23.8502 
       0.282372         23.7403         22.9322 
        0.28843         22.7648         22.0875 
       0.294538         21.8728         21.2384 
       0.300721          21.117          20.356 
        0.30691          20.101         19.4567 
       0.313033          19.233         18.5833 
       0.319153         18.2525           17.76 
       0.325316         17.7414         17.0059 
        0.33145         17.0137         16.3352 
       0.337538         16.4259         15.7377 
       0.343633         15.7936         15.1878 
       0.349808         15.3126         14.6572 
       0.355968         14.8023         14.1401 
       0.362074          14.262         13.6326 
       0.368217         13.7567         13.1312 
       0.374374         13.2253         12.6456 
       0.380519         12.8162         12.1859 
       0.386598          12.413         11.7616 
       0.392688         12.0624         11.3665 
        0.39888         11.6388         10.9919 
       0.405048         11.2981         10.6402 
       0.411186         10.9685         10.3046 
       0.417313         10.6015         9.98003 
       0.423458         10.2965         9.66396 
       0.429607         9.96217         9.35708 
       0.435692         9.64984         9.06458 
       0.441815         9.37857          8.7836 
       0.447964          9.1559         8.51577 
       0.454126         8.82957         8.26097 
       0.460267         8.61178         8.01962 
       0.466387         8.33369         7.78997 
        0.47254         8.14071         7.56792 
       0.478662         7.95545         7.35434 
       0.484765         7.69601         7.14843 
       0.490885         7.50334          6.9491 
       0.497035         7.36853         6.75603 
       0.503198         7.14339            6.57 
       0.509342         6.96315         6.39199 
       0.515458         6.77473         6.22217 
       0.521598         6.61957         6.05856 
       0.527764         6.43296         5.90042 
       0.533884         6.31893         5.74894 
           0.54         6.15224          5.6026 
       0.546137          6.0164         5.46064 
       0.552299         5.88333          5.3229 
       0.558452         5.70797         5.19009 
       0.564573         5.60337         5.06247 
       0.570708         5.47283         4.93893 
       0.576825         5.33163         4.81999 
       0.582926         5.22389         4.70545 
       0.589034          5.0726         4.59462 
       0.595184         4.98055          4.4867 
       0.601379         4.86061         4.38152 
       0.607522         4.77974         4.28048 
       0.613639         4.69687         4.18298 
       0.619772         4.56242         4.08823 
       0.625918         4.49998         3.99623 
       0.632068         4.42139         3.90705 
       0.638161         4.30376         3.82143 
         0.6443         4.21331         3.73783 
       0.650464         4.11497         3.65646 
       0.656582         4.06389         3.57812 
       0.662703         3.97869         3.50206 
       0.668861         3.90659         3.42778 
       0.675024         3.82008         3.35558 
       0.681124         3.74239         3.28618 
       0.687237         3.68089          3.2186 
       0.693381         3.61373         3.15261 
       0.699536          3.5166         3.08837 
       0.705665         3.46297         3.02621 
       0.711789         3.40306         2.96583 
       0.717957         3.33245          2.9067 
        0.72409         3.27257         2.84951 
       0.730186          3.2166         2.79422 
       0.736317         3.17983          2.7401 
       0.742472         3.12199         2.68721 
       0.748622         3.05833         2.63577 
        0.75476         2.99517         2.58578 
       0.760888         2.94496         2.53717 
       0.767043         2.90711         2.48962 
       0.773185         2.84276         2.44338 
       0.779291         2.80773         2.39859 
       0.785407         2.75688         2.35485 
       0.791564         2.71626         2.31193 
       0.797719         2.66992         2.27011 
       0.803834         2.63705         2.22958 
       0.809972          2.5937         2.18991 
       0.816124          2.5412         2.15111 
       0.822261         2.49225         2.11336 
       0.828378         2.46011         2.07664 
       0.834502         2.43408         2.04075 
       0.840667         2.37861         2.00549 
       0.846816         2.33952         1.97116 
       0.852925         2.31791         1.93785 
       0.859047          2.2793         1.90524 
       0.865192         2.24577         1.87328 
       0.871341         2.21697         1.84203 
       0.877463          2.1838         1.81163 
       0.883569         2.14241         1.78201 
       0.889708         2.10957         1.75289 
       0.895864         2.07688         1.72435 
       0.902008         2.04754         1.69651 
       0.908149         2.02405          1.6693 
       0.914301         1.98418         1.64264 
       0.920448         1.95796         1.61659 
       0.926574          1.9278          1.5912 
       0.932687         1.90174         1.56641 
       0.938823         1.88001         1.54206 
       0.944975         1.85367         1.51817 
       0.951105         1.82988         1.49487 
       0.957225          1.8151          1.4721 
       0.963368           1.786         1.44973 
       0.969511          1.7572         1.42782 
       0.975621         1.73091         1.40648 
       0.981748         1.71308         1.38553 
       0.987916         1.68768         1.36487 
        0.99406         1.65869         1.34471 
        1.00019         1.64228         1.32499 
        1.00632         1.61975         1.30569 
        1.01246         1.59928         1.28674 
        1.01859         1.57945          1.2682 
        1.02471         1.55816         1.25005 
        1.03085         1.53854         1.23219 
        1.03698         1.51658         1.21472 
        1.04314         1.50079         1.19751 
        1.04929         1.48116         1.18067 
        1.05541         1.46339         1.16423 
        1.06154         1.44404         1.14806 
        1.06769         1.43063         1.13217 
        1.07382         1.40834         1.11663 
        1.07993         1.38803         1.10142 
        1.08607         1.37963         1.08644 
        1.09222         1.35853         1.07171 
        1.09836         1.34671         1.05728 
        1.10449         1.33055         1.04313 
        1.11063         1.30917         1.02922 
        1.11677         1.29533         1.01557 
         1.1229         1.28083         1.00219 
        1.12903         1.26456        0.989045 
        1.13518         1.25192        0.976122 
        1.14131         1.23403        0.963437 
        1.14745         1.21356        0.950984 
        1.15359         1.20591        0.938749 
        1.15973         1.18696        0.926725 
        1.16584         1.18115        0.914964 
        1.17197         1.16595        0.903391 
        1.17811         1.15574        0.891983 
        1.18424         1.14287        0.880804 
        1.19038         1.12807        0.869784 
        1.19652         1.11486        0.858956 
        1.20267          1.1056        0.848313 
        1.20881         1.09082        0.837852 
        1.21495         1.08151        0.827583 
        1.22108         1.06969        0.817488 
         1.2272         1.06074        0.807585 
        1.23334         1.04582        0.797823 
        1.23949         1.03398        0.788198 
        1.24562         1.02567         0.77876 
        1.25174         1.01407        0.769489 
        1.25789         1.00407        0.760341 
        1.26402        0.990893        0.751358 
        1.27014        0.981142        0.742541 
        1.27628         0.97544        0.733839 
        1.28244        0.960876        0.725259 
        1.28858        0.952789        0.716828 
        1.29471        0.942167        0.708549 
        1.30084        0.930893        0.700409 
        1.30697        0.924397        0.692384 
        1.31312        0.910461        0.684472 
        1.31925          0.9046         0.67671 
        1.32537        0.895198        0.669075 
        1.33151        0.888403         0.66153 
        1.33765        0.877449        0.654107 
        1.34378        0.868757        0.646811 
        1.34992        0.862468        0.639622 
        1.35606        0.850259        0.632527 
         1.3622         0.84532        0.625551 
        1.36833        0.835824        0.618697 
        1.37445        0.825692         0.61195 
        1.38059        0.820213        0.605282 
        1.38675         0.81587        0.598697 
        1.39288         0.80516        0.592237 
        1.39901        0.796697        0.585875 
        1.40515         0.78978        0.579591 
         1.4113        0.782329        0.573402 
        1.41742        0.775294        0.567327 
        1.42355         0.77116        0.561329 
         1.4297        0.760785        0.555398 
        1.43585        0.754523        0.549556 
        1.44198        0.750346         0.54382 
        1.44809        0.740672        0.538176 
        1.45423        0.734493        0.532591 
        1.46036        0.727697        0.527096 
        1.46649        0.721475        0.521675 
        1.47263        0.714143        0.516327 
        1.47877        0.707297        0.511055 
        1.48491        0.701374        0.505848 
        1.49104        0.695132        0.500725 
        1.49718        0.690288        0.495668 
        1.50333        0.682388        0.490673 
        1.50947        0.678188        0.485757 
         1.5156        0.671581        0.480915 
        1.52172        0.665436        0.476139 
        1.52787        0.658971        0.471419 
          1.534        0.654058        0.466767 
        1.54013        0.647455        0.462184 
        1.54627        0.642042        0.457653 
        1.55241        0.636149        0.453182 
        1.55855        0.631567        0.448777 
        1.56467        0.627504        0.444443 
         1.5708        0.619864        0.440154 
        1.57695        0.617081        0.435914 
        1.58308        0.611359         0.43174 
        1.58922        0.605858        0.427618 
        1.59535         0.60097        0.423551 
         1.6015        0.595613        0.419531 
        1.60764        0.592018        0.415565 
        1.61376        0.586589        0.411661 
        1.61989        0.581778        0.407804 
        1.62604        0.576117        0.403988 
        1.63218        0.573435        0.400223 
        1.63831        0.567892        0.396514 
        1.64444        0.563071        0.392851 
        1.65059        0.558789        0.389225 
        1.65673        0.553268        0.385649 
        1.66285        0.549652        0.382128 
        1.66898        0.547203        0.378649 
        1.67512        0.540229        0.375207 
        1.68127        0.536222        0.371804 
         1.6874        0.534191        0.368451 
        1.69353        0.528189        0.365141 
        1.69967        0.523565        0.361863 
        1.70581        0.521075        0.358627 
        1.71193        0.516437        0.355443 
        1.71806        0.513357        0.352291 
        1.72421        0.508819         0.34917 
        1.73035        0.504022        0.346091 
        1.73649        0.501787        0.343049 
        1.74262        0.497548        0.340046 
        1.74876        0.493051        0.337077 
        1.75489        0.488502        0.334149 
        1.76101        0.485734        0.331257 
        1.76715        0.482274        0.328395 
        1.77329        0.479213        0.325563 
        1.77943        0.474263        0.322763 
        1.78557        0.470889        0.320001 
        1.79171        0.468626         0.31727 
        1.79785        0.464396         0.31457 
        1.80399        0.461416        0.311902 
        1.81012        0.458341        0.309268 
        1.81625        0.454641        0.306666 
        1.82239         0.45181         0.30409 
        1.82853        0.446924        0.301545 
        1.83466        0.444422        0.299031 
        1.84078         0.44085        0.296549 
        1.84692        0.439046         0.29409 
        1.85306        0.436045        0.291656 
         1.8592        0.432554        0.289254 
        1.86533        0.429466         0.28688 
        1.87147        0.426584        0.284529 
        1.87761        0.423206        0.282204 
        1.88375        0.419847        0.279908 
        1.88988        0.417829        0.277639 
        1.89601        0.414158        0.275395 
        1.90215        0.411386        0.273173 
        1.90829        0.408037        0.270977 
        1.91442        0.405943        0.268804 
        1.92056        0.403067        0.266658 
         1.9267         0.39982        0.264532 
        1.93284        0.398323        0.262428 
        1.93897        0.394397        0.260352 
        1.94509        0.392431        0.258302 
        1.95123        0.389195        0.256268 
        1.95737        0.386999        0.254255 
        1.96349        0.383688        0.252269 
        1.96964        0.381861        0.250298 
        1.97578        0.378816        0.248347 
        1.98192        0.377032        0.246421 
        1.98805        0.373837        0.244515 
        1.99419        0.372146        0.242629 
        2.00033        0.370347        0.240762 
        2.00647        0.366669        0.238915 
         2.0126        0.364612         0.23709 
        2.01874        0.362506        0.235282 
        2.02488         0.36045        0.233491 
        2.03101        0.356814        0.231721 
        2.03714        0.354216        0.229972 
        2.04328        0.353638        0.228239 
        2.04941        0.350717        0.226524 
        2.05554        0.348198        0.224829 
        2.06167        0.345881        0.223149 
        2.06781        0.343342        0.221485 
        2.07396        0.340959        0.219836 
        2.08009        0.339185        0.218207 
        2.08622        0.337118        0.216595 
        2.09237        0.335698        0.214997 
        2.09851        0.333432        0.213415 
        2.10464        0.331552        0.211851 
        2.11077        0.329407        0.210305 
        2.11691         0.32679         0.20877 
        2.12305        0.324984        0.207251 
        2.12918        0.323366        0.205751 
        2.13531        0.320745        0.204265 
        2.14145          0.3194         0.20279 
         2.1476        0.316845        0.201328 
        2.15372        0.315677        0.199888 
        2.15985        0.312933         0.19846 
        2.16599        0.310715        0.197043 
        2.17213        0.309406         0.19564 
        2.17827        0.308123        0.194252 
         2.1844        0.306187        0.192878 
        2.19054        0.304371        0.191517 
        2.19666        0.302219         0.19017 
         2.2028        0.300519        0.188836 
        2.20893        0.299101        0.187514 
        2.21508        0.297139        0.186203 
        2.22122         0.29416        0.184903 
        2.22736        0.293192        0.183619 
        2.23349        0.292305        0.182348 
        2.23962        0.290233        0.181088 
        2.24577        0.287895        0.179838 
         2.2519        0.286548        0.178602 
        2.25802        0.284574        0.177379 
        2.26417         0.28305        0.176165 
        2.27031        0.281332         0.17496 
        2.27644        0.280094        0.173771 
        2.28257        0.278609        0.172592 
        2.28872         0.27674        0.171422 
        2.29486        0.275034        0.170264 
        2.30099         0.27332        0.169118 
        2.30712        0.271982        0.167982 
        2.31326        0.270533        0.166855 
         2.3194        0.269831        0.165738 
        2.32553        0.268011        0.164634 
        2.33166        0.266426         0.16354 
         2.3378        0.265066        0.162455 
        2.34394        0.262694        0.161379 
        2.35007        0.261639        0.160314 
        2.35619        0.260497         0.15926 
        2.36233        0.258398        0.158213 
        2.36848        0.257386        0.157173 
        2.37462        0.255643        0.156145 
        2.38075          0.2549        0.155127 
        2.38689        0.253229        0.154117 
        2.39303        0.252042        0.153116 
        2.39916        0.250051        0.152125 
        2.40529        0.249161        0.151143 
        2.41143        0.247862        0.150169 
        2.41757        0.246639        0.149203 
         2.4237         0.24537        0.148247 
        2.42983        0.244043          0.1473 
        2.43598        0.242879        0.146358 
        2.44211        0.241656        0.145426 
        2.44823        0.240209        0.144505 
        2.45437        0.238696        0.143588 
        2.46052        0.237864        0.142679 
        2.46665        0.236291        0.141779 
        2.47279        0.235089        0.140888 
        2.47892        0.233683        0.140003 
        2.48507        0.232634        0.139125 
         2.4912         0.23161        0.138256 
