# k  (h/Mpc)    P(k)  (Mpc/h)^3    P_linear(k)  (Mpc/h)^3
     0.00783031         8023.87         8133.92 
       0.013688         10138.2         10088.3 
       0.019231         10348.6         10340.4 
      0.0249154         9569.33         9720.37 
      0.0312784          8513.9         8580.75 
      0.0375637         7417.57         7418.32 
      0.0433917         6422.38          6506.7 
      0.0492413         5779.08         5807.73 
      0.0555754         5150.26          5265.2 
      0.0619321         4881.33          4866.9 
       0.067871         4462.23         4550.06 
      0.0738098          4146.4          4231.4 
      0.0800417         3756.72         3868.71 
      0.0862327         3420.22         3486.01 
      0.0921407         3105.06         3125.86 
      0.0982031         2761.82         2791.64 
       0.104506         2545.09         2505.02 
       0.110769         2327.69         2288.78 
       0.116806         2162.56         2137.24 
       0.122832         2059.71         2024.78 
       0.129052         1926.81         1928.34 
       0.135211         1836.22         1833.86 
       0.141259         1756.89         1731.11 
       0.147318         1655.38         1616.28 
       0.153489         1520.03         1492.71 
       0.159709         1423.74         1371.28 
       0.165845         1347.58          1263.9 
       0.171974         1254.94         1174.72 
       0.178125         1188.52         1104.51 
       0.184229         1137.73         1051.03 
        0.19034         1067.46         1008.19 
       0.196428          1049.7         970.027 
       0.202534          1017.5         931.149 
       0.208729         968.629         888.112 
       0.214876         918.545         841.557 
       0.220989          887.09         793.359 
       0.227147         837.562         745.907 
        0.23329         800.124          702.52 
       0.239377         779.232         665.227 
       0.245482         726.843         633.977 
       0.251667         719.114         607.798 
       0.257832         693.611         585.498 
       0.263955         671.085         565.203 
       0.270079         647.716         545.122 
        0.27624         639.593         524.157 
       0.282372         612.852         502.384 
        0.28843         596.763         480.435 
       0.294538         567.972         458.723 
       0.300721         563.288         438.048 
        0.30691         536.927         419.302 
       0.313033          525.62         402.895 
       0.319153         508.559         388.444 
       0.325316         494.096         375.401 
        0.33145         479.857          363.34 
       0.337538         473.668         351.751 
       0.343633         458.451         340.198 
       0.349808         443.693         328.406 
       0.355968         438.785         316.662 
       0.362074         429.346         305.244 
       0.368217         417.593         294.256 
       0.374374         401.667         283.936 
       0.380519         397.233         274.431 
       0.386598         387.565         265.792 
       0.392688         384.384         257.771 
        0.39888          373.56         250.107 
       0.405048         365.798         242.786 
       0.411186         358.434         235.675 
       0.417313         351.859         228.699 
       0.423458         345.415         221.809 
       0.429607         338.013         215.076 
       0.435692         329.417         208.647 
       0.441815          326.98         202.463 
       0.447964          320.63         196.577 
       0.454126         309.502         191.022 
       0.460267         305.691         185.787 
       0.466387         302.133         180.821 
        0.47254         295.744         176.032 
       0.478662         294.412         171.425 
       0.484765         285.515         166.948 
       0.490885         282.025         162.571 
       0.497035         277.624         158.292 
       0.503198         271.576         154.137 
       0.509342         269.074         150.138 
       0.515458          265.62         146.314 
       0.521598         261.049          142.64 
       0.527764         256.814         139.106 
       0.533884          253.88         135.736 
           0.54         250.236          132.49 
       0.546137          249.01         129.342 
       0.552299          244.03         126.277 
       0.558452          241.28         123.303 
       0.564573         237.405         120.425 
       0.570708         233.196         117.623 
       0.576825         230.171         114.918 
       0.582926         227.308         112.308 
       0.589034         224.653         109.783 
       0.595184         222.411         107.325 
       0.601379         220.134         104.932 
       0.607522         215.719         102.636 
       0.613639         214.752         100.422 
       0.619772         209.981         98.2683 
       0.625918         208.438          96.171 
       0.632068         205.813         94.1293 
       0.638161         204.683         92.1616 
         0.6443         201.442         90.2346 
       0.650464         199.485          88.356 
       0.656582         197.797         86.5465 
       0.662703         195.524         84.7895 
       0.668861         192.472         83.0732 
       0.675024          190.35         81.4044 
       0.681124         189.494         79.7989 
       0.687237         186.456         78.2336 
       0.693381         183.884         76.7029 
       0.699536         182.596         75.2105 
       0.705665         182.234         73.7642 
       0.711789         178.719         72.3573 
       0.717957         178.082         70.9774 
        0.72409         175.763         69.6413 
       0.730186         173.263         68.3477 
       0.736317         172.068         67.0801 
       0.742472         171.097         65.8404 
       0.748622         169.673         64.6334 
        0.75476         168.214         63.4597 
       0.760888         165.846         62.3173 
       0.767043         165.121         61.1988 
       0.773185         163.354         60.1103 
       0.779291         160.811         59.0548 
       0.785407         160.127         58.0231 
       0.791564         158.672         57.0098 
       0.797719          156.55         56.0212 
       0.803834         155.848         55.0624 
       0.809972         154.172         54.1227 
       0.816124         154.039         53.2029 
       0.822261         152.002         52.3072 
       0.828378         150.638         51.4348 
       0.834502          150.33         50.5817 
       0.840667         148.065         49.7426 
       0.846816         146.883          48.925 
       0.852925         145.948          48.131 
       0.859047         144.297         47.3531 
       0.865192           143.5         46.5899 
       0.871341         142.061          45.843 
       0.877463         140.986         45.1161 
       0.883569         139.969         44.4068 
       0.889708         138.992         43.7091 
       0.895864         137.587         43.0248 
       0.902008         136.742         42.3566 
       0.908149          136.09          41.703 
       0.914301         134.614         41.0622 
       0.920448         133.707         40.4356 
       0.926574         132.938         39.8243 
       0.932687         132.397         39.2269 
       0.938823         130.552         38.6397 
       0.944975         129.437         38.0632 
       0.951105         128.859         37.5007 
       0.957225         127.351         36.9504 
       0.963368         126.492         36.4094 
       0.969511         126.141         35.8793 
       0.975621         125.555         35.3626 
       0.981748         124.664         34.8548 
       0.987916         123.287         34.3539 
        0.99406         122.618         33.8647 
        1.00019         121.899          33.386 
        1.00632         121.012         32.9171 
        1.01246         120.176         32.4565 
        1.01859         118.833         32.0055 
        1.02471         118.735         31.5637 
        1.03085         117.535         31.1287 
        1.03698         116.784         30.7029 
        1.04314         115.792         30.2832 
        1.04929         115.112         29.8724 
        1.05541         114.403         29.4709 
        1.06154         113.732         29.0759 
        1.06769         113.456         28.6875 
        1.07382         112.761         28.3074 
        1.07993         111.857         27.9352 
        1.08607         110.985         27.5681 
        1.09222         110.492         27.2072 
        1.09836         109.586         26.8533 
        1.10449         108.928         26.5061 
        1.11063         108.281         26.1646 
        1.11677           107.8         25.8293 
         1.1229          106.63         25.5005 
        1.12903         105.878         25.1771 
        1.13518         106.066         24.8591 
        1.14131          105.05         24.5468 
        1.14745          104.25           24.24 
        1.15359         103.659         23.9383 
        1.15973         103.337         23.6418 
        1.16584         102.449         23.3515 
        1.17197         101.894         23.0658 
        1.17811         101.252         22.7839 
        1.18424         100.616         22.5076 
        1.19038           100.1         22.2351 
        1.19652         99.5573         21.9672 
        1.20267         98.8004         21.7038 
        1.20881          98.244         21.4447 
        1.21495         97.5891         21.1903 
        1.22108         97.0811         20.9401 
         1.2272         96.3389         20.6944 
        1.23334         95.9712         20.4522 
        1.23949         95.1328         20.2133 
        1.24562         94.9377         19.9789 
        1.25174         94.1928         19.7486 
        1.25789         93.7791         19.5212 
        1.26402         93.3743         19.2978 
        1.27014          92.558         19.0784 
        1.27628         92.2966         18.8618 
        1.28244         91.5357         18.6482 
        1.28858         91.1919         18.4381 
        1.29471         90.5911         18.2318 
        1.30084         90.0802         18.0288 
        1.30697         89.5782         17.8286 
        1.31312         89.1894         17.6312 
        1.31925         88.6671         17.4373 
        1.32537         88.3058         17.2466 
        1.33151         87.4447         17.0581 
        1.33765         87.0187         16.8725 
        1.34378         86.4905           16.69 
        1.34992         86.3201         16.5101 
        1.35606         85.8043         16.3324 
         1.3622          85.029         16.1577 
        1.36833         84.8933         15.9859 
        1.37445         84.2891         15.8168 
        1.38059         83.7421         15.6496 
        1.38675         83.2416         15.4844 
        1.39288         82.7835         15.3222 
        1.39901         82.6805         15.1624 
        1.40515         82.1679         15.0046 
         1.4113         81.5085         14.8491 
        1.41742         81.4057         14.6963 
        1.42355         80.6744         14.5455 
         1.4297          80.336         14.3963 
        1.43585         79.7528         14.2492 
        1.44198         79.5331         14.1048 
        1.44809         79.0367         13.9626 
        1.45423         78.6016         13.8219 
        1.46036         78.3732         13.6834 
        1.46649         77.8628         13.5467 
        1.47263          77.427         13.4118 
        1.47877         77.2044         13.2788 
        1.48491         76.7192         13.1473 
        1.49104         76.2452          13.018 
        1.49718         75.8045         12.8902 
        1.50333         75.4333          12.764 
        1.50947         74.9859         12.6398 
         1.5156         74.7392         12.5174 
        1.52172         74.3053         12.3966 
        1.52787         74.1262         12.2771 
          1.534         73.6533         12.1594 
        1.54013         73.1196         12.0433 
        1.54627         72.8484         11.9286 
        1.55241         72.4089         11.8153 
        1.55855         72.0691         11.7036 
        1.56467         71.5759         11.5937 
         1.5708         71.4002         11.4849 
        1.57695         71.1421         11.3774 
        1.58308         70.5227         11.2714 
        1.58922         70.4395         11.1668 
        1.59535         70.1585         11.0635 
         1.6015         69.5312         10.9613 
        1.60764         69.3512         10.8606 
        1.61376         68.9024         10.7613 
        1.61989         68.5473         10.6632 
        1.62604         68.3349         10.5661 
        1.63218         68.0744         10.4703 
        1.63831         67.6129         10.3759 
        1.64444         67.2833         10.2826 
        1.65059         66.7816         10.1903 
        1.65673         66.6204         10.0991 
        1.66285         66.2626         10.0094 
        1.66898         65.9426         9.92067 
        1.67512         65.5123         9.83288 
        1.68127         65.1953         9.74606 
         1.6874         64.9723         9.66049 
        1.69353         64.6428           9.576 
        1.69967         64.2578         9.49231 
        1.70581         64.1299         9.40967 
        1.71193         63.8671         9.32832 
        1.71806         63.2626         9.24775 
        1.72421         63.1696         9.16798 
        1.73035         62.7757         9.08924 
        1.73649         62.3792         9.01144 
        1.74262         62.2265         8.93462 
        1.74876         61.9118         8.85864 
        1.75489         61.5303         8.78369 
        1.76101         61.3347         8.70964 
        1.76715         60.9178         8.63634 
        1.77329         60.7086         8.56379 
        1.77943         60.3478         8.49204 
        1.78557         60.1758         8.42122 
        1.79171          59.815          8.3512 
        1.79785         59.6068         8.28196 
        1.80399         59.2821         8.21351 
        1.81012         59.1134         8.14594 
        1.81625         58.5614         8.07915 
        1.82239         58.3622         8.01301 
        1.82853         58.0003         7.94764 
        1.83466         57.8546         7.88306 
        1.84078         57.4179         7.81927 
        1.84692         57.1721         7.75609 
        1.85306         56.9845         7.69352 
         1.8592         56.5845         7.63174 
        1.86533         56.4249         7.57067 
        1.87147         56.1156          7.5102 
        1.87761         55.9051         7.45037 
        1.88375         55.6708         7.39125 
        1.88988         55.5484         7.33284 
        1.89601         55.0824         7.27502 
        1.90215          54.865         7.21779 
        1.90829         54.7034         7.16119 
        1.91442         54.3695          7.1052 
        1.92056         54.0356         7.04985 
         1.9267          53.777         6.99504 
        1.93284         53.5545         6.94077 
        1.93897          53.282         6.88719 
        1.94509         52.9455         6.83428 
        1.95123         52.8524          6.7818 
        1.95737         52.6023         6.72982 
        1.96349         52.2928         6.67853 
        1.96964         52.1796         6.62762 
        1.97578         51.8202         6.57722 
        1.98192         51.6267         6.52745 
        1.98805         51.4513         6.47818 
        1.99419         51.0747         6.42942 
        2.00033         50.8619         6.38114 
        2.00647         50.6694         6.33336 
         2.0126         50.3545         6.28615 
        2.01874         50.1535         6.23936 
        2.02488         50.0199         6.19299 
        2.03101         49.6871         6.14719 
        2.03714         49.4532         6.10189 
        2.04328         49.2035         6.05699 
        2.04941         48.9348         6.01258 
        2.05554         48.6419         5.96865 
        2.06167         48.6094         5.92509 
        2.06781         48.3623         5.88197 
        2.07396         48.0492         5.83921 
        2.08009         47.8938         5.79695 
        2.08622          47.576         5.75515 
        2.09237          47.402         5.71369 
        2.09851         47.1819         5.67263 
        2.10464         46.9616         5.63203 
        2.11077         46.8001         5.59189 
        2.11691          46.513         5.55204 
        2.12305         46.2399         5.51258 
        2.12918          46.044          5.4736 
        2.13531         45.8299           5.435 
        2.14145         45.6688         5.39667 
         2.1476         45.4688         5.35867 
        2.15372         45.1744         5.32123 
        2.15985         45.0184          5.2841 
        2.16599         44.9053         5.24723 
        2.17213         44.7469         5.21074 
        2.17827         44.4329         5.17461 
         2.1844         44.1723         5.13885 
        2.19054         43.9587         5.10342 
        2.19666         43.8021         5.06837 
         2.2028         43.6271         5.03362 
        2.20893         43.4691         4.99918 
        2.21508         43.2835         4.96502 
        2.22122         43.0092         4.93116 
        2.22736         42.8112          4.8977 
        2.23349         42.6861         4.86455 
        2.23962         42.3449         4.83169 
        2.24577         42.1922          4.7991 
         2.2519         41.9859         4.76686 
        2.25802          41.939         4.73497 
        2.26417         41.6602         4.70328 
        2.27031         41.5327         4.67185 
        2.27644         41.1841          4.6408 
        2.28257         41.0972         4.61003 
        2.28872         40.8123         4.57948 
        2.29486         40.6978         4.54922 
        2.30099         40.5419         4.51928 
        2.30712         40.3489         4.48961 
        2.31326         40.1854         4.46015 
         2.3194         39.9526         4.43097 
        2.32553         39.8032          4.4021 
        2.33166         39.6127          4.3735 
         2.3378         39.3825         4.34512 
        2.34394         39.1265         4.31698 
        2.35007         39.0048         4.28912 
        2.35619         38.9503         4.26155 
        2.36233         38.7903         4.23415 
        2.36848          38.458         4.20693 
        2.37462         38.4253         4.18001 
        2.38075         38.1946         4.15336 
        2.38689         38.1217         4.12691 
        2.39303         37.8956         4.10069 
        2.39916         37.6881         4.07473 
        2.40529         37.4262           4.049 
        2.41143         37.3665         4.02347 
        2.41757         37.2378         3.99815 
         2.4237         37.0509         3.97309 
        2.42983         36.8891         3.94825 
        2.43598         36.6503         3.92356 
        2.44211         36.5191         3.89911 
        2.44823         36.3625         3.87493 
        2.45437         36.2531         3.85089 
        2.46052         35.9951         3.82703 
        2.46665         35.9092         3.80342 
        2.47279         35.7402         3.78001 
        2.47892         35.5267         3.75679 
        2.48507         35.3949         3.73373 
         2.4912         35.2423         3.71092 
