# k  (h/Mpc)    Pcb(k)  (Mpc/h)^3    Pcb_linear(k)  (Mpc/h)^3
     0.00783031         11291.2         11340.4 
       0.013688         14195.9         14538.7 
       0.019231         15029.8         15246.7 
      0.0249154         14591.4         14599.4 
      0.0312784         12951.6         13111.2 
      0.0375637         11277.5         11506.4 
      0.0433917         10123.7         10221.7 
      0.0492413         9059.07         9228.87 
      0.0555754         8351.24         8453.68 
      0.0619321         7547.14         7874.39 
       0.067871         7185.87         7396.86 
      0.0738098         6747.23         6899.48 
      0.0800417         6194.94         6322.36 
      0.0862327         5575.36         5711.47 
      0.0921407         5047.33         5140.38 
      0.0982031         4602.15         4616.69 
       0.104506         4117.51         4174.44 
       0.110769            3818         3845.91 
       0.116806         3656.78         3617.22 
       0.122832         3441.62         3444.49 
       0.129052         3279.05         3288.66 
       0.135211         3177.64         3127.43 
       0.141259         2956.43         2947.78 
       0.147318         2735.65         2747.76 
       0.153489         2573.16         2536.62 
       0.159709         2453.26         2334.66 
       0.165845         2236.06         2161.35 
       0.171974         2175.01         2021.64 
       0.178125          2098.1         1914.12 
       0.184229         1944.17         1832.34 
        0.19034         1915.82         1764.34 
       0.196428         1862.24         1699.48 
       0.202534         1750.88         1629.45 
       0.208729         1716.36         1550.17 
       0.214876          1642.4         1465.14 
       0.220989         1550.49         1379.37 
       0.227147         1509.39         1297.78 
        0.23329         1449.83         1225.92 
       0.239377         1435.14         1166.29 
       0.245482         1366.55         1117.47 
       0.251667         1317.11         1076.49 
       0.257832         1300.42         1040.36 
       0.263955            1240         1005.48 
       0.270079         1206.22         969.095 
        0.27624         1156.49         930.143 
       0.282372         1139.65          889.66 
        0.28843         1124.51         849.697 
       0.294538         1070.32         811.322 
       0.300721         1046.28         776.051 
        0.30691         1025.07         745.049 
       0.313033         984.387         718.466 
       0.319153         972.419         695.062 
       0.325316         959.605         673.443 
        0.33145         940.158         652.635 
       0.337538         908.401         631.866 
       0.343633         885.938         610.595 
       0.349808         867.686         588.784 
       0.355968         851.826         567.225 
       0.362074         825.184         546.736 
       0.368217         822.406         527.487 
       0.374374         809.706         509.845 
       0.380519         780.233         493.869 
       0.386598         774.586         479.364 
       0.392688          757.62         465.772 
        0.39888         739.048         452.472 
       0.405048         726.576         439.427 
       0.411186         724.295         426.537 
       0.417313         719.889         413.739 
       0.423458         697.376         401.138 
       0.429607         678.708         388.969 
       0.435692         671.792         377.504 
       0.441815         659.959         366.648 
       0.447964         650.152          356.46 
       0.454126           642.3         346.861 
       0.460267           632.8         337.775 
       0.466387         623.336         329.078 
        0.47254         612.931         320.568 
       0.478662         603.127         312.255 
       0.484765         597.401         304.126 
       0.490885         590.918         296.171 
       0.497035         579.905         288.413 
       0.503198         579.545         280.925 
       0.509342         567.584         273.789 
       0.515458         557.261         267.028 
       0.521598         552.306         260.544 
       0.527764         541.754         254.295 
       0.533884         538.492         248.313 
           0.54         532.611         242.522 
       0.546137         523.568         236.865 
       0.552299         522.105         231.317 
       0.558452         514.909         225.915 
       0.564573         509.668         220.694 
       0.570708          504.97         215.632 
       0.576825         495.146         210.762 
       0.582926         492.998         206.077 
       0.589034         485.937         201.548 
       0.595184          482.06         197.144 
       0.601379         474.639         192.855 
       0.607522         466.918         188.733 
       0.613639         465.637         184.744 
       0.619772         463.585         180.846 
       0.625918          455.44         177.039 
       0.632068         451.958          173.33 
       0.638161         447.704         169.758 
         0.6443         443.133         166.267 
       0.650464         438.351         162.871 
       0.656582         434.757         159.603 
       0.662703         430.998         156.429 
       0.668861         425.208         153.326 
       0.675024         422.455         150.305 
       0.681124         416.982         147.394 
       0.687237         414.948         144.553 
       0.693381         409.588         141.772 
       0.699536         407.327         139.059 
       0.705665         402.974          136.43 
       0.711789         401.634         133.872 
       0.717957         395.821         131.362 
        0.72409         391.988         128.932 
       0.730186         393.846         126.578 
       0.736317         386.802         124.272 
       0.742472         383.018         122.015 
       0.748622         379.861         119.816 
        0.75476         378.042         117.678 
       0.760888         374.656         115.595 
       0.767043         371.683         113.555 
       0.773185         369.646         111.569 
       0.779291         364.347         109.642 
       0.785407         362.909         107.758 
       0.791564         359.698         105.907 
       0.797719         354.372           104.1 
       0.803834          357.01         102.348 
       0.809972         351.473         100.629 
       0.816124         347.867         98.9472 
       0.822261         345.025         97.3082 
       0.828378         344.112         95.7116 
       0.834502         338.958         94.1496 
       0.840667         339.145         92.6127 
       0.846816         333.434         91.1146 
       0.852925         333.798         89.6594 
       0.859047         330.651         88.2331 
       0.865192         329.646         86.8335 
       0.871341          325.04         85.4635 
       0.877463         322.651         84.1296 
       0.883569         320.906         82.8278 
       0.889708         318.115         81.5471 
       0.895864         315.584         80.2904 
       0.902008           313.8          79.063 
       0.908149         311.247         77.8623 
       0.914301         309.623         76.6847 
       0.920448         307.723         75.5327 
       0.926574         305.589         74.4086 
       0.932687         303.822           73.31 
       0.938823         300.763         72.2296 
       0.944975         299.826         71.1688 
       0.951105         297.014         70.1331 
       0.957225         293.939           69.12 
       0.963368          294.19         68.1236 
       0.969511         288.762         67.1469 
       0.975621         288.354         66.1947 
       0.981748         286.845         65.2586 
       0.987916         285.347         64.3349 
        0.99406         282.795         63.4326 
        1.00019         280.525         62.5495 
        1.00632         280.154         61.6841 
        1.01246         277.865         60.8338 
        1.01859          274.63         60.0011 
        1.02471         272.877          59.185 
        1.03085         272.167         58.3814 
        1.03698         270.377         57.5945 
        1.04314          269.77         56.8189 
        1.04929         267.738         56.0594 
        1.05541         265.067         55.3169 
        1.06154         263.473         54.5862 
        1.06769         261.168         53.8676 
        1.07382         260.847         53.1643 
        1.07993         258.001         52.4753 
        1.08607          256.37         51.7957 
        1.09222         254.951         51.1275 
        1.09836         254.144          50.472 
        1.10449         251.992         49.8288 
        1.11063         250.062         49.1961 
        1.11677         248.455         48.5747 
         1.1229         247.303         47.9652 
        1.12903         245.879         47.3657 
        1.13518         244.037          46.776 
        1.14131         243.341         46.1967 
        1.14745         240.487         45.6276 
        1.15359         238.715          45.068 
        1.15973         238.139         44.5176 
        1.16584         237.011         43.9789 
        1.17197         235.247         43.4484 
        1.17811         233.344         42.9251 
        1.18424         232.083          42.412 
        1.19038          230.87         41.9058 
        1.19652         228.415          41.408 
        1.20267         227.903         40.9185 
        1.20881         226.135         40.4369 
        1.21495         225.815         39.9639 
        1.22108         224.025         39.4986 
         1.2272         221.747         39.0417 
        1.23334         221.078         38.5911 
        1.23949          220.22         38.1466 
        1.24562         218.564         37.7103 
        1.25174         217.163         37.2815 
        1.25789         215.328         36.8581 
        1.26402         215.204          36.442 
        1.27014         214.196         36.0334 
        1.27628          211.68         35.6299 
        1.28244         210.902         35.2318 
        1.28858         209.523         34.8404 
        1.29471         208.556         34.4557 
        1.30084         207.232         34.0773 
        1.30697         205.491          33.704 
        1.31312         204.403         33.3358 
        1.31925         203.229         32.9743 
        1.32537         202.624         32.6185 
        1.33151         201.252         32.2667 
        1.33765          199.63         31.9203 
        1.34378         198.823         31.5797 
        1.34992         197.558         31.2438 
        1.35606         196.465         30.9121 
         1.3622         195.469         30.5859 
        1.36833         193.636         30.2651 
        1.37445         193.622         29.9492 
        1.38059         191.746         29.6368 
        1.38675         190.573         29.3281 
        1.39288          189.51         29.0251 
        1.39901         188.432         28.7265 
        1.40515         187.672         28.4314 
         1.4113         186.182         28.1406 
        1.41742         184.695          27.855 
        1.42355           185.1         27.5728 
         1.4297         183.224         27.2937 
        1.43585         182.312         27.0186 
        1.44198         180.525         26.7483 
        1.44809         179.861         26.4823 
        1.45423         179.142         26.2189 
        1.46036         177.871         25.9596 
        1.46649         176.803         25.7037 
        1.47263         176.242          25.451 
        1.47877         174.865         25.2019 
        1.48491         173.515         24.9557 
        1.49104         171.971         24.7133 
        1.49718         171.687          24.474 
        1.50333         170.616         24.2375 
        1.50947         169.711         24.0046 
         1.5156         168.622         23.7751 
        1.52172         167.906         23.5486 
        1.52787         166.916         23.3246 
          1.534         165.924         23.1038 
        1.54013         165.058         22.8861 
        1.54627          164.02         22.6708 
        1.55241         163.364         22.4583 
        1.55855          162.59         22.2487 
        1.56467         161.268         22.0425 
         1.5708         160.052         21.8382 
        1.57695         159.593         21.6363 
        1.58308         158.427         21.4374 
        1.58922           157.9         21.2409 
        1.59535          156.67         21.0468 
         1.6015         155.725          20.855 
        1.60764          154.84         20.6657 
        1.61376         153.903         20.4792 
        1.61989         153.176         20.2949 
        1.62604         152.023         20.1124 
        1.63218         151.454         19.9323 
        1.63831         150.532         19.7548 
        1.64444         149.501         19.5795 
        1.65059         148.816         19.4058 
        1.65673         148.024         19.2344 
        1.66285         147.525         19.0656 
        1.66898         146.273         18.8988 
        1.67512         145.621         18.7336 
        1.68127         144.796         18.5703 
         1.6874         143.794         18.4093 
        1.69353         143.365         18.2503 
        1.69967         142.226         18.0928 
        1.70581         141.796         17.9372 
        1.71193         140.654         17.7841 
        1.71806         139.627         17.6324 
        1.72421         139.247         17.4822 
        1.73035         138.421         17.3339 
        1.73649         137.313         17.1874 
        1.74262         137.031         17.0427 
        1.74876         136.075         16.8995 
        1.75489         135.414         16.7583 
        1.76101          134.52         16.6188 
        1.76715         133.535         16.4806 
        1.77329         133.054         16.3439 
        1.77943         132.004         16.2086 
        1.78557         131.668         16.0751 
        1.79171         130.945          15.943 
        1.79785         129.773         15.8125 
        1.80399         129.322         15.6834 
        1.81012         128.256         15.5559 
        1.81625         128.011         15.4299 
        1.82239         127.168         15.3051 
        1.82853         126.618         15.1818 
        1.83466         125.623         15.0599 
        1.84078         125.162         14.9395 
        1.84692           124.8         14.8202 
        1.85306         123.726         14.7021 
         1.8592         123.219         14.5855 
        1.86533         122.209         14.4702 
        1.87147          121.96          14.356 
        1.87761         120.888          14.243 
        1.88375         120.127         14.1313 
        1.88988         119.445          14.021 
        1.89601         119.243         13.9117 
        1.90215         118.674         13.8036 
        1.90829         117.544         13.6967 
        1.91442          116.75         13.5908 
        1.92056         116.335         13.4862 
         1.9267          115.61         13.3826 
        1.93284         115.021         13.2801 
        1.93897         114.455         13.1787 
        1.94509         113.786         13.0787 
        1.95123         113.209         12.9795 
        1.95737         112.759         12.8812 
        1.96349         112.104         12.7842 
        1.96964         111.349         12.6879 
        1.97578         110.796         12.5925 
        1.98192         110.341         12.4984 
        1.98805         109.608         12.4051 
        1.99419         108.901         12.3129 
        2.00033         108.366         12.2215 
        2.00647          107.88         12.1311 
         2.0126         107.249         12.0417 
        2.01874         107.057         11.9531 
        2.02488         105.933         11.8654 
        2.03101         105.618         11.7786 
        2.03714         104.926         11.6928 
        2.04328         104.543         11.6078 
        2.04941         104.044         11.5237 
        2.05554         103.412         11.4405 
        2.06167          102.51          11.358 
        2.06781             102         11.2763 
        2.07396          101.66         11.1953 
        2.08009         100.808         11.1152 
        2.08622         100.579          11.036 
        2.09237         99.9898         10.9574 
        2.09851         99.3624         10.8796 
        2.10464         99.0314         10.8026 
        2.11077         98.3916         10.7265 
        2.11691         98.0719          10.651 
        2.12305         97.3654         10.5761 
        2.12918         96.8684         10.5022 
        2.13531         96.3595          10.429 
        2.14145         95.6973         10.3563 
         2.1476         95.3445         10.2842 
        2.15372         94.7353         10.2132 
        2.15985         94.2542         10.1428 
        2.16599         93.6329         10.0728 
        2.17213         93.3066         10.0036 
        2.17827         92.5924         9.93498 
         2.1844         92.3356         9.86711 
        2.19054         91.7854         9.79986 
        2.19666         91.2927         9.73333 
         2.2028         90.8912         9.66735 
        2.20893         90.3464         9.60196 
        2.21508         89.8081          9.5371 
        2.22122          89.342         9.47281 
        2.22736         89.0459         9.40925 
        2.23349         88.4052         9.34629 
        2.23962         87.9956         9.28388 
        2.24577         87.5716         9.22198 
         2.2519         87.0397         9.16073 
        2.25802         86.5538         9.10013 
        2.26417         86.1095         9.03991 
        2.27031         85.5676         8.98019 
        2.27644         85.2439         8.92118 
        2.28257         84.7806          8.8627 
        2.28872         84.3781         8.80463 
        2.29486         84.1227          8.7471 
        2.30099         83.3312          8.6902 
        2.30712         83.1282         8.63378 
        2.31326         82.7013         8.57777 
         2.3194         82.1012         8.52229 
        2.32553         81.6971         8.46739 
        2.33166         81.2039         8.41299 
         2.3378         81.0898           8.359 
        2.34394         80.5861         8.30547 
        2.35007         79.9415         8.25248 
        2.35619         79.6805         8.20002 
        2.36233         79.3001         8.14789 
        2.36848         78.7875          8.0961 
        2.37462         78.3901         8.04488 
        2.38075         78.0001         7.99414 
        2.38689          77.664         7.94381 
        2.39303         77.2699         7.89391 
        2.39916         76.8328          7.8445 
        2.40529         76.5203         7.79551 
        2.41143         76.1119         7.74691 
        2.41757         75.6375         7.69869 
         2.4237         75.1984         7.65098 
        2.42983         74.8478         7.60368 
        2.43598         74.6157         7.55665 
        2.44211         74.0343          7.5101 
        2.44823         73.8561         7.46404 
        2.45437         73.4232         7.41824 
        2.46052           72.99         7.37279 
        2.46665         72.4918         7.32781 
        2.47279         72.2279         7.28321 
        2.47892          71.827         7.23895 
        2.48507         71.4889         7.19502 
         2.4912         71.1144         7.15154 
