# k  (h/Mpc)    P(k)  (Mpc/h)^3    P_linear(k)  (Mpc/h)^3
     0.00783031         6259.05         6298.78 
       0.013688         7913.71         8068.58 
       0.019231         8368.06         8458.26 
      0.0249154         8098.32         8097.33 
      0.0312784         7217.27         7270.82 
      0.0375637         6299.17         6380.22 
      0.0433917         5644.76         5667.48 
      0.0492413         5061.11         5116.77 
      0.0555754          4666.2          4686.8 
      0.0619321         4244.94          4365.5 
       0.067871         4034.92         4100.68 
      0.0738098         3778.97         3824.87 
      0.0800417         3472.93         3504.88 
      0.0862327            3125         3166.19 
      0.0921407         2820.82         2849.57 
      0.0982031         2561.36         2559.24 
       0.104506         2292.27         2314.07 
       0.110769         2121.22         2131.93 
       0.116806         2026.85         2005.15 
       0.122832         1906.97         1909.39 
       0.129052         1824.55         1823.01 
       0.135211         1757.75         1733.62 
       0.141259          1640.3         1634.03 
       0.147318         1514.78         1523.16 
       0.153489         1418.09         1406.11 
       0.159709         1336.93         1294.15 
       0.165845         1217.28         1198.08 
       0.171974         1178.73         1120.63 
       0.178125         1127.54         1061.04 
       0.184229          1053.9          1015.7 
        0.19034         1032.58         978.002 
       0.196428         1000.06         942.051 
       0.202534         938.675         903.233 
       0.208729         917.307         859.286 
       0.214876         878.155         812.152 
       0.220989         818.722         764.607 
       0.227147         796.478         719.376 
        0.23329         763.534         679.542 
       0.239377         745.934         646.492 
       0.245482         708.474         619.427 
       0.251667         681.517         596.712 
       0.257832         674.598         576.685 
       0.263955         639.582         557.348 
       0.270079         618.854          537.18 
        0.27624          592.67          515.59 
       0.282372         578.566         493.149 
        0.28843         573.071         470.996 
       0.294538         543.839         449.723 
       0.300721         525.204         430.173 
        0.30691         516.584         412.988 
       0.313033         494.828         398.253 
       0.319153         486.619         385.281 
       0.325316          475.77         373.297 
        0.33145         464.868         361.762 
       0.337538         448.965         350.251 
       0.343633         435.496         338.459 
       0.349808          424.06         326.368 
       0.355968          415.31         314.419 
       0.362074         403.907         303.061 
       0.368217         399.155          292.39 
       0.374374         390.621         282.612 
       0.380519         375.053         273.756 
       0.386598         369.849         265.715 
       0.392688         361.602         258.182 
        0.39888         352.705         250.809 
       0.405048         346.595         243.578 
       0.411186         343.723         236.434 
       0.417313         337.506         229.339 
       0.423458         328.242         222.354 
       0.429607         320.843         215.609 
       0.435692         315.084         209.254 
       0.441815         309.448         203.235 
       0.447964         301.658         197.589 
       0.454126         297.283         192.268 
       0.460267          293.52         187.231 
       0.466387         288.147          182.41 
        0.47254         284.542         177.694 
       0.478662         276.536         173.085 
       0.484765         273.425         168.579 
       0.490885           269.8          164.17 
       0.497035         266.285          159.87 
       0.503198          263.39         155.719 
       0.509342         256.391         151.763 
       0.515458         253.617         148.015 
       0.521598         248.095         144.421 
       0.527764         245.274         140.957 
       0.533884         244.745         137.641 
           0.54          239.29         134.431 
       0.546137         234.076         131.296 
       0.552299         232.615         128.221 
       0.558452         228.667         125.226 
       0.564573         227.119         122.332 
       0.570708         222.354         119.526 
       0.576825         219.256         116.827 
       0.582926         216.957          114.23 
       0.589034         214.148          111.72 
       0.595184          212.59         109.278 
       0.601379         208.137         106.901 
       0.607522         204.766         104.616 
       0.613639         203.252         102.405 
       0.619772         201.288         100.244 
       0.625918         199.578         98.1338 
       0.632068         195.291         96.0779 
       0.638161         193.302         94.0982 
         0.6443         192.416         92.1629 
       0.650464         188.957         90.2805 
       0.656582         187.896          88.469 
       0.662703         186.112         86.7097 
       0.668861         182.554         84.9898 
       0.675024         182.523         83.3151 
       0.681124         179.765         81.7014 
       0.687237         177.322         80.1264 
       0.693381         176.172         78.5852 
       0.699536         173.982         77.0816 
       0.705665         171.887          75.624 
       0.711789         170.015         74.2058 
       0.717957         168.239         72.8148 
        0.72409         167.052         71.4677 
       0.730186         166.658         70.1632 
       0.736317         163.788         68.8846 
       0.742472         161.773         67.6335 
       0.748622         159.441          66.415 
        0.75476         159.791         65.2295 
       0.760888         158.238          64.075 
       0.767043         155.705         62.9442 
       0.773185         154.134         61.8432 
       0.779291         152.382         60.7751 
       0.785407         151.154         59.7308 
       0.791564         150.322         58.7047 
       0.797719         148.464         57.7033 
       0.803834         148.075         56.7319 
       0.809972         147.183         55.7795 
       0.816124         145.181          54.847 
       0.822261         143.698         53.9385 
       0.828378         143.553         53.0535 
       0.834502         141.152         52.1877 
       0.840667         140.687         51.3358 
       0.846816         139.447         50.5054 
       0.852925         137.997         49.6987 
       0.859047         136.999         48.9082 
       0.865192         135.914         48.1323 
       0.871341           134.4          47.373 
       0.877463         133.539         46.6336 
       0.883569         133.334         45.9119 
       0.889708         132.222          45.202 
       0.895864         130.924         44.5055 
       0.902008         129.836         43.8251 
       0.908149         128.191         43.1595 
       0.914301         128.311         42.5068 
       0.920448          127.49         41.8683 
       0.926574          125.41         41.2452 
       0.932687          125.24         40.6362 
       0.938823         124.232         40.0373 
       0.944975         122.871         39.4493 
       0.951105         121.994         38.8752 
       0.957225         121.919         38.3136 
       0.963368         120.472         37.7613 
       0.969511         119.512         37.2199 
       0.975621          118.62         36.6921 
       0.981748         117.654         36.1733 
       0.987916         116.992         35.6612 
        0.99406         116.487         35.1611 
        1.00019         115.229         34.6716 
        1.00632         114.647         34.1918 
        1.01246         113.854         33.7206 
        1.01859         113.294         33.2589 
        1.02471         112.341         32.8066 
        1.03085         111.376         32.3612 
        1.03698         110.763          31.925 
        1.04314         110.029          31.495 
        1.04929         109.646         31.0741 
        1.05541         108.873         30.6625 
        1.06154         108.207         30.2574 
        1.06769         107.203         29.8591 
        1.07382         106.406         29.4693 
        1.07993         106.055         29.0874 
        1.08607          105.13         28.7107 
        1.09222         104.883         28.3403 
        1.09836         103.729         27.9769 
        1.10449         103.238         27.6204 
        1.11063         102.549         27.2697 
        1.11677          101.94         26.9253 
         1.1229         101.187         26.5874 
        1.12903         100.887         26.2551 
        1.13518         100.369         25.9282 
        1.14131         99.6415         25.6071 
        1.14745         98.8935         25.2916 
        1.15359         97.8737         24.9814 
        1.15973         97.7176         24.6764 
        1.16584         97.0602         24.3778 
        1.17197         96.4197         24.0837 
        1.17811         95.8151         23.7936 
        1.18424         95.0442         23.5092 
        1.19038         95.0269         23.2286 
        1.19652         94.3263         22.9527 
        1.20267         93.6304         22.6813 
        1.20881         93.0899         22.4144 
        1.21495         92.6581         22.1522 
        1.22108         92.1703         21.8943 
         1.2272          91.335         21.6411 
        1.23334         91.0784         21.3913 
        1.23949         90.5239         21.1449 
        1.24562         89.7888          20.903 
        1.25174         89.2672         20.6653 
        1.25789         89.3033         20.4306 
        1.26402         88.4828            20.2 
        1.27014          88.086         19.9735 
        1.27628         87.2893         19.7499 
        1.28244         87.0703         19.5292 
        1.28858         86.5312         19.3122 
        1.29471         86.0578          19.099 
        1.30084         85.3689         18.8893 
        1.30697         85.3936         18.6823 
        1.31312         84.6301         18.4782 
        1.31925          84.154         18.2778 
        1.32537         83.6876         18.0806 
        1.33151         83.4886         17.8856 
        1.33765         82.8225         17.6936 
        1.34378         82.5655         17.5048 
        1.34992          82.093         17.3186 
        1.35606         81.5548         17.1348 
         1.3622         81.2179         16.9539 
        1.36833         80.5833         16.7761 
        1.37445         79.9855          16.601 
        1.38059         79.8538         16.4278 
        1.38675          79.066         16.2567 
        1.39288         79.0807         16.0888 
        1.39901         78.3022         15.9232 
        1.40515           78.08         15.7597 
         1.4113         77.7981         15.5985 
        1.41742          77.327         15.4402 
        1.42355         76.8517         15.2838 
         1.4297         76.4337         15.1291 
        1.43585         75.9526         14.9766 
        1.44198         75.5914         14.8268 
        1.44809         75.1487         14.6793 
        1.45423         74.7909         14.5333 
        1.46036         74.2781         14.3895 
        1.46649         74.1479         14.2477 
        1.47263         73.7047         14.1076 
        1.47877         73.4243         13.9696 
        1.48491         73.0082         13.8331 
        1.49104         72.4245         13.6987 
        1.49718          72.171         13.5661 
        1.50333         71.8131          13.435 
        1.50947         71.5119         13.3059 
         1.5156         71.1947         13.1787 
        1.52172          70.696         13.0531 
        1.52787         70.2738          12.929 
          1.534         70.0654         12.8066 
        1.54013          69.787         12.6859 
        1.54627          69.161         12.5666 
        1.55241         68.8152         12.4487 
        1.55855         68.6694         12.3326 
        1.56467         68.0524         12.2183 
         1.5708         67.9453         12.1051 
        1.57695         67.5466         11.9931 
        1.58308         67.1504         11.8829 
        1.58922         66.8644         11.7739 
        1.59535         66.6599         11.6664 
         1.6015         66.5419         11.5601 
        1.60764         66.0968         11.4551 
        1.61376         65.6487         11.3517 
        1.61989         65.1599         11.2496 
        1.62604         64.9719         11.1484 
        1.63218         64.6908         11.0486 
        1.63831         64.4767         10.9502 
        1.64444         64.1148          10.853 
        1.65059         63.8452         10.7567 
        1.65673         63.3328         10.6618 
        1.66285         63.1669         10.5682 
        1.66898         62.6068         10.4757 
        1.67512         62.5614         10.3842 
        1.68127         62.2111         10.2936 
         1.6874         61.8171         10.2044 
        1.69353         61.6434         10.1162 
        1.69967         61.3693         10.0289 
        1.70581         60.9965         9.94272 
        1.71193         60.7029         9.85783 
        1.71806          60.373         9.77375 
        1.72421         60.1875         9.69049 
        1.73035         59.9036         9.60829 
        1.73649         59.5263         9.52707 
        1.74262         59.0974         9.44685 
        1.74876         58.9726          9.3675 
        1.75489          58.573         9.28923 
        1.76101         58.3201         9.21188 
        1.76715         58.3365          9.1353 
        1.77329         57.7022          9.0595 
        1.77943         57.6789         8.98452 
        1.78557         57.4282         8.91051 
        1.79171         57.0681         8.83732 
        1.79785         56.7965         8.76494 
        1.80399         56.5061         8.69339 
        1.81012         56.2716         8.62273 
        1.81625          55.943         8.55289 
        1.82239         55.7184         8.48372 
        1.82853         55.5097         8.41534 
        1.83466         55.1916         8.34779 
        1.84078          54.909         8.28106 
        1.84692         54.6447         8.21495 
        1.85306         54.3917         8.14947 
         1.8592         54.2504         8.08482 
        1.86533         53.8915          8.0209 
        1.87147         53.6521          7.9576 
        1.87761         53.3357         7.89496 
        1.88375           53.19         7.83307 
        1.88988         52.9677         7.77191 
        1.89601         52.6359         7.71136 
        1.90215         52.4101         7.65142 
        1.90829         52.1898         7.59214 
        1.91442         51.9035         7.53348 
        1.92056         51.6747          7.4755 
         1.9267         51.4829         7.41807 
        1.93284         51.2312         7.36121 
        1.93897         51.0615         7.30506 
        1.94509         50.6356         7.24961 
        1.95123         50.4408          7.1946 
        1.95737         50.1422         7.14012 
        1.96349         50.0238         7.08634 
        1.96964         49.7699         7.03296 
        1.97578         49.5672         6.98011 
        1.98192         49.3143         6.92792 
        1.98805         49.0991         6.87625 
        1.99419         48.8928          6.8251 
        2.00033         48.7069         6.77445 
        2.00647         48.4983         6.72433 
         2.0126         48.1888          6.6748 
        2.01874         47.9459         6.62569 
        2.02488         47.7353         6.57704 
        2.03101         47.5448         6.52896 
        2.03714         47.3159         6.48141 
        2.04328         47.1407         6.43428 
        2.04941         46.8745         6.38766 
        2.05554         46.7603         6.34153 
        2.06167         46.5499          6.2958 
        2.06781         46.2116         6.25051 
        2.07396         46.0471          6.2056 
        2.08009          45.909         6.16122 
        2.08622         45.6569         6.11731 
        2.09237         45.4597         6.07375 
        2.09851          45.216         6.03061 
        2.10464         44.9996         5.98796 
        2.11077         44.8452         5.94577 
        2.11691         44.5492         5.90389 
        2.12305         44.3781         5.86242 
        2.12918          44.203         5.82144 
        2.13531         44.0604         5.78086 
        2.14145         43.8158         5.74056 
         2.1476         43.5901         5.70061 
        2.15372         43.5005         5.66123 
        2.15985         43.1657         5.62219 
        2.16599         43.0235          5.5834 
        2.17213         42.8283         5.54503 
        2.17827          42.595         5.50702 
         2.1844         42.4122          5.4694 
        2.19054         42.2137         5.43212 
        2.19666         42.0026         5.39524 
         2.2028         41.8308         5.35867 
        2.20893         41.6387         5.32242 
        2.21508         41.4997         5.28647 
        2.22122         41.2704         5.25084 
        2.22736         41.0271          5.2156 
        2.23349         40.8927         5.18071 
        2.23962          40.723         5.14611 
        2.24577         40.5708          5.1118 
         2.2519         40.3191         5.07784 
        2.25802         40.2069         5.04426 
        2.26417          39.981         5.01088 
        2.27031         39.8706         4.97777 
        2.27644           39.73         4.94506 
        2.28257         39.3636         4.91265 
        2.28872         39.3693         4.88046 
        2.29486         39.1321         4.84857 
        2.30099         38.9084         4.81703 
        2.30712         38.8036         4.78576 
        2.31326         38.5826         4.75471 
         2.3194         38.3963         4.72395 
        2.32553         38.2621         4.69352 
        2.33166         38.0555         4.66337 
         2.3378         37.9355         4.63344 
        2.34394          37.737         4.60377 
        2.35007         37.5761          4.5744 
        2.35619         37.4875         4.54532 
        2.36233         37.2215         4.51642 
        2.36848         37.0764         4.48772 
        2.37462         36.9599         4.45932 
        2.38075         36.7988          4.4312 
        2.38689         36.6315          4.4033 
        2.39303         36.5319         4.37564 
        2.39916         36.2171         4.34825 
        2.40529         36.0481          4.3211 
        2.41143         35.9681         4.29416 
        2.41757         35.8366         4.26743 
         2.4237         35.6573         4.24098 
        2.42983         35.5104         4.21476 
        2.43598         35.3848          4.1887 
        2.44211         35.2192         4.16289 
        2.44823         34.9883         4.13736 
        2.45437         34.9325         4.11198 
        2.46052         34.7104         4.08678 
        2.46665         34.5432         4.06185 
        2.47279         34.3339         4.03713 
        2.47892         34.2893         4.01259 
        2.48507         34.1299         3.98824 
         2.4912         34.0194         3.96414 
