# k  (h/Mpc)    Pcb(k)  (Mpc/h)^3    Pcb_linear(k)  (Mpc/h)^3
     0.00783031         4948.72          5006.9 
       0.013688         5737.29          5723.3 
       0.019231         5361.09         5349.84 
      0.0249154         4472.83         4511.22 
      0.0312784         3512.31         3511.85 
      0.0375637         2752.14         2732.74 
      0.0433917         2254.82         2255.92 
      0.0492413         1982.66         1975.25 
      0.0555754         1795.24         1810.62 
      0.0619321         1713.05         1699.06 
       0.067871         1569.66         1580.36 
      0.0738098          1413.4         1422.03 
      0.0800417         1213.26         1223.55 
      0.0862327         1028.19          1026.3 
      0.0921407         878.712         867.796 
      0.0982031         757.623         751.047 
       0.104506         696.419         678.533 
       0.110769         656.727         642.995 
       0.116806         632.416         625.468 
       0.122832         615.649         607.241 
       0.129052         576.586         575.427 
       0.135211         531.174         528.007 
       0.141259         482.372         471.824 
       0.147318         430.712         415.786 
       0.153489         381.419         367.831 
       0.159709         349.568         333.482 
       0.165845         331.829         313.139 
       0.171974         316.556         302.547 
       0.178125         309.362         296.207 
       0.184229         300.975         288.828 
        0.19034         283.276          276.84 
       0.196428         270.798         259.618 
       0.202534         254.376         238.924 
       0.208729         232.902         217.677 
       0.214876          214.35         199.339 
       0.220989         202.724         185.502 
       0.227147         191.642         176.158 
        0.23329         184.821         170.326 
       0.239377         181.239         166.221 
       0.245482         172.088         161.992 
       0.251667         169.042         156.298 
       0.257832         161.971         148.811 
       0.263955         153.641           140.1 
       0.270079         145.091         131.107 
        0.27624         139.496         122.825 
       0.282372          133.19         116.046 
        0.28843         127.144         110.948 
       0.294538         122.077         107.176 
       0.300721         120.179         104.162 
        0.30691         115.264         101.325 
       0.313033         112.058         98.1714 
       0.319153         106.789         94.4852 
       0.325316         104.313         90.2946 
        0.33145         99.5119         85.9667 
       0.337538         96.6555         81.8475 
       0.343633          92.596         78.2001 
       0.349808         89.5351         75.1009 
       0.355968         87.3216         72.5752 
       0.362074         84.6915         70.4629 
       0.368217          82.187         68.5031 
       0.374374         79.7503         66.5256 
       0.380519         77.8992         64.4086 
       0.386598         75.5866         62.1727 
       0.392688         73.8374          59.866 
        0.39888         71.4759         57.5563 
       0.405048         69.3954         55.4157 
       0.411186         67.6241         53.5094 
       0.417313         65.6171         51.8256 
       0.423458         63.9397         50.3328 
       0.429607         62.3585         48.9579 
       0.435692         60.1983         47.6354 
       0.441815         59.4104         46.2982 
       0.447964         58.2803         44.9333 
       0.454126          55.639         43.5422 
       0.460267         54.8356         42.1698 
       0.466387         53.4525         40.8611 
        0.47254         52.3642          39.631 
       0.478662         51.5877         38.4957 
       0.484765         49.9094         37.4521 
       0.490885         48.8634         36.4795 
       0.497035         48.2473          35.547 
       0.503198         46.8154         34.6298 
       0.509342         45.6524         33.7219 
       0.515458         44.7692         32.8285 
       0.521598         43.9919         31.9477 
       0.527764         43.1243         31.0857 
       0.533884         42.4332         30.2618 
           0.54         41.3635         29.4789 
       0.546137         40.8387         28.7396 
       0.552299         40.1551         28.0382 
       0.558452         38.9714         27.3676 
       0.564573         38.2698         26.7202 
       0.570708         37.6792         26.0844 
       0.576825         36.9503         25.4641 
       0.582926         36.0884         24.8609 
       0.589034         35.2772         24.2738 
       0.595184         34.8041          23.701 
       0.601379         34.1545         23.1432 
       0.607522         33.3917         22.6096 
       0.613639         33.1549         22.0979 
       0.619772         32.3339         21.6047 
       0.625918         32.0336         21.1285 
       0.632068         31.5637         20.6678 
       0.638161         30.9786         20.2245 
         0.6443         30.4148         19.7891 
       0.650464         29.8995         19.3621 
       0.656582         29.6173         18.9486 
       0.662703         29.0098         18.5459 
       0.668861         28.5203         18.1526 
       0.675024         28.0768         17.7712 
       0.681124         27.5777         17.4064 
       0.687237         27.0792         17.0525 
       0.693381         26.8511         16.7079 
       0.699536         26.2229         16.3727 
       0.705665          26.237         16.0482 
       0.711789         25.5517         15.7323 
       0.717957         25.2077         15.4221 
        0.72409         24.8684         15.1213 
       0.730186         24.4738         14.8299 
       0.736317         24.2663         14.5444 
       0.742472         23.8319         14.2652 
       0.748622         23.5894         13.9937 
        0.75476          23.227         13.7301 
       0.760888         22.8351         13.4739 
       0.767043         22.5366         13.2236 
       0.773185          22.203         12.9802 
       0.779291         22.0814         12.7446 
       0.785407         21.8562         12.5145 
       0.791564         21.4734         12.2887 
       0.797719          20.966         12.0686 
       0.803834         20.9352         11.8552 
       0.809972         20.6611         11.6462 
       0.816124         20.2866         11.4418 
       0.822261         20.0655         11.2428 
       0.828378         19.9241         11.0491 
       0.834502         19.6893         10.8599 
       0.840667         19.4262         10.6738 
       0.846816         19.0755         10.4927 
       0.852925         18.9038         10.3169 
       0.859047         18.6836         10.1448 
       0.865192         18.4797         9.97602 
       0.871341           18.37         9.81103 
       0.877463         18.0219         9.65052 
       0.883569         17.8245         9.49403 
       0.889708          17.597         9.34021 
       0.895864         17.4054         9.18942 
       0.902008         17.2652         9.04228 
       0.908149         17.0756         8.89845 
       0.914301         17.0177         8.75753 
       0.920448         16.7236         8.61979 
       0.926574         16.5435         8.48551 
       0.932687         16.3542         8.35437 
       0.938823          16.139         8.22554 
       0.944975         16.0067         8.09913 
       0.951105         15.8361         7.97584 
       0.957225         15.6469         7.85533 
       0.963368         15.6002          7.7369 
       0.969511         15.4052         7.62091 
       0.975621         15.2882         7.50792 
       0.981748         15.0384         7.39693 
       0.987916          14.952          7.2875 
        0.99406         14.7801         7.18069 
        1.00019         14.5984         7.07624 
        1.00632         14.5054         6.97396 
        1.01246         14.4304         6.87355 
        1.01859         14.1623         6.77529 
        1.02471         14.1256         6.67907 
        1.03085         13.9867          6.5844 
        1.03698          13.747         6.49176 
        1.04314         13.6764         6.40051 
        1.04929         13.5212         6.31124 
        1.05541         13.3758         6.22402 
        1.06154          13.303         6.13825 
        1.06769         13.2256         6.05396 
        1.07382         13.0621         5.97154 
        1.07993         12.9648         5.89084 
        1.08607         12.8122         5.81131 
        1.09222         12.7437         5.73316 
        1.09836         12.5885         5.65654 
        1.10449            12.5         5.58142 
        1.11063         12.3382         5.50758 
        1.11677         12.2971          5.4351 
         1.1229         12.2153         5.36405 
        1.12903         12.0624         5.29421 
        1.13518         11.9346         5.22556 
        1.14131         11.9019         5.15816 
        1.14745         11.7764         5.09199 
        1.15359         11.7164         5.02697 
        1.15973          11.574         4.96306 
        1.16584          11.434         4.90054 
        1.17197         11.4161         4.83902 
        1.17811         11.2862         4.77836 
        1.18424         11.1961         4.71891 
        1.19038         11.1479         4.66031 
        1.19652         11.0532         4.60272 
        1.20267         10.9609          4.5461 
        1.20881         10.8754         4.49044 
        1.21495         10.8115          4.4358 
        1.22108         10.6952         4.38208 
         1.2272         10.6071         4.32938 
        1.23334         10.5522         4.27742 
        1.23949         10.4433         4.22619 
        1.24562         10.3907         4.17594 
        1.25174         10.3183         4.12658 
        1.25789         10.2194         4.07787 
        1.26402         10.1847         4.03004 
        1.27014         10.0706         3.98309 
        1.27628         9.98409         3.93674 
        1.28244         9.92799         3.89105 
        1.28858         9.89294         3.84614 
        1.29471         9.79777         3.80204 
        1.30084         9.70945         3.75867 
        1.30697         9.66169         3.71592 
        1.31312         9.54771         3.67376 
        1.31925         9.48033          3.6324 
        1.32537         9.45104         3.59171 
        1.33151          9.3821          3.5515 
        1.33765         9.31893         3.51193 
        1.34378         9.25073         3.47304 
        1.34992         9.15233         3.43471 
        1.35606         9.14048         3.39688 
         1.3622         9.08343         3.35968 
        1.36833         8.97657         3.32313 
        1.37445         8.95535         3.28714 
        1.38059         8.87753         3.25157 
        1.38675         8.77623         3.21644 
        1.39288          8.7675         3.18197 
        1.39901         8.69235         3.14802 
        1.40515          8.6587         3.11449 
         1.4113         8.58725         3.08146 
        1.41742         8.51731         3.04903 
        1.42355         8.46999           3.017 
         1.4297         8.44942         2.98534 
        1.43585         8.38563         2.95415 
        1.44198         8.33518         2.92352 
        1.44809         8.26817         2.89338 
        1.45423          8.2189         2.86356 
        1.46036           8.165         2.83421 
        1.46649         8.13483         2.80526 
        1.47263         8.05319         2.77669 
        1.47877         8.01034         2.74853 
        1.48491         7.98859         2.72072 
        1.49104          7.9348         2.69334 
        1.49718         7.87411         2.66633 
        1.50333         7.83248         2.63964 
        1.50947         7.77501         2.61337 
         1.5156         7.73187          2.5875 
        1.52172         7.70213         2.56198 
        1.52787         7.65119         2.53675 
          1.534         7.59091         2.51189 
        1.54013         7.53793         2.48738 
        1.54627         7.49167         2.46316 
        1.55241         7.45639         2.43926 
        1.55855         7.41222         2.41571 
        1.56467          7.3684         2.39253 
         1.5708         7.36092          2.3696 
        1.57695         7.29357         2.34692 
        1.58308         7.25291          2.3246 
        1.58922         7.22452         2.30255 
        1.59535         7.17443         2.28079 
         1.6015         7.11867         2.25929 
        1.60764         7.08631         2.23807 
        1.61376         7.05326         2.21718 
        1.61989         7.00376         2.19654 
        1.62604         6.99263         2.17611 
        1.63218          6.9465         2.15596 
        1.63831         6.90618         2.13611 
        1.64444         6.85143          2.1165 
        1.65059         6.81186         2.09709 
        1.65673         6.80437         2.07794 
        1.66285         6.73434         2.05909 
        1.66898          6.7243         2.04046 
        1.67512         6.68914         2.02203 
        1.68127         6.65279         2.00381 
         1.6874         6.60795         1.98585 
        1.69353         6.55101         1.96812 
        1.69967         6.54366         1.95057 
        1.70581         6.52088         1.93324 
        1.71193         6.46823         1.91618 
        1.71806         6.43889         1.89929 
        1.72421         6.40826         1.88258 
        1.73035         6.36769         1.86608 
        1.73649         6.34598         1.84978 
        1.74262         6.31911         1.83369 
        1.74876         6.29327         1.81778 
        1.75489         6.25117         1.80209 
        1.76101         6.20811         1.78659 
        1.76715         6.19189         1.77126 
        1.77329         6.14112         1.75608 
        1.77943         6.11534         1.74107 
        1.78557         6.10497         1.72626 
        1.79171         6.07304         1.71162 
        1.79785          6.0238         1.69715 
        1.80399         6.00887         1.68284 
        1.81012         5.99009         1.66872 
        1.81625         5.94677         1.65477 
        1.82239         5.91541         1.64096 
        1.82853         5.88191         1.62731 
        1.83466         5.85342         1.61383 
        1.84078          5.8298         1.60051 
        1.84692         5.80792         1.58732 
        1.85306         5.77375         1.57427 
         1.8592         5.75065         1.56138 
        1.86533         5.73109         1.54864 
        1.87147         5.69828         1.53603 
        1.87761         5.67802         1.52355 
        1.88375         5.62708         1.51123 
        1.88988         5.62424         1.49906 
        1.89601         5.59686         1.48701 
        1.90215         5.56746         1.47508 
        1.90829          5.5363          1.4633 
        1.91442         5.51246         1.45164 
        1.92056         5.49295         1.44011 
         1.9267         5.46569          1.4287 
        1.93284         5.43402         1.41741 
        1.93897         5.41289         1.40626 
        1.94509         5.38748         1.39525 
        1.95123         5.37197         1.38433 
        1.95737         5.34695         1.37352 
        1.96349         5.32533         1.36286 
        1.96964         5.28816         1.35227 
        1.97578         5.26496         1.34179 
        1.98192         5.24958         1.33145 
        1.98805         5.23263         1.32121 
        1.99419         5.19705         1.31108 
        2.00033         5.18251         1.30105 
        2.00647         5.15476         1.29113 
         2.0126         5.13894         1.28133 
        2.01874         5.11484         1.27161 
        2.02488         5.08136         1.26199 
        2.03101         5.07569         1.25248 
        2.03714         5.04279         1.24308 
        2.04328         5.02887         1.23377 
        2.04941         4.99155         1.22456 
        2.05554         4.98606         1.21544 
        2.06167         4.95336         1.20641 
        2.06781         4.94601         1.19747 
        2.07396         4.93037         1.18861 
        2.08009         4.91081         1.17985 
        2.08622         4.86657         1.17119 
        2.09237         4.86603          1.1626 
        2.09851         4.84332         1.15409 
        2.10464         4.81552         1.14569 
        2.11077         4.78878         1.13737 
        2.11691         4.77438         1.12912 
        2.12305         4.76124         1.12095 
        2.12918         4.73949         1.11289 
        2.13531         4.72153         1.10489 
        2.14145         4.69971         1.09696 
         2.1476         4.69216          1.0891 
        2.15372         4.66736         1.08136 
        2.15985         4.64537         1.07368 
        2.16599         4.63343         1.06605 
        2.17213         4.60796         1.05851 
        2.17827         4.59601         1.05104 
         2.1844         4.57409         1.04365 
        2.19054         4.54754         1.03632 
        2.19666         4.53797         1.02908 
         2.2028         4.51961          1.0219 
        2.20893         4.50401         1.01479 
        2.21508         4.48388         1.00773 
        2.22122         4.46389         1.00074 
        2.22736         4.45004         0.99383 
        2.23349         4.43006        0.986986 
        2.23962         4.41949        0.980203 
        2.24577         4.39942        0.973478 
         2.2519         4.38519        0.966825 
        2.25802         4.36127        0.960244 
        2.26417         4.35155        0.953706 
        2.27031         4.32424        0.947223 
        2.27644         4.31447        0.940819 
        2.28257         4.29152        0.934474 
        2.28872         4.28587        0.928175 
        2.29486         4.26636        0.921936 
        2.30099         4.25813        0.915766 
        2.30712         4.23161         0.90965 
        2.31326         4.21664        0.903579 
         2.3194         4.20185        0.897567 
        2.32553         4.18717         0.89162 
        2.33166          4.1698        0.885729 
         2.3378         4.15741        0.879882 
        2.34394         4.14198        0.874087 
        2.35007         4.12423        0.868352 
        2.35619         4.10569        0.862675 
        2.36233         4.09508        0.857035 
        2.36848         4.08619        0.851434 
        2.37462         4.06834        0.845894 
        2.38075          4.0505        0.840409 
        2.38689         4.03609        0.834968 
        2.39303         4.01967        0.829576 
        2.39916         4.00916        0.824237 
        2.40529         3.99268        0.818945 
        2.41143          3.9747        0.813696 
        2.41757         3.97186         0.80849 
         2.4237         3.95268        0.803339 
        2.42983          3.9349        0.798234 
        2.43598         3.93062        0.793159 
        2.44211         3.91094        0.788136 
        2.44823         3.89411        0.783168 
        2.45437         3.88505        0.778229 
        2.46052         3.87122        0.773328 
        2.46665         3.85886        0.768478 
        2.47279         3.83823        0.763671 
        2.47892         3.83123        0.758902 
        2.48507         3.81256        0.754169 
         2.4912         3.80292        0.749485 
