# k  (h/Mpc)    P(k)  (Mpc/h)^3    P_linear(k)  (Mpc/h)^3
     0.00783031         12740.1         12949.1 
       0.013688         14847.2         14760.9 
       0.019231         13818.8         13784.1 
      0.0249154         11437.5         11617.2 
      0.0312784         9007.45         9040.58 
      0.0375637         7092.39         7033.43 
      0.0433917         5781.93         5805.44 
      0.0492413         5102.56         5082.68 
      0.0555754         4584.52         4658.69 
      0.0619321         4418.89         4371.37 
       0.067871         4012.83         4065.82 
      0.0738098         3618.49         3658.35 
      0.0800417         3103.89         3147.64 
      0.0862327         2649.25         2640.14 
      0.0921407         2291.58         2232.36 
      0.0982031         1977.41            1932 
       0.104506         1836.72         1745.44 
       0.110769         1726.61            1654 
       0.116806         1660.23          1608.9 
       0.122832         1608.85            1562 
       0.129052         1495.74         1480.15 
       0.135211         1384.73         1358.17 
       0.141259         1274.79         1213.64 
       0.147318         1151.11          1069.5 
       0.153489         1024.44         946.138 
       0.159709         949.889         857.779 
       0.165845         906.235         805.454 
       0.171974         865.585         778.206 
       0.178125         838.208         761.894 
       0.184229         810.539         742.912 
        0.19034         759.585         712.074 
       0.196428         733.617         667.777 
       0.202534         695.424         614.548 
       0.208729         645.032         559.897 
       0.214876         602.279         512.726 
       0.220989         573.764         477.132 
       0.227147         547.045           453.1 
        0.23329          526.07           438.1 
       0.239377         516.411         427.541 
       0.245482         483.225         416.664 
       0.251667         478.681          402.02 
       0.257832         459.009         382.759 
       0.263955          439.45         360.353 
       0.270079         417.849          337.22 
        0.27624         408.616         315.918 
       0.282372         391.839         298.481 
        0.28843         379.086         285.367 
       0.294538         360.512         275.667 
       0.300721         357.558         267.915 
        0.30691         341.645         260.617 
       0.313033         334.135         252.504 
       0.319153         321.779         243.027 
       0.325316         312.703         232.246 
        0.33145         301.271         221.113 
       0.337538         295.583         210.519 
       0.343633         284.962         201.138 
       0.349808         274.644         193.163 
       0.355968         270.876          186.67 
       0.362074         265.249         181.236 
       0.368217          257.68         176.195 
       0.374374         247.043         171.112 
       0.380519         244.397         165.663 
       0.386598         237.683         159.913 
       0.392688         234.335          153.98 
        0.39888         227.948         148.039 
       0.405048         221.907         142.533 
       0.411186         217.385          137.63 
       0.417313         212.761         133.299 
       0.423458         207.917          129.46 
       0.429607         203.875         125.924 
       0.435692         197.742         122.521 
       0.441815         195.784         119.082 
       0.447964         191.623         115.573 
       0.454126         184.777         111.993 
       0.460267         182.007         108.464 
       0.466387         179.568         105.098 
        0.47254          175.29         101.934 
       0.478662         174.641         99.0133 
       0.484765         168.334         96.3292 
       0.490885         166.039         93.8277 
       0.497035         163.389         91.4289 
       0.503198         159.593         89.0707 
       0.509342         157.689         86.7348 
       0.515458         155.228         84.4372 
       0.521598         151.876         82.1715 
       0.527764         150.088         79.9544 
       0.533884         147.942         77.8353 
           0.54         145.325         75.8215 
       0.546137         144.151         73.9202 
       0.552299         141.192         72.1159 
       0.558452         139.577         70.3913 
       0.564573         137.304          68.726 
       0.570708         134.323         67.0905 
       0.576825         132.722         65.4953 
       0.582926         130.237         63.9438 
       0.589034         128.796         62.4338 
       0.595184         127.186         60.9604 
       0.601379         125.234         59.5258 
       0.607522         123.043         58.1532 
       0.613639         122.063         56.8372 
       0.619772         119.566         55.5686 
       0.625918         118.274         54.3439 
       0.632068         116.752         53.1588 
       0.638161          115.74         52.0186 
         0.6443         114.109         50.8988 
       0.650464         112.986         49.8005 
       0.656582         111.046         48.7369 
       0.662703          110.11         47.7012 
       0.668861         108.165         46.6894 
       0.675024         106.815         45.7086 
       0.681124         106.111         44.7702 
       0.687237         104.223         43.8601 
       0.693381         102.639         42.9736 
       0.699536         102.005         42.1115 
       0.705665         101.437         41.2769 
       0.711789         99.4982         40.4645 
       0.717957         99.2919         39.6666 
        0.72409         97.5418         38.8929 
       0.730186         96.1659         38.1434 
       0.736317         95.4205          37.409 
       0.742472         94.6772         36.6909 
       0.748622         93.6213         35.9926 
        0.75476         92.7156         35.3145 
       0.760888         91.5427         34.6557 
       0.767043         91.0255         34.0117 
       0.773185         90.0664         33.3859 
       0.779291          88.523         32.7797 
       0.785407         88.1024          32.188 
       0.791564         87.5339         31.6072 
       0.797719         85.7116          31.041 
       0.803834         85.3547         30.4922 
       0.809972         84.4425         29.9547 
       0.816124         83.9421         29.4289 
       0.822261         83.1976         28.9171 
       0.828378         82.5328         28.4189 
       0.834502          81.963         27.9321 
       0.840667         80.7958         27.4536 
       0.846816         79.8164         26.9877 
       0.852925         79.3505         26.5355 
       0.859047         78.3795         26.0929 
       0.865192         77.8713         25.6589 
       0.871341         77.2118         25.2345 
       0.877463         76.2026         24.8216 
       0.883569         76.0341         24.4191 
       0.889708          75.239         24.0235 
       0.895864         74.6229         23.6357 
       0.902008         73.9962         23.2572 
       0.908149         73.5687         22.8873 
       0.914301          72.787         22.5248 
       0.920448         72.2379         22.1706 
       0.926574         71.6121         21.8252 
       0.932687         71.5823         21.4879 
       0.938823         70.4532         21.1565 
       0.944975         69.7173         20.8314 
       0.951105         69.3071         20.5143 
       0.957225         68.6634         20.2043 
       0.963368         68.0578         19.8997 
       0.969511         67.9256         19.6014 
       0.975621          67.499         19.3107 
       0.981748         66.8775         19.0253 
       0.987916         66.2363         18.7438 
        0.99406         65.8175         18.4691 
        1.00019         65.4437         18.2004 
        1.00632         64.8143         17.9374 
        1.01246         64.4995         17.6791 
        1.01859         63.7366         17.4264 
        1.02471         63.3669         17.1789 
        1.03085         62.8518         16.9354 
        1.03698         62.6021         16.6971 
        1.04314         62.0416         16.4624 
        1.04929         61.6161         16.2328 
        1.05541         60.9829         16.0085 
        1.06154         60.9586         15.7879 
        1.06769         60.5396         15.5711 
        1.07382         60.1519         15.3591 
        1.07993         59.7541         15.1515 
        1.08607         59.2786          14.947 
        1.09222         59.0747          14.746 
        1.09836         58.4933         14.5489 
        1.10449         58.2725         14.3557 
        1.11063         57.7237         14.1658 
        1.11677         57.4275         13.9793 
         1.1229         56.8981         13.7966 
        1.12903         56.4156          13.617 
        1.13518         56.4926         13.4404 
        1.14131         56.0997          13.267 
        1.14745         55.5853         13.0969 
        1.15359         55.3403         12.9296 
        1.15973         54.8691         12.7652 
        1.16584         54.5019         12.6044 
        1.17197         54.2115         12.4462 
        1.17811         54.0052         12.2902 
        1.18424         53.5044         12.1373 
        1.19038         53.2515         11.9865 
        1.19652         53.0225         11.8384 
        1.20267         52.4157         11.6928 
        1.20881         52.2995         11.5496 
        1.21495         51.8806         11.4091 
        1.22108         51.8376         11.2709 
         1.2272         51.1395         11.1354 
        1.23334         50.9581         11.0017 
        1.23949          50.818           10.87 
        1.24562          50.356         10.7407 
        1.25174         50.1878         10.6138 
        1.25789         50.0194         10.4885 
        1.26402         49.5832         10.3654 
        1.27014         49.2828         10.2447 
        1.27628         48.9812         10.1255 
        1.28244          48.733          10.008 
        1.28858         48.5725         9.89245 
        1.29471         48.3295         9.77903 
        1.30084         48.0477         9.66748 
        1.30697         47.7247         9.55751 
        1.31312         47.4281         9.44909 
        1.31925         47.1699          9.3427 
        1.32537         47.0142         9.23805 
        1.33151          46.593         9.13462 
        1.33765         46.4439         9.03285 
        1.34378         46.1882         8.93282 
        1.34992         45.9116         8.83424 
        1.35606         45.7004         8.73693 
         1.3622         45.4077         8.64126 
        1.36833         45.2083         8.54724 
        1.37445         44.9521         8.45468 
        1.38059         44.6518         8.36319 
        1.38675         44.4354         8.27284 
        1.39288         44.2238         8.18418 
        1.39901         44.0707         8.09685 
        1.40515         43.7455         8.01061 
         1.4113         43.5719         7.92565 
        1.41742         43.4827         7.84224 
        1.42355          43.116         7.75988 
         1.4297         43.0178         7.67844 
        1.43585         42.7946         7.59821 
        1.44198         42.4448         7.51943 
        1.44809         42.3438         7.44192 
        1.45423         42.1196         7.36521 
        1.46036         41.9504         7.28972 
        1.46649          41.757         7.21525 
        1.47263         41.4797         7.14177 
        1.47877         41.2233         7.06934 
        1.48491         41.2431          6.9978 
        1.49104         40.8924         6.92741 
        1.49718         40.5407         6.85792 
        1.50333         40.5803         6.78928 
        1.50947         40.3384         6.72171 
         1.5156         40.1032         6.65516 
        1.52172         40.0019         6.58952 
        1.52787         39.8721         6.52463 
          1.534         39.5501         6.46068 
        1.54013          39.361         6.39766 
        1.54627         39.2933         6.33537 
        1.55241         38.8783         6.27389 
        1.55855          38.843         6.21332 
        1.56467         38.5177         6.15371 
         1.5708         38.5679         6.09471 
        1.57695         38.3402          6.0364 
        1.58308         38.1034         5.97898 
        1.58922         37.9691         5.92226 
        1.59535         37.8578          5.8663 
         1.6015         37.5653         5.81099 
        1.60764         37.3519         5.75641 
        1.61376         37.2256         5.70268 
        1.61989          37.058         5.64959 
        1.62604         36.8757         5.59706 
        1.63218         36.8659         5.54523 
        1.63831          36.583         5.49417 
        1.64444         36.4343         5.44373 
        1.65059         36.3424         5.39381 
        1.65673         36.0896         5.34456 
        1.66285         35.8748         5.29607 
        1.66898         35.7823         5.24816 
        1.67512         35.5542         5.20075 
        1.68127         35.4264         5.15388 
         1.6874         35.2549          5.1077 
        1.69353         35.0894          5.0621 
        1.69967         34.9617         5.01695 
        1.70581         34.9095         4.97237 
        1.71193         34.7394          4.9285 
        1.71806         34.3951         4.88507 
        1.72421         34.3809         4.84207 
        1.73035         34.2195         4.79963 
        1.73649          33.958         4.75772 
        1.74262         33.8486         4.71633 
        1.74876         33.7387         4.67541 
        1.75489         33.6129         4.63506 
        1.76101         33.4911          4.5952 
        1.76715         33.3372         4.55574 
        1.77329          33.202         4.51671 
        1.77943         33.0586         4.47811 
        1.78557         32.8726         4.44002 
        1.79171         32.7638         4.40236 
        1.79785         32.5798         4.36514 
        1.80399         32.5692         4.32835 
        1.81012         32.3033         4.29203 
        1.81625         32.1865         4.25614 
        1.82239         32.0781         4.22061 
        1.82853         31.9424          4.1855 
        1.83466         31.7271         4.15083 
        1.84078         31.5504         4.11658 
        1.84692         31.4929         4.08266 
        1.85306         31.3143         4.04908 
         1.8592         31.1787         4.01593 
        1.86533         31.0822         3.98317 
        1.87147         31.0145         3.95073 
        1.87761         30.8523         3.91864 
        1.88375         30.7219         3.88695 
        1.88988         30.6319         3.85563 
        1.89601         30.4914         3.82465 
        1.90215         30.3873         3.79398 
        1.90829         30.2939         3.76366 
        1.91442         30.1239         3.73367 
        1.92056         29.9439         3.70403 
         1.9267         29.8862         3.67468 
        1.93284         29.6509         3.64563 
        1.93897         29.6519         3.61695 
        1.94509         29.4823         3.58864 
        1.95123         29.3547         3.56056 
        1.95737         29.2192         3.53275 
        1.96349         29.1203         3.50532 
        1.96964         29.0358          3.4781 
        1.97578         28.8203         3.45115 
        1.98192         28.7582         3.42454 
        1.98805         28.6997         3.39821 
        1.99419         28.5622         3.37216 
        2.00033         28.4127         3.34636 
        2.00647         28.3069         3.32084 
         2.0126         28.1426         3.29563 
        2.01874          28.123         3.27064 
        2.02488         27.9972         3.24589 
        2.03101         27.8741         3.22143 
        2.03714         27.7662         3.19726 
        2.04328         27.6116          3.1733 
        2.04941         27.5256         3.14961 
        2.05554         27.4184         3.12617 
        2.06167         27.3247         3.10294 
        2.06781          27.166         3.07995 
        2.07396          27.111         3.05715 
        2.08009         27.0017         3.03463 
        2.08622         26.8374         3.01235 
        2.09237          26.765         2.99025 
        2.09851         26.6541         2.96838 
        2.10464         26.5584         2.94675 
        2.11077         26.5071         2.92537 
        2.11691         26.3317         2.90415 
        2.12305         26.2364         2.88314 
        2.12918         26.1237         2.86238 
        2.13531         26.0912         2.84183 
        2.14145         25.9397         2.82144 
         2.1476         25.8424         2.80121 
        2.15372         25.7356         2.78129 
        2.15985         25.6641         2.76154 
        2.16599         25.5677         2.74193 
        2.17213         25.5112         2.72252 
        2.17827         25.3081         2.70331 
         2.1844          25.265          2.6843 
        2.19054         25.1724         2.66546 
        2.19666         25.0563         2.64684 
         2.2028         24.9171         2.62837 
        2.20893          24.901         2.61007 
        2.21508         24.8157         2.59192 
        2.22122         24.6393         2.57394 
        2.22736         24.5961         2.55617 
        2.23349          24.476         2.53857 
        2.23962         24.3959         2.52112 
        2.24577         24.2885         2.50382 
         2.2519         24.2264         2.48671 
        2.25802         24.1165         2.46979 
        2.26417         24.0281         2.45297 
        2.27031         23.9084         2.43629 
        2.27644         23.8122         2.41982 
        2.28257         23.7536          2.4035 
        2.28872         23.6804          2.3873 
        2.29486         23.5834         2.37125 
        2.30099           23.46         2.35539 
        2.30712         23.3896         2.33965 
        2.31326         23.3362         2.32404 
         2.3194         23.2416         2.30858 
        2.32553         23.1539         2.29328 
        2.33166         23.0459         2.27813 
         2.3378         22.9426         2.26309 
        2.34394         22.8502         2.24818 
        2.35007         22.7978         2.23343 
        2.35619         22.6945         2.21883 
        2.36233         22.5954         2.20433 
        2.36848         22.5359         2.18992 
        2.37462         22.4234         2.17567 
        2.38075         22.3863         2.16156 
        2.38689          22.283         2.14757 
        2.39303         22.1876          2.1337 
        2.39916         22.0974         2.11997 
        2.40529         22.0561         2.10636 
        2.41143         21.9627         2.09286 
        2.41757         21.8731         2.07947 
         2.4237         21.7877         2.06622 
        2.42983         21.6486         2.05309 
        2.43598         21.6144         2.04003 
        2.44211         21.5236         2.02711 
        2.44823         21.4528         2.01434 
        2.45437         21.3526         2.00163 
        2.46052         21.2536         1.98903 
        2.46665          21.216         1.97655 
        2.47279         21.1619         1.96419 
        2.47892         21.0762         1.95192 
        2.48507         20.9461         1.93975 
         2.4912          20.919          1.9277 
