# k  (h/Mpc)    Pcb(k)  (Mpc/h)^3    Pcb_linear(k)  (Mpc/h)^3
     0.00783031         1957.72         1978.86 
       0.013688         2261.97         2263.86 
       0.019231         2118.36         2116.63 
      0.0249154         1775.67         1785.03 
      0.0312784         1391.68         1389.68 
      0.0375637         1087.71         1081.42 
      0.0433917         893.805         892.746 
      0.0492413         784.376         781.687 
      0.0555754         713.192         716.545 
      0.0619321         676.192         672.397 
       0.067871         622.884         625.427 
      0.0738098         560.647         562.769 
      0.0800417         481.706         484.223 
      0.0862327         406.777         406.161 
      0.0921407         345.717         343.435 
      0.0982031         298.401         297.232 
       0.104506         272.473         268.534 
       0.110769          257.38          254.47 
       0.116806         248.472         247.534 
       0.122832          241.95         240.321 
       0.129052         227.622          227.73 
       0.135211         209.209         208.964 
       0.141259         188.688         186.729 
       0.147318         167.604         164.552 
       0.153489         148.208         145.573 
       0.159709         134.992         131.979 
       0.165845         127.761         123.928 
       0.171974         122.129         119.736 
       0.178125         119.677         117.227 
       0.184229         116.655         114.307 
        0.19034         110.568         109.562 
       0.196428         104.816         102.747 
       0.202534         97.7533         94.5569 
       0.208729         89.0563         86.1483 
       0.214876         81.5785         78.8905 
       0.220989          76.739         73.4145 
       0.227147         72.4347         69.7167 
        0.23329         69.9533         67.4085 
       0.239377         68.4827          65.784 
       0.245482          65.833         64.1101 
       0.251667         64.2787         61.8567 
       0.257832         61.3034         58.8938 
       0.263955         57.9869         55.4464 
       0.270079         54.5328         51.8872 
        0.27624           51.83         48.6095 
       0.282372         49.2629         45.9264 
        0.28843         46.9157         43.9092 
       0.294538         45.2297         42.4161 
       0.300721         44.3171         41.2233 
        0.30691         42.7048         40.1005 
       0.313033         41.4201         38.8525 
       0.319153          39.478         37.3936 
       0.325316         38.4768         35.7352 
        0.33145         36.6335         34.0224 
       0.337538         35.1899         32.3922 
       0.343633         33.5999         30.9486 
       0.349808         32.4993         29.7221 
       0.355968         31.5055         28.7225 
       0.362074         30.5376         27.8866 
       0.368217         29.6733         27.1109 
       0.374374         28.7649         26.3283 
       0.380519         28.0184         25.4905 
       0.386598         27.1694         24.6056 
       0.392688         26.4083         23.6927 
        0.39888         25.4249         22.7786 
       0.405048         24.6329         21.9314 
       0.411186         23.9145          21.177 
       0.417313         23.1185         20.5106 
       0.423458         22.5021         19.9198 
       0.429607         21.8977         19.3757 
       0.435692         21.2359         18.8523 
       0.441815         20.7694         18.3231 
       0.447964         20.3474         17.7829 
       0.454126         19.5449         17.2324 
       0.460267         19.1228         16.6892 
       0.466387         18.4826         16.1713 
        0.47254         18.1023         15.6845 
       0.478662         17.7427         15.2352 
       0.484765         17.1554         14.8221 
       0.490885         16.7563         14.4372 
       0.497035         16.5343         14.0682 
       0.503198         16.0552         13.7052 
       0.509342         15.6395         13.3459 
       0.515458         15.2642         12.9923 
       0.521598         14.9458         12.6437 
       0.527764         14.5589         12.3026 
       0.533884          14.307         11.9765 
           0.54         13.9396         11.6666 
       0.546137         13.6792         11.3741 
       0.552299         13.4148         11.0965 
       0.558452         13.0012         10.8311 
       0.564573         12.7922         10.5749 
       0.570708         12.5347         10.3232 
       0.576825         12.2132         10.0777 
       0.582926         11.9622         9.83903 
       0.589034         11.6406         9.60668 
       0.595184         11.4628         9.37997 
       0.601379         11.1953         9.15923 
       0.607522         11.0093         8.94803 
       0.613639         10.8514         8.74554 
       0.619772         10.5473         8.55035 
       0.625918         10.4596         8.36189 
       0.632068         10.2846         8.17954 
       0.638161         10.0239         8.00412 
         0.6443         9.81567         7.83177 
       0.650464         9.60953         7.66281 
       0.656582          9.5281         7.49915 
       0.662703         9.33836         7.33978 
       0.668861         9.15252         7.18411 
       0.675024          8.9681         7.03319 
       0.681124         8.80703         6.88879 
       0.687237         8.66106         6.74875 
       0.693381         8.54034         6.61236 
       0.699536          8.3026         6.47971 
       0.705665         8.22089         6.35128 
       0.711789         8.06086         6.22628 
       0.717957         7.92003         6.10351 
        0.72409          7.7837         5.98446 
       0.730186         7.67156         5.86914 
       0.736317         7.58053         5.75613 
       0.742472         7.45119         5.64564 
       0.748622         7.33117         5.53819 
        0.75476         7.18541         5.43386 
       0.760888         7.07369         5.33248 
       0.767043         6.97867         5.23339 
       0.773185         6.83969          5.1371 
       0.779291         6.78091         5.04383 
       0.785407         6.67441         4.95277 
       0.791564         6.56786         4.86341 
       0.797719         6.43158          4.7763 
       0.803834         6.39627         4.69185 
       0.809972         6.31617         4.60914 
       0.816124          6.1811         4.52823 
       0.822261         6.07602         4.44948 
       0.828378         6.00094         4.37283 
       0.834502         5.95103         4.29793 
       0.840667         5.83368          4.2243 
       0.846816         5.72847         4.15261 
       0.852925         5.67599         4.08304 
       0.859047         5.59648         4.01492 
       0.865192         5.54204         3.94814 
       0.871341         5.47646         3.88284 
       0.877463         5.38519         3.81932 
       0.883569         5.29527         3.75738 
       0.889708         5.20828         3.69651 
       0.895864         5.14353         3.63683 
       0.902008         5.09369          3.5786 
       0.908149         5.03859         3.52168 
       0.914301         4.96453         3.46591 
       0.920448         4.88938         3.41139 
       0.926574         4.82278         3.35825 
       0.932687          4.7649         3.30635 
       0.938823         4.70386         3.25536 
       0.944975         4.64334         3.20534 
       0.951105         4.58935         3.15654 
       0.957225         4.56497         3.10885 
       0.963368         4.50178         3.06198 
       0.969511          4.4386         3.01607 
       0.975621         4.38105         2.97136 
       0.981748         4.32988         2.92743 
       0.987916         4.28801         2.88412 
        0.99406         4.21184         2.84185 
        1.00019         4.15638         2.80051 
        1.00632         4.13286         2.76003 
        1.01246         4.08098          2.7203 
        1.01859         4.02025         2.68141 
        1.02471         3.98442         2.64333 
        1.03085         3.93411         2.60586 
        1.03698         3.88029          2.5692 
        1.04314         3.84791         2.53309 
        1.04929         3.80196         2.49775 
        1.05541         3.75442         2.46324 
        1.06154          3.7193         2.42929 
        1.06769         3.69938         2.39594 
        1.07382         3.63491         2.36332 
        1.07993         3.59193         2.33138 
        1.08607         3.57131          2.2999 
        1.09222         3.52584         2.26897 
        1.09836         3.48635         2.23865 
        1.10449         3.45462         2.20892 
        1.11063         3.40856          2.1797 
        1.11677         3.38456         2.15101 
         1.1229         3.35301         2.12289 
        1.12903         3.30715         2.09525 
        1.13518         3.27192         2.06808 
        1.14131          3.2344         2.04141 
        1.14745         3.19291         2.01522 
        1.15359         3.17346         1.98949 
        1.15973         3.13235          1.9642 
        1.16584         3.10119         1.93946 
        1.17197         3.07134         1.91511 
        1.17811         3.05438          1.8911 
        1.18424         3.01819         1.86757 
        1.19038         2.99897         1.84438 
        1.19652         2.96211         1.82159 
        1.20267         2.93188         1.79918 
        1.20881         2.91206         1.77715 
        1.21495         2.88118         1.75553 
        1.22108         2.85134         1.73427 
         1.2272         2.82977         1.71341 
        1.23334         2.79373         1.69284 
        1.23949         2.76471         1.67257 
        1.24562         2.74795         1.65268 
        1.25174         2.71719         1.63315 
        1.25789         2.69658         1.61387 
        1.26402         2.67266         1.59494 
        1.27014         2.64701         1.57636 
        1.27628         2.62514         1.55802 
        1.28244         2.59234         1.53993 
        1.28858         2.58146         1.52216 
        1.29471         2.54721         1.50471 
        1.30084         2.52187         1.48754 
        1.30697         2.51821         1.47062 
        1.31312         2.47361         1.45394 
        1.31925         2.45622         1.43757 
        1.32537         2.43398         1.42147 
        1.33151         2.42407         1.40555 
        1.33765         2.39104         1.38989 
        1.34378          2.3784          1.3745 
        1.34992         2.36073         1.35933 
        1.35606         2.32626         1.34436 
         1.3622         2.31815         1.32964 
        1.36833          2.2943         1.31517 
        1.37445          2.2742         1.30093 
        1.38059           2.267         1.28685 
        1.38675         2.24797         1.27295 
        1.39288         2.22758         1.25931 
        1.39901         2.19941         1.24587 
        1.40515         2.18448          1.2326 
         1.4113         2.16974         1.21953 
        1.41742         2.15132         1.20669 
        1.42355         2.13406         1.19402 
         1.4297         2.11686         1.18149 
        1.43585         2.10387         1.16915 
        1.44198         2.08981         1.15702 
        1.44809         2.06811          1.1451 
        1.45423         2.05078         1.13329 
        1.46036         2.03128         1.12168 
        1.46649         2.01982         1.11022 
        1.47263         2.00062         1.09891 
        1.47877         1.98486         1.08777 
        1.48491         1.97008         1.07676 
        1.49104          1.9571         1.06593 
        1.49718         1.94228         1.05524 
        1.50333         1.92861         1.04467 
        1.50947         1.91153         1.03428 
         1.5156         1.89736         1.02404 
        1.52172         1.88359         1.01394 
        1.52787         1.86999         1.00395 
          1.534         1.85254        0.994113 
        1.54013         1.84148        0.984416 
        1.54627         1.82688         0.97483 
        1.55241         1.81104        0.965371 
        1.55855         1.80097         0.95605 
        1.56467         1.79008        0.946878 
         1.5708         1.77404          0.9378 
        1.57695         1.76129        0.928827 
        1.58308         1.74534        0.919992 
        1.58922         1.73835        0.911266 
        1.59535         1.72538        0.902655 
         1.6015         1.71037        0.894144 
        1.60764         1.70075        0.885746 
        1.61376         1.69024        0.877479 
        1.61989         1.67521         0.86931 
        1.62604         1.66308        0.861227 
        1.63218         1.65838        0.853251 
        1.63831         1.64043        0.845395 
        1.64444         1.63094        0.837634 
        1.65059         1.61843        0.829952 
        1.65673         1.60947        0.822375 
        1.66285         1.59616        0.814913 
        1.66898         1.58812        0.807542 
        1.67512         1.57339        0.800247 
        1.68127         1.56341        0.793035 
         1.6874         1.55901        0.785928 
        1.69353         1.53912        0.778912 
        1.69967         1.53146        0.771965 
        1.70581         1.52572        0.765106 
        1.71193         1.51176        0.758355 
        1.71806         1.50558        0.751672 
        1.72421         1.49437        0.745056 
        1.73035         1.48486        0.738526 
        1.73649         1.47472        0.732076 
        1.74262          1.4644        0.725709 
        1.74876         1.45777        0.719412 
        1.75489         1.44363        0.713203 
        1.76101         1.43421        0.707069 
        1.76715          1.4291        0.700999 
        1.77329         1.42066        0.694992 
        1.77943         1.40651        0.689053 
        1.78557         1.39827        0.683192 
        1.79171         1.39438        0.677398 
        1.79785         1.38147         0.67167 
        1.80399         1.37428        0.666009 
        1.81012          1.3657        0.660421 
        1.81625          1.3587        0.654899 
        1.82239         1.34835        0.649432 
        1.82853         1.33691         0.64403 
        1.83466         1.33152        0.638694 
        1.84078         1.32551        0.633424 
        1.84692         1.31759        0.628205 
        1.85306         1.30713        0.623038 
         1.8592         1.29804        0.617937 
        1.86533         1.29091        0.612896 
        1.87147         1.28503        0.607905 
        1.87761         1.27606        0.602968 
        1.88375         1.26814        0.598091 
        1.88988         1.26294        0.593272 
        1.89601         1.25302        0.588505 
        1.90215         1.24224        0.583785 
        1.90829         1.23511         0.57912 
        1.91442         1.23207        0.574505 
        1.92056         1.22252        0.569944 
         1.9267         1.21501        0.565429 
        1.93284         1.21227        0.560959 
        1.93897         1.20317        0.556546 
        1.94509         1.19585        0.552189 
        1.95123         1.18758        0.547868 
        1.95737         1.18015        0.543591 
        1.96349         1.17561        0.539369 
        1.96964         1.16988        0.535181 
        1.97578         1.15946        0.531034 
        1.98192          1.1547         0.52694 
        1.98805         1.14838        0.522889 
        1.99419         1.14411        0.518879 
        2.00033         1.13815         0.51491 
        2.00647         1.12884        0.510983 
         2.0126         1.12508        0.507104 
        2.01874         1.11524        0.503259 
        2.02488         1.11164         0.49945 
        2.03101         1.10256        0.495688 
        2.03714         1.09778        0.491967 
        2.04328         1.09241        0.488281 
        2.04941         1.08385        0.484636 
        2.05554         1.07982         0.48103 
        2.06167         1.07374        0.477456 
        2.06781         1.06987        0.473917 
        2.07396         1.06393        0.470409 
        2.08009         1.05753        0.466943 
        2.08622         1.05206        0.463516 
        2.09237         1.04453        0.460116 
        2.09851         1.03991        0.456749 
        2.10464         1.03733        0.453422 
        2.11077         1.02894        0.450132 
        2.11691         1.02373        0.446867 
        2.12305         1.01927        0.443634 
        2.12918         1.01422         0.44044 
        2.13531         1.00734        0.437278 
        2.14145         1.00297        0.434139 
         2.1476        0.995577        0.431028 
        2.15372        0.992001        0.427962 
        2.15985        0.986263        0.424923 
        2.16599        0.981646        0.421905 
        2.17213        0.973832        0.418919 
        2.17827         0.97218        0.415963 
         2.1844        0.967401        0.413038 
        2.19054        0.963283         0.41014 
        2.19666        0.957348        0.407274 
         2.2028         0.95225        0.404432 
        2.20893        0.948493        0.401616 
        2.21508        0.942806        0.398824 
        2.22122        0.936125        0.396057 
        2.22736        0.933007        0.393323 
        2.23349        0.929616        0.390614 
        2.23962        0.922724         0.38793 
        2.24577         0.92037        0.385268 
         2.2519        0.915279        0.382635 
        2.25802        0.910563        0.380031 
        2.26417        0.906356        0.377443 
        2.27031        0.902274        0.374877 
        2.27644        0.896961        0.372343 
        2.28257        0.891267        0.369832 
        2.28872        0.888834        0.367339 
        2.29486        0.882761         0.36487 
        2.30099        0.878516        0.362428 
        2.30712        0.874381        0.360007 
        2.31326        0.871578        0.357605 
         2.3194         0.86834        0.355225 
        2.32553        0.864589        0.352872 
        2.33166        0.858434         0.35054 
         2.3378        0.854075        0.348226 
        2.34394        0.848943        0.345933 
        2.35007        0.846304        0.343663 
        2.35619        0.843251        0.341416 
        2.36233        0.837253        0.339184 
        2.36848         0.83423        0.336968 
        2.37462        0.831064        0.334775 
        2.38075        0.827128        0.332604 
        2.38689         0.82381        0.330451 
        2.39303        0.818092        0.328317 
        2.39916        0.815544        0.326204 
        2.40529        0.811591         0.32411 
        2.41143        0.807325        0.322032 
        2.41757        0.804596        0.319972 
         2.4237        0.802127        0.317933 
        2.42983        0.796687        0.315913 
        2.43598        0.794179        0.313904 
        2.44211        0.790691        0.311917 
        2.44823        0.786518         0.30995 
        2.45437        0.783088        0.307996 
        2.46052        0.780872        0.306056 
        2.46665        0.775863        0.304137 
        2.47279        0.772364        0.302234 
        2.47892        0.768354        0.300347 
        2.48507        0.766756        0.298474 
         2.4912        0.761021         0.29662 
