# k  (h/Mpc)    Pcb(k)  (Mpc/h)^3    Pcb_linear(k)  (Mpc/h)^3
     0.00783031         13567.2         13751.1 
       0.013688         15817.5         15692.7 
       0.019231         14717.7           14662 
      0.0249154         12174.5         12361.1 
      0.0312784         9589.73         9621.59 
      0.0375637         7553.79         7486.51 
      0.0433917         6155.87         6179.98 
      0.0492413         5434.08         5410.96 
      0.0555754         4879.47         4959.86 
      0.0619321         4706.44         4654.17 
       0.067871         4271.19         4328.98 
      0.0738098         3851.99         3895.23 
      0.0800417         3304.15         3351.53 
      0.0862327         2821.78         2811.21 
      0.0921407          2443.2         2377.04 
      0.0982031         2108.65         2057.23 
       0.104506         1959.97          1858.6 
       0.110769         1842.05         1761.25 
       0.116806         1771.29         1713.24 
       0.122832         1715.62         1663.31 
       0.129052         1594.24         1576.16 
       0.135211         1476.43         1446.27 
       0.141259         1360.64         1292.38 
       0.147318         1229.78         1138.88 
       0.153489         1094.97         1007.53 
       0.159709         1016.08         913.441 
       0.165845         969.817         857.719 
       0.171974         926.515         828.707 
       0.178125         896.518         811.338 
       0.184229         866.411         791.126 
        0.19034         812.152          758.29 
       0.196428         784.699         711.119 
       0.202534         744.186         654.435 
       0.208729         690.981         596.238 
       0.214876          646.02         546.006 
       0.220989          615.73         508.106 
       0.227147         587.482         482.513 
        0.23329         564.837         466.537 
       0.239377         554.494         455.294 
       0.245482         518.641         443.709 
       0.251667         513.991         428.113 
       0.257832         492.723         407.606 
       0.263955         472.049         383.746 
       0.270079         449.098         359.113 
        0.27624         439.572         336.428 
       0.282372         421.565         317.858 
        0.28843         408.419         303.897 
       0.294538         388.168         293.563 
       0.300721         385.124         285.307 
        0.30691         368.029         277.537 
       0.313033         360.038         268.899 
       0.319153         347.074         258.802 
       0.325316         337.204         247.324 
        0.33145         325.128         235.469 
       0.337538         319.035         224.187 
       0.343633         307.771         214.196 
       0.349808         296.551         205.707 
       0.355968         292.682         198.789 
       0.362074         286.878         193.003 
       0.368217         278.676         187.635 
       0.374374         266.959         182.219 
       0.380519         264.363          176.42 
       0.386598         257.111         170.296 
       0.392688         253.698         163.977 
        0.39888         246.752         157.651 
       0.405048         240.347         151.788 
       0.411186         235.584         146.566 
       0.417313         230.615         141.954 
       0.423458         225.365         137.865 
       0.429607         221.151         134.099 
       0.435692         214.623         130.477 
       0.441815         212.478         126.814 
       0.447964         207.922         123.076 
       0.454126         200.875         119.265 
       0.460267         197.736         115.506 
       0.466387         195.093         111.922 
        0.47254         190.553         108.552 
       0.478662         189.913         105.443 
       0.484765         182.986         102.584 
       0.490885         180.593         99.9199 
       0.497035         177.631         97.3659 
       0.503198          173.72         94.8534 
       0.509342         171.804         92.3668 
       0.515458         169.133         89.9197 
       0.521598         165.371          87.507 
       0.527764         163.449         85.1459 
       0.533884         161.171         82.8893 
           0.54         158.401         80.7448 
       0.546137         157.199         78.7199 
       0.552299          153.92         76.7986 
       0.558452          152.37         74.9619 
       0.564573         149.916         73.1886 
       0.570708         146.603         71.4469 
       0.576825         144.813          69.748 
       0.582926         142.239         68.0958 
       0.589034         140.726         66.4877 
       0.595184          139.04         64.9187 
       0.601379         136.891         63.3909 
       0.607522         134.593         61.9292 
       0.613639         133.492         60.5278 
       0.619772         130.771         59.1769 
       0.625918         129.483         57.8726 
       0.632068         127.739         56.6105 
       0.638161         126.704         55.3964 
         0.6443         124.878         54.2036 
       0.650464         123.661         53.0343 
       0.656582         121.611         51.9015 
       0.662703         120.767         50.7985 
       0.668861         118.598         49.7211 
       0.675024         117.063         48.6766 
       0.681124         116.343         47.6772 
       0.687237          114.37          46.708 
       0.693381         112.595          45.764 
       0.699536         111.911          44.846 
       0.705665         111.193         43.9571 
       0.711789         109.225          43.092 
       0.717957         109.057         42.2423 
        0.72409          107.17         41.4184 
       0.730186         105.693         40.6202 
       0.736317          104.77         39.8381 
       0.742472         103.996         39.0734 
       0.748622         102.887         38.3297 
        0.75476         101.905         37.6076 
       0.760888          100.66          36.906 
       0.767043          100.13         36.2202 
       0.773185          99.125         35.5538 
       0.779291         97.3406         34.9083 
       0.785407         96.9297         34.2781 
       0.791564         96.3036         33.6596 
       0.797719         94.3078         33.0567 
       0.803834         93.9329         32.4722 
       0.809972         93.0476         31.8998 
       0.816124         92.4778         31.3398 
       0.822261         91.6583         30.7948 
       0.828378         90.9016         30.2643 
       0.834502         90.3626         29.7459 
       0.840667          89.031         29.2363 
       0.846816         87.9934         28.7401 
       0.852925         87.5096         28.2586 
       0.859047         86.4793         27.7872 
       0.865192         85.8651          27.325 
       0.871341         85.1429         26.8731 
       0.877463         84.0816         26.4334 
       0.883569         83.9467         26.0048 
       0.889708         83.0512         25.5835 
       0.895864         82.3135         25.1704 
       0.902008         81.6698         24.7674 
       0.908149         81.2492         24.3735 
       0.914301          80.369         23.9875 
       0.920448          79.755         23.6102 
       0.926574         79.1109         23.2424 
       0.932687         79.0879         22.8832 
       0.938823          77.848         22.5303 
       0.944975         77.0485         22.1841 
       0.951105         76.6128         21.8464 
       0.957225         75.9406         21.5163 
       0.963368         75.1681         21.1919 
       0.969511         75.0831         20.8742 
       0.975621         74.5895         20.5647 
       0.981748         73.9984         20.2607 
       0.987916         73.2676         19.9609 
        0.99406         72.7829         19.6684 
        1.00019         72.4483         19.3823 
        1.00632         71.7065         19.1021 
        1.01246         71.3825         18.8271 
        1.01859         70.5973          18.558 
        1.02471         70.1066         18.2944 
        1.03085         69.5351         18.0351 
        1.03698         69.3202         17.7814 
        1.04314         68.6796         17.5314 
        1.04929         68.2458         17.2869 
        1.05541         67.5588          17.048 
        1.06154         67.4911         16.8131 
        1.06769         67.0902         16.5822 
        1.07382         66.6144         16.3564 
        1.07993         66.1988         16.1354 
        1.08607         65.6492         15.9176 
        1.09222          65.481         15.7035 
        1.09836         64.8345         15.4936 
        1.10449         64.5548         15.2879 
        1.11063         63.9962         15.0856 
        1.11677         63.6595         14.8871 
         1.1229         63.0915         14.6925 
        1.12903         62.6216         14.5012 
        1.13518         62.6424         14.3132 
        1.14131         62.2045         14.1285 
        1.14745         61.6878         13.9473 
        1.15359         61.3916         13.7692 
        1.15973         60.9432         13.5941 
        1.16584         60.4771         13.4229 
        1.17197         60.1617         13.2544 
        1.17811         59.9365         13.0882 
        1.18424         59.3967         12.9254 
        1.19038         59.1748         12.7649 
        1.19652         58.8712         12.6071 
        1.20267         58.1933         12.4521 
        1.20881         58.0686         12.2996 
        1.21495         57.6144           12.15 
        1.22108         57.5671         12.0028 
         1.2272         56.8088         11.8584 
        1.23334         56.6105         11.7161 
        1.23949         56.4224         11.5758 
        1.24562         55.9483         11.4382 
        1.25174         55.7552          11.303 
        1.25789         55.5665         11.1696 
        1.26402         55.0613         11.0385 
        1.27014         54.7931         10.9099 
        1.27628         54.4676          10.783 
        1.28244         54.1656         10.6578 
        1.28858         54.0119         10.5348 
        1.29471         53.7226          10.414 
        1.30084         53.4145         10.2952 
        1.30697         53.0549         10.1781 
        1.31312         52.7331         10.0627 
        1.31925         52.4428         9.94937 
        1.32537         52.2634         9.83793 
        1.33151         51.8001         9.72779 
        1.33765         51.6493          9.6194 
        1.34378         51.3743         9.51288 
        1.34992         51.0592         9.40789 
        1.35606         50.8266         9.30427 
         1.3622         50.4994         9.20238 
        1.36833         50.3151         9.10227 
        1.37445         49.9954         9.00369 
        1.38059         49.6519         8.90626 
        1.38675         49.4379         8.81004 
        1.39288         49.2004         8.71562 
        1.39901         49.0227         8.62263 
        1.40515         48.6618         8.53078 
         1.4113         48.4719          8.4403 
        1.41742         48.3841         8.35148 
        1.42355         47.9967         8.26377 
         1.4297         47.8943         8.17705 
        1.43585         47.6018         8.09161 
        1.44198         47.2401         8.00771 
        1.44809         47.1102         7.92517 
        1.45423         46.8893         7.84347 
        1.46036         46.6787         7.76308 
        1.46649         46.4579         7.68378 
        1.47263         46.1774         7.60553 
        1.47877         45.8892          7.5284 
        1.48491         45.8581         7.45221 
        1.49104         45.5221         7.37724 
        1.49718         45.1636         7.30324 
        1.50333         45.1737         7.23014 
        1.50947         44.8925         7.15819 
         1.5156         44.6547         7.08732 
        1.52172          44.519         7.01741 
        1.52787         44.3838         6.94831 
          1.534         44.0082         6.88021 
        1.54013         43.8069          6.8131 
        1.54627         43.7417         6.74676 
        1.55241         43.2854         6.68129 
        1.55855         43.2325         6.61678 
        1.56467         42.9239          6.5533 
         1.5708         42.9291         6.49048 
        1.57695         42.7136         6.42837 
        1.58308         42.4403         6.36723 
        1.58922         42.2501         6.30683 
        1.59535         42.1446         6.24724 
         1.6015         41.8067         6.18833 
        1.60764         41.6178         6.13021 
        1.61376         41.4552         6.07299 
        1.61989         41.2817         6.01645 
        1.62604         41.0672         5.96051 
        1.63218         41.0463         5.90531 
        1.63831         40.7232         5.85094 
        1.64444          40.575         5.79723 
        1.65059         40.4921         5.74406 
        1.65673         40.1994         5.69162 
        1.66285         39.9442         5.63998 
        1.66898         39.8681         5.58896 
        1.67512         39.5834         5.53847 
        1.68127         39.4664         5.48856 
         1.6874         39.2816         5.43937 
        1.69353         39.0803         5.39081 
        1.69967         38.9585         5.34273 
        1.70581         38.8745         5.29526 
        1.71193         38.6869         5.24854 
        1.71806         38.3112         5.20228 
        1.72421         38.3181         5.15649 
        1.73035         38.1351          5.1113 
        1.73649         37.8522         5.06666 
        1.74262         37.7144         5.02259 
        1.74876         37.5571         4.97901 
        1.75489         37.4532         4.93604 
        1.76101         37.3171         4.89359 
        1.76715         37.1146         4.85158 
        1.77329         36.9545            4.81 
        1.77943         36.7892          4.7689 
        1.78557         36.6107         4.72834 
        1.79171         36.4983         4.68824 
        1.79785         36.2791         4.64859 
        1.80399         36.2803         4.60941 
        1.81012         35.9727         4.57074 
        1.81625         35.8277         4.53252 
        1.82239         35.7252         4.49468 
        1.82853         35.5615          4.4573 
        1.83466         35.3127         4.42037 
        1.84078         35.1468         4.38389 
        1.84692         35.0679         4.34777 
        1.85306         34.8723         4.31201 
         1.8592         34.7198         4.27671 
        1.86533          34.599         4.24182 
        1.87147         34.5019         4.20728 
        1.87761         34.3494          4.1731 
        1.88375         34.2035         4.13935 
        1.88988         34.0936           4.106 
        1.89601          33.928         4.07301 
        1.90215          33.828         4.04035 
        1.90829         33.7337         4.00806 
        1.91442         33.5379         3.97612 
        1.92056         33.3183         3.94455 
         1.9267         33.2676          3.9133 
        1.93284         33.0088         3.88236 
        1.93897         33.0004         3.85182 
        1.94509         32.8188         3.82167 
        1.95123         32.6748         3.79176 
        1.95737         32.5152         3.76216 
        1.96349         32.4029         3.73294 
        1.96964          32.313         3.70395 
        1.97578         32.0852         3.67526 
        1.98192         32.0073         3.64692 
        1.98805          31.944         3.61888 
        1.99419         31.7897         3.59113 
        2.00033         31.6228         3.56366 
        2.00647         31.5162         3.53648 
         2.0126         31.3065         3.50963 
        2.01874         31.2971         3.48302 
        2.02488         31.1508         3.45666 
        2.03101         31.0067         3.43062 
        2.03714         30.9006         3.40487 
        2.04328         30.7246         3.37936 
        2.04941         30.6167         3.35413 
        2.05554         30.4911         3.32917 
        2.06167         30.4105         3.30444 
        2.06781         30.2247         3.27995 
        2.07396          30.168         3.25567 
        2.08009         30.0209         3.23168 
        2.08622         29.8465         3.20796 
        2.09237         29.7795         3.18443 
        2.09851         29.6553         3.16113 
        2.10464         29.5389          3.1381 
        2.11077         29.4843         3.11533 
        2.11691         29.2658         3.09273 
        2.12305         29.1543         3.07036 
        2.12918         29.0552         3.04826 
        2.13531         28.9834         3.02637 
        2.14145         28.8234         3.00465 
         2.1476         28.7036         2.98311 
        2.15372         28.5908          2.9619 
        2.15985         28.5346         2.94086 
        2.16599         28.4048         2.91998 
        2.17213         28.3509         2.89931 
        2.17827         28.1313         2.87885 
         2.1844         28.0868         2.85861 
        2.19054         27.9744         2.83855 
        2.19666          27.831         2.81871 
         2.2028         27.6894         2.79905 
        2.20893         27.6699         2.77956 
        2.21508         27.5675         2.76023 
        2.22122         27.3906         2.74108 
        2.22736         27.3385         2.72216 
        2.23349         27.1879         2.70341 
        2.23962         27.1009         2.68483 
        2.24577         26.9702         2.66641 
         2.2519         26.8904         2.64819 
        2.25802         26.8095         2.63016 
        2.26417         26.6754         2.61226 
        2.27031         26.5515          2.5945 
        2.27644         26.4604         2.57696 
        2.28257         26.3944         2.55958 
        2.28872         26.2992         2.54232 
        2.29486         26.1833         2.52523 
        2.30099          26.056         2.50833 
        2.30712         25.9761         2.49158 
        2.31326         25.8829         2.47495 
         2.3194         25.8037         2.45849 
        2.32553         25.7098          2.4422 
        2.33166         25.5955         2.42606 
         2.3378         25.4679         2.41005 
        2.34394         25.3906         2.39417 
        2.35007         25.3012         2.37846 
        2.35619         25.1879         2.36291 
        2.36233         25.0819         2.34747 
        2.36848         25.0227         2.33212 
        2.37462         24.8897         2.31695 
        2.38075         24.8588         2.30193 
        2.38689         24.7292         2.28702 
        2.39303         24.6253         2.27225 
        2.39916         24.5022         2.25763 
        2.40529         24.4612         2.24314 
        2.41143         24.3743         2.22876 
        2.41757         24.2702          2.2145 
         2.4237         24.1989         2.20039 
        2.42983         24.0297         2.18641 
        2.43598         23.9955          2.1725 
        2.44211         23.8757         2.15875 
        2.44823         23.8016         2.14514 
        2.45437         23.6881         2.13161 
        2.46052         23.5715         2.11819 
        2.46665         23.5308          2.1049 
        2.47279         23.4637         2.09174 
        2.47892         23.3738         2.07867 
        2.48507         23.2355         2.06571 
         2.4912         23.1904         2.05288 
