# k  (h/Mpc)    Pcb(k)  (Mpc/h)^3    Pcb_linear(k)  (Mpc/h)^3
     0.00783031         11364.3         11513.8 
       0.013688           13234         13144.6 
       0.019231         12325.5         12282.6 
      0.0249154         10214.7         10355.5 
      0.0312784         8040.92         8060.75 
      0.0375637         6326.15         6272.12 
      0.0433917         5161.33         5177.58 
      0.0492413         4552.15         4533.32 
      0.0555754         4095.26         4155.41 
      0.0619321         3941.28         3899.31 
       0.067871         3584.19         3626.87 
      0.0738098         3231.07         3263.48 
      0.0800417         2771.68         2807.97 
      0.0862327         2362.82         2355.28 
      0.0921407         2039.54         1991.52 
      0.0982031         1759.29         1723.59 
       0.104506         1631.61         1557.17 
       0.110769         1534.56         1475.61 
       0.116806         1475.56         1435.38 
       0.122832         1431.35         1393.55 
       0.129052         1332.18         1320.54 
       0.135211         1232.35         1211.72 
       0.141259         1131.93         1082.78 
       0.147318         1020.07         954.182 
       0.153489         906.921         844.128 
       0.159709          839.46         765.301 
       0.165845         800.134         718.616 
       0.171974         763.909         694.309 
       0.178125         740.989         679.758 
       0.184229         717.404         662.823 
        0.19034          672.13         635.313 
       0.196428         648.469         595.791 
       0.202534         614.027         548.301 
       0.208729         568.252         499.542 
       0.214876         529.143         457.456 
       0.220989         503.553         425.703 
       0.227147         479.344         404.261 
        0.23329          461.18         390.876 
       0.239377         452.672         381.456 
       0.245482         424.118          371.75 
       0.251667         419.683         358.683 
       0.257832         402.651         341.502 
       0.263955         384.896         321.512 
       0.270079         365.543         300.873 
        0.27624         356.691         281.867 
       0.282372         341.943         266.309 
        0.28843         329.855         254.612 
       0.294538         314.148         245.954 
       0.300721         311.297         239.037 
        0.30691         297.423         232.527 
       0.313033         290.676          225.29 
       0.319153         279.324         216.831 
       0.325316         271.622         207.214 
        0.33145         261.246         197.282 
       0.337538         256.164         187.829 
       0.343633         246.653         179.459 
       0.349808         237.852         172.346 
       0.355968         234.223          166.55 
       0.362074         228.879         161.703 
       0.368217          222.34         157.205 
       0.374374         213.606         152.667 
       0.380519         210.844         147.809 
       0.386598         205.008         142.678 
       0.392688         201.758         137.384 
        0.39888         196.275         132.084 
       0.405048         190.888         127.171 
       0.411186         186.781         122.797 
       0.417313         182.692         118.933 
       0.423458         178.517         115.507 
       0.429607         174.778         112.352 
       0.435692         169.296         109.317 
       0.441815         167.653         106.248 
       0.447964         164.167         103.116 
       0.454126         157.712         99.9233 
       0.460267         155.537         96.7739 
       0.466387         153.395         93.7706 
        0.47254         149.629         90.9476 
       0.478662         148.892         88.3423 
       0.484765          143.65         85.9473 
       0.490885         141.511         83.7153 
       0.497035         139.388         81.5755 
       0.503198         135.811         79.4705 
       0.509342         133.903         77.3872 
       0.515458         131.794         75.3369 
       0.521598          129.13         73.3155 
       0.527764         127.538         71.3373 
       0.533884         125.632         69.4467 
           0.54         123.252           67.65 
       0.546137         122.135         65.9534 
       0.552299         119.738         64.3437 
       0.558452         117.967         62.8049 
       0.564573         115.999         61.3192 
       0.570708         113.619           59.86 
       0.576825         112.294         58.4366 
       0.582926         109.996         57.0524 
       0.589034          108.63         55.7051 
       0.595184          107.17         54.3904 
       0.601379         105.526         53.1105 
       0.607522          103.52         51.8858 
       0.613639         102.776         50.7117 
       0.619772         100.651         49.5799 
       0.625918         99.3845          48.487 
       0.632068         98.2022         47.4297 
       0.638161         97.2292         46.4125 
         0.6443         95.9061         45.4131 
       0.650464          94.921         44.4334 
       0.656582         93.2077         43.4844 
       0.662703         92.1033         42.5602 
       0.668861         90.5776         41.6576 
       0.675024         89.5341         40.7825 
       0.681124         88.8007         39.9451 
       0.687237         87.0998         39.1331 
       0.693381         85.8577         38.3422 
       0.699536          85.245         37.5731 
       0.705665         84.9334         36.8283 
       0.711789         83.0898         36.1035 
       0.717957         82.7594         35.3916 
        0.72409         81.2995         34.7013 
       0.730186         80.0955         34.0326 
       0.736317         79.6454         33.3773 
       0.742472         78.9216         32.7366 
       0.748622         77.9583         32.1136 
        0.75476          77.183         31.5086 
       0.760888         76.1377         30.9208 
       0.767043         75.6157         30.3462 
       0.773185         74.7447         29.7878 
       0.779291         73.6475          29.247 
       0.785407         73.1912          28.719 
       0.791564          72.681         28.2008 
       0.797719         71.1901         27.6957 
       0.803834         70.8733          27.206 
       0.809972         69.8993         26.7264 
       0.816124         69.4963         26.2573 
       0.822261         68.9022         25.8006 
       0.828378         68.3812         25.3562 
       0.834502         67.7506         24.9218 
       0.840667         66.8773         24.4949 
       0.846816         66.0025         24.0792 
       0.852925         65.5672         23.6758 
       0.859047         64.7201         23.2808 
       0.865192         64.3429         22.8936 
       0.871341         63.8226         22.5149 
       0.877463         62.8881         22.1466 
       0.883569         62.6523         21.7874 
       0.889708         62.0481         21.4345 
       0.895864         61.5938         21.0884 
       0.902008         61.0043         20.7507 
       0.908149          60.588         20.4207 
       0.914301         59.9643         20.0973 
       0.920448          59.526         19.7812 
       0.926574         58.9113          19.473 
       0.932687         58.8489         19.1721 
       0.938823         57.9234         18.8764 
       0.944975         57.3493         18.5864 
       0.951105         56.9512         18.3034 
       0.957225          56.363         18.0269 
       0.963368         56.0387         17.7551 
       0.969511         55.7805         17.4889 
       0.975621         55.4555         17.2296 
       0.981748         54.8266         16.9749 
       0.987916         54.3288         16.7238 
        0.99406         54.0147         16.4787 
        1.00019         53.5875          16.239 
        1.00632         53.1517         16.0042 
        1.01246         52.8441         15.7738 
        1.01859         52.1633         15.5483 
        1.02471         51.9615         15.3275 
        1.03085         51.5345         15.1103 
        1.03698         51.2082         14.8977 
        1.04314         50.7852         14.6883 
        1.04929         50.3969         14.4834 
        1.05541         49.8688         14.2832 
        1.06154         49.8883         14.0864 
        1.06769         49.4403          13.893 
        1.07382         49.1784         13.7038 
        1.07993         48.8295         13.5186 
        1.08607         48.4665         13.3361 
        1.09222          48.203         13.1568 
        1.09836          47.748          12.981 
        1.10449         47.5608         12.8086 
        1.11063         47.0713         12.6391 
        1.11677         46.8156         12.4728 
         1.1229          46.402         12.3097 
        1.12903         45.9099         12.1495 
        1.13518         46.0683         11.9919 
        1.14131         45.7143         11.8372 
        1.14745         45.2125         11.6854 
        1.15359         45.0677         11.5362 
        1.15973         44.5789         11.3895 
        1.16584         44.3639          11.246 
        1.17197         44.0967         11.1049 
        1.17811         43.9374         10.9656 
        1.18424         43.5092         10.8292 
        1.19038         43.2275         10.6947 
        1.19652         43.1214         10.5626 
        1.20267         42.6537         10.4326 
        1.20881         42.5246         10.3049 
        1.21495         42.1529         10.1795 
        1.22108         42.0887         10.0562 
         1.2272         41.5406          9.9353 
        1.23334         41.3801         9.81606 
        1.23949         41.3331         9.69849 
        1.24562         40.8642         9.58318 
        1.25174         40.7552         9.46991 
        1.25789         40.6022         9.35813 
        1.26402         40.2375         9.24836 
        1.27014         39.9354         9.14061 
        1.27628         39.6937         9.03426 
        1.28244         39.5345         8.92939 
        1.28858          39.362         8.82634 
        1.29471         39.1762         8.72513 
        1.30084          38.957         8.62561 
        1.30697         38.6946         8.52749 
        1.31312          38.435         8.43076 
        1.31925         38.2369         8.33583 
        1.32537         38.0894         8.24246 
        1.33151         37.7484         8.15018 
        1.33765         37.6243         8.05937 
        1.34378         37.4078         7.97012 
        1.34992         37.1891         7.88217 
        1.35606         36.9987         7.79534 
         1.3622         36.7889         7.70998 
        1.36833         36.5577          7.6261 
        1.37445         36.4053         7.54351 
        1.38059         36.1703         7.46189 
        1.38675         35.9263         7.38127 
        1.39288         35.8342         7.30216 
        1.39901         35.6526         7.22425 
        1.40515         35.4077          7.1473 
         1.4113         35.2504          7.0715 
        1.41742         35.1352         6.99708 
        1.42355         34.8546         6.92359 
         1.4297         34.7501         6.85094 
        1.43585          34.624         6.77935 
        1.44198         34.2899         6.70906 
        1.44809         34.2367          6.6399 
        1.45423         34.0276         6.57146 
        1.46036         33.9217          6.5041 
        1.46649         33.7296         6.43766 
        1.47263         33.5043          6.3721 
        1.47877         33.3387         6.30748 
        1.48491         33.3702         6.24365 
        1.49104         33.0264         6.18084 
        1.49718         32.7228         6.11884 
        1.50333         32.7854         6.05759 
        1.50947         32.6045         5.99731 
         1.5156         32.3919         5.93793 
        1.52172          32.306         5.87936 
        1.52787          32.185         5.82146 
          1.534         31.9807         5.76441 
        1.54013         31.7795         5.70818 
        1.54627         31.7118          5.6526 
        1.55241         31.3832         5.59775 
        1.55855         31.3741         5.54371 
        1.56467         31.0594         5.49052 
         1.5708         31.1496         5.43788 
        1.57695         30.9013         5.38585 
        1.58308           30.73         5.33462 
        1.58922          30.668         5.28402 
        1.59535         30.5463         5.23409 
         1.6015         30.3105         5.18474 
        1.60764         30.1118         5.13604 
        1.61376          30.013          5.0881 
        1.61989         29.8717         5.04073 
        1.62604          29.752         4.99386 
        1.63218         29.7163         4.94762 
        1.63831         29.4974         4.90206 
        1.64444         29.3682         4.85706 
        1.65059         29.2626         4.81252 
        1.65673         29.0798         4.76858 
        1.66285         28.9577         4.72531 
        1.66898         28.8214         4.68257 
        1.67512         28.6888         4.64027 
        1.68127          28.545         4.59845 
         1.6874         28.3989         4.55724 
        1.69353         28.3015         4.51656 
        1.69967         28.1631         4.47627 
        1.70581         28.1225          4.4365 
        1.71193         28.0038         4.39736 
        1.71806         27.7335          4.3586 
        1.72421         27.6681         4.32024 
        1.73035          27.536         4.28238 
        1.73649         27.3668         4.24498 
        1.74262         27.2902         4.20805 
        1.74876           27.23         4.17154 
        1.75489         27.0877         4.13554 
        1.76101         26.9618         4.09997 
        1.76715         26.8801         4.06477 
        1.77329          26.801         4.02994 
        1.77943         26.6826          3.9955 
        1.78557          26.473         3.96152 
        1.79171         26.3832         3.92792 
        1.79785         26.2551         3.89471 
        1.80399         26.2345         3.86188 
        1.81012         26.0471         3.82948 
        1.81625         25.9751         3.79746 
        1.82239         25.8384         3.76576 
        1.82853         25.7474         3.73443 
        1.83466         25.6284         3.70349 
        1.84078         25.4191         3.67294 
        1.84692         25.3798         3.64267 
        1.85306         25.2526         3.61271 
         1.8592         25.1485         3.58313 
        1.86533         25.0626          3.5539 
        1.87147         25.0167         3.52496 
        1.87761         24.8858         3.49633 
        1.88375         24.7804         3.46805 
        1.88988         24.7037         3.44011 
        1.89601          24.604         3.41247 
        1.90215         24.4797          3.3851 
        1.90829         24.4062         3.35805 
        1.91442          24.295         3.33129 
        1.92056         24.1842         3.30484 
         1.9267         24.0948         3.27866 
        1.93284         23.9192         3.25274 
        1.93897         23.9186         3.22715 
        1.94509         23.7875         3.20189 
        1.95123         23.6899         3.17683 
        1.95737         23.5737         3.15203 
        1.96349         23.5106         3.12755 
        1.96964         23.4165         3.10326 
        1.97578         23.2481         3.07922 
        1.98192         23.1997         3.05548 
        1.98805         23.1486         3.03199 
        1.99419          23.039         3.00874 
        2.00033         22.9323         2.98572 
        2.00647         22.8317         2.96295 
         2.0126         22.7405         2.94046 
        2.01874         22.6811         2.91816 
        2.02488         22.5966         2.89608 
        2.03101         22.5097         2.87426 
        2.03714         22.4096         2.85269 
        2.04328         22.2931         2.83131 
        2.04941         22.2151         2.81017 
        2.05554         22.1506         2.78927 
        2.06167         22.0488         2.76854 
        2.06781          21.947         2.74802 
        2.07396         21.8899         2.72768 
        2.08009         21.8324         2.70758 
        2.08622         21.6749         2.68771 
        2.09237          21.626         2.66799 
        2.09851         21.5438         2.64847 
        2.10464         21.4467         2.62918 
        2.11077         21.3759          2.6101 
        2.11691         21.3058         2.59117 
        2.12305         21.2395         2.57242 
        2.12918         21.1165         2.55391 
        2.13531         21.1003         2.53557 
        2.14145         21.0082         2.51737 
         2.1476         20.9144         2.49933 
        2.15372         20.8157         2.48155 
        2.15985         20.7327         2.46393 
        2.16599         20.6872         2.44643 
        2.17213         20.6063         2.42912 
        2.17827         20.4827         2.41197 
         2.1844         20.4055         2.39501 
        2.19054         20.3554         2.37821 
        2.19666         20.2717         2.36159 
         2.2028         20.1771         2.34511 
        2.20893         20.1327         2.32878 
        2.21508         20.0681         2.31259 
        2.22122         19.9134         2.29655 
        2.22736         19.8941         2.28069 
        2.23349         19.8147         2.26499 
        2.23962          19.747         2.24942 
        2.24577         19.6572         2.23399 
         2.2519         19.6184         2.21872 
        2.25802         19.4914         2.20362 
        2.26417         19.4743         2.18861 
        2.27031         19.3541         2.17374 
        2.27644         19.2842         2.15904 
        2.28257         19.2177         2.14448 
        2.28872         19.1472         2.13002 
        2.29486         19.0991          2.1157 
        2.30099         18.9927         2.10155 
        2.30712         18.9418         2.08751 
        2.31326         18.9202         2.07358 
         2.3194         18.8212         2.05978 
        2.32553         18.7377         2.04613 
        2.33166         18.6525         2.03261 
         2.3378          18.602          2.0192 
        2.34394         18.5084          2.0059 
        2.35007         18.4726         1.99274 
        2.35619         18.3773         1.97971 
        2.36233         18.3196         1.96677 
        2.36848          18.263         1.95391 
        2.37462         18.1662          1.9412 
        2.38075         18.1287         1.92861 
        2.38689         18.0627         1.91613 
        2.39303         17.9864         1.90375 
        2.39916         17.9234          1.8915 
        2.40529         17.8846         1.87936 
        2.41143          17.789         1.86731 
        2.41757          17.735         1.85536 
         2.4237         17.6422         1.84354 
        2.42983         17.5487         1.83183 
        2.43598         17.5323         1.82018 
        2.44211         17.4707         1.80865 
        2.44823         17.4165         1.79725 
        2.45437         17.3213         1.78592 
        2.46052          17.277         1.77467 
        2.46665         17.2375         1.76354 
        2.47279         17.1613         1.75251 
        2.47892         17.1078         1.74156 
        2.48507          17.018          1.7307 
         2.4912         16.9959         1.71995 
