#  k  (h/Mpc)          P(k)  (Mpc/h)^3     P_linear(k) (Mpc/h)^3
     0.00783031         2121.44         2136.74 
       0.013688         2555.57         2588.42 
       0.019231         2545.37         2559.96 
      0.0249154         2298.65         2294.96 
      0.0312784         1908.85         1909.45 
      0.0375637         1560.74         1564.54 
      0.0433917         1329.11         1324.93 
      0.0492413         1163.48         1163.96 
      0.0555754         1061.39         1056.57 
      0.0619321          976.39         985.558 
       0.067871         923.337         925.094 
      0.0738098         853.629         853.988 
      0.0800417         766.365         764.188 
      0.0862327         667.896         667.449 
      0.0921407         581.407          580.08 
      0.0982031         510.458         505.572 
       0.104506         450.176         449.357 
       0.110769         415.421         413.776 
       0.116806         397.925         393.333 
       0.122832         380.781         379.508 
       0.129052         367.363         365.111 
       0.135211         349.883         345.962 
       0.141259         323.362         321.242 
       0.147318         293.352         292.596 
       0.153489         265.926         263.219 
       0.159709         242.066         237.183 
       0.165845         219.488         217.268 
       0.171974         209.479         203.492 
       0.178125         200.076          194.65 
       0.184229         192.086         188.746 
        0.19034         188.039         183.424 
       0.196428         181.224         176.909 
       0.202534         170.093         168.307 
       0.208729         162.002         157.707 
       0.214876         152.003          146.37 
       0.220989         139.473         135.585 
       0.227147         132.573         126.265 
        0.23329         125.683         119.023 
       0.239377         120.996         113.806 
       0.245482         116.219         110.013 
       0.251667         111.998         106.881 
       0.257832         110.258         103.733 
       0.263955         104.989         100.074 
       0.270079          100.56         95.7279 
        0.27624         95.3823         90.8539 
       0.282372         90.9475         85.8808 
        0.28843         88.0042         81.2683 
       0.294538          83.559         77.2201 
       0.300721         79.5653         73.8714 
        0.30691         77.7784         71.2058 
       0.313033         74.9305         69.0392 
       0.319153         73.6979         67.0833 
       0.325316         70.6527         65.0889 
        0.33145          68.255          62.934 
       0.337538         66.0003         60.6018 
       0.343633         63.8466         58.1443 
       0.349808         61.2862         55.6695 
       0.355968         59.0241         53.3441 
       0.362074         57.6039         51.2866 
       0.368217         55.7047         49.4883 
       0.374374         54.3857          47.935 
       0.380519         52.2263         46.5588 
       0.386598         50.7709         45.2764 
       0.392688         49.2504          44.003 
        0.39888         48.2798         42.6684 
       0.405048         47.0142         41.2926 
       0.411186         45.6096         39.9096 
       0.417313         44.1894         38.5519 
       0.423458         42.7713         37.2598 
       0.429607         41.9359         36.0707 
       0.435692         41.1384         34.9987 
       0.441815         39.5649         34.0163 
       0.447964          38.349          33.105 
       0.454126         37.6973         32.2337 
       0.460267         37.2345         31.3792 
       0.466387         36.1456         30.5319 
        0.47254          35.537         29.6801 
       0.478662         34.3579         28.8374 
       0.484765         33.5778         28.0172 
       0.490885         32.5549         27.2314 
       0.497035          31.957         26.4864 
       0.503198         31.2761         25.7845 
       0.509342         30.3693         25.1271 
       0.515458         29.9446         24.5091 
       0.521598         29.2345         23.9136 
       0.527764         28.7868         23.3298 
       0.533884         28.0776          22.759 
           0.54         27.5218         22.1983 
       0.546137         26.6733         21.6481 
       0.552299         26.1852         21.1105 
       0.558452         25.5952         20.5915 
       0.564573         25.2996         20.0952 
       0.570708         24.6507         19.6204 
       0.576825          24.279         19.1695 
       0.582926         23.8153         18.7383 
       0.589034         23.3255          18.321 
       0.595184         23.0289         17.9116 
       0.601379         22.3941         17.5085 
       0.607522         21.9965         17.1183 
       0.613639         21.6132           16.74 
       0.619772         21.2299         16.3716 
       0.625918         20.7997         16.0137 
       0.632068         20.5851         15.6669 
       0.638161         20.1521         15.3342 
         0.6443         19.8077         15.0099 
       0.650464         19.3104          14.695 
       0.656582         19.1712         14.3926 
       0.662703         18.9052         14.0991 
       0.668861         18.3998         13.8121 
       0.675024         18.1279         13.5324 
       0.681124         18.0544         13.2624 
       0.687237         17.6598         12.9984 
       0.693381          17.252         12.7398 
       0.699536         17.1548         12.4875 
       0.705665         16.8165         12.2434 
       0.711789         16.5098         12.0065 
       0.717957         16.1618         11.7749 
        0.72409         16.0106         11.5513 
       0.730186         15.9187         11.3351 
       0.736317         15.5572         11.1234 
       0.742472         15.3668         10.9164 
       0.748622         15.1199         10.7147 
        0.75476         14.7289         10.5183 
       0.760888         14.6654          10.327 
       0.767043         14.3902         10.1394 
       0.773185         14.2144         9.95688 
       0.779291         14.0857         9.77984 
       0.785407         13.8351         9.60688 
       0.791564         13.7039         9.43711 
       0.797719         13.4028         9.27165 
       0.803834         13.3365         9.11131 
       0.809972         13.0686         8.95428 
       0.816124           12.92         8.80068 
       0.822261         12.7656         8.65115 
       0.828378         12.6105         8.50558 
       0.834502         12.4677         8.36326 
       0.840667         12.3262         8.22329 
       0.846816         12.0517         8.08691 
       0.852925         11.9975          7.9545 
       0.859047         11.8344         7.82477 
       0.865192         11.6649         7.69753 
       0.871341         11.5113         7.57304 
       0.877463         11.3653         7.45188 
       0.883569          11.285         7.33369 
       0.889708         11.0938         7.21747 
       0.895864         10.9533         7.10349 
       0.902008          10.822         6.99222 
       0.908149         10.6661         6.88342 
       0.914301         10.5915         6.77677 
       0.920448         10.4446         6.67249 
       0.926574         10.3784         6.57078 
       0.932687         10.2073         6.47142 
       0.938823         10.0639         6.37376 
       0.944975         10.0021         6.27791 
       0.951105         9.86135         6.18438 
       0.957225         9.79754         6.09292 
       0.963368         9.64601         6.00301 
       0.969511         9.54077         5.91492 
       0.975621         9.44354         5.82908 
       0.981748         9.31172         5.74473 
       0.987916         9.23693         5.66152 
        0.99406         9.14116         5.58028 
        1.00019          9.0621         5.50081 
        1.00632         8.98289         5.42296 
        1.01246         8.86512          5.3465 
        1.01859         8.76765         5.27165 
        1.02471         8.65249         5.19833 
        1.03085          8.6137         5.12616 
        1.03698          8.5255         5.05551 
        1.04314         8.41892          4.9859 
        1.04929         8.30548         4.91777 
        1.05541         8.25036          4.8512 
        1.06154          8.1715          4.7857 
        1.06769          8.1213         4.72131 
        1.07382         7.98434         4.65833 
        1.07993         7.91356         4.59664 
        1.08607          7.8698         4.53582 
        1.09222         7.76493         4.47604 
        1.09836         7.73378         4.41742 
        1.10449         7.60459         4.35992 
        1.11063         7.57798         4.30338 
        1.11677         7.51393         4.24787 
         1.1229         7.43982         4.19344 
        1.12903         7.37666         4.13992 
        1.13518          7.2749         4.08729 
        1.14131         7.21812         4.03561 
        1.14745         7.12076         3.98485 
        1.15359          7.0607         3.93497 
        1.15973         7.00041         3.88592 
        1.16584         6.94556         3.83792 
        1.17197         6.87728         3.79067 
        1.17811         6.81794         3.74408 
        1.18424         6.76572          3.6984 
        1.19038         6.72056         3.65336 
        1.19652         6.66082         3.60909 
        1.20267         6.60778         3.56555 
        1.20881          6.5273         3.52274 
        1.21495         6.48041          3.4807 
        1.22108         6.42572         3.43936 
         1.2272         6.36498         3.39879 
        1.23334         6.34574         3.35878 
        1.23949         6.26639         3.31932 
        1.24562         6.22253         3.28061 
        1.25174         6.18318         3.24257 
        1.25789          6.0916         3.20502 
        1.26402         6.06981         3.16814 
        1.27014         6.03145         3.13192 
        1.27628         5.95611         3.09616 
        1.28244         5.93867          3.0609 
        1.28858          5.8896         3.02623 
        1.29471         5.81159         2.99218 
        1.30084         5.76483         2.95868 
        1.30697         5.75317         2.92565 
        1.31312         5.68942         2.89308 
        1.31925         5.64812          2.8611 
        1.32537         5.60924         2.82964 
        1.33151          5.5595         2.79855 
        1.33765         5.51547         2.76794 
        1.34378         5.50459         2.73785 
        1.34992         5.44525         2.70819 
        1.35606         5.40304          2.6789 
         1.3622          5.3561          2.6501 
        1.36833         5.32119         2.62179 
        1.37445         5.27471         2.59392 
        1.38059         5.23192         2.56636 
        1.38675         5.19829         2.53914 
        1.39288         5.16441         2.51242 
        1.39901         5.11333          2.4861 
        1.40515         5.08684          2.4601 
         1.4113         5.04568         2.43449 
        1.41742          5.0197         2.40933 
        1.42355         4.97336         2.38448 
         1.4297         4.94108         2.35991 
        1.43585         4.91693          2.3357 
        1.44198         4.87396         2.31192 
        1.44809         4.84412         2.28851 
        1.45423         4.80461         2.26534 
        1.46036          4.7788         2.24254 
        1.46649         4.74202         2.22004 
        1.47263         4.71796         2.19783 
        1.47877         4.68251         2.17594 
        1.48491         4.65812          2.1543 
        1.49104         4.61748         2.13301 
        1.49718         4.59758           2.112 
        1.50333         4.55759         2.09123 
        1.50947         4.52011         2.07078 
         1.5156         4.50392         2.05064 
        1.52172         4.47172         2.03077 
        1.52787          4.4466         2.01112 
          1.534         4.41362         1.99175 
        1.54013         4.39443         1.97266 
        1.54627         4.35599         1.95379 
        1.55241          4.3216         1.93516 
        1.55855         4.30981         1.91679 
        1.56467         4.28383         1.89872 
         1.5708         4.24832         1.88083 
        1.57695         4.21175         1.86315 
        1.58308         4.18478         1.84573 
        1.58922         4.17348         1.82853 
        1.59535         4.14735         1.81155 
         1.6015         4.10801         1.79476 
        1.60764          4.0929         1.77819 
        1.61376         4.06621         1.76188 
        1.61989         4.03025         1.74576 
        1.62604         4.01372         1.72981 
        1.63218         3.99537         1.71406 
        1.63831         3.97434         1.69855 
        1.64444         3.93974         1.68322 
        1.65059           3.925         1.66805 
        1.65673         3.89954         1.65308 
        1.66285         3.87747         1.63834 
        1.66898         3.85354         1.62377 
        1.67512         3.82847         1.60935 
        1.68127         3.80208         1.59509 
         1.6874          3.7854         1.58103 
        1.69353         3.75571         1.56716 
        1.69967         3.73994         1.55341 
        1.70581         3.71564         1.53984 
        1.71193         3.69373         1.52648 
        1.71806         3.67473         1.51326 
        1.72421         3.65366         1.50016 
        1.73035         3.63398         1.48723 
        1.73649         3.61172         1.47446 
        1.74262         3.59185         1.46185 
        1.74876         3.58049         1.44937 
        1.75489         3.55261         1.43707 
        1.76101         3.52712         1.42492 
        1.76715         3.52252         1.41289 
        1.77329         3.49758         1.40098 
        1.77943         3.47015          1.3892 
        1.78557          3.4617         1.37758 
        1.79171          3.4404         1.36609 
        1.79785          3.4273         1.35473 
        1.80399         3.39619          1.3435 
        1.81012         3.38745         1.33241 
        1.81625         3.36246         1.32145 
        1.82239         3.35227          1.3106 
        1.82853         3.32972         1.29988 
        1.83466         3.30183         1.28928 
        1.84078         3.28772         1.27882 
        1.84692         3.27224         1.26845 
        1.85306         3.25461         1.25819 
         1.8592         3.24337         1.24806 
        1.86533          3.2277         1.23804 
        1.87147         3.21323         1.22813 
        1.87761          3.1973         1.21831 
        1.88375         3.17511         1.20862 
        1.88988         3.16003         1.19904 
        1.89601         3.14005         1.18956 
        1.90215         3.12205         1.18018 
        1.90829          3.1168          1.1709 
        1.91442         3.09458         1.16172 
        1.92056         3.08822         1.15264 
         1.9267         3.06398         1.14366 
        1.93284         3.05712         1.13476 
        1.93897          3.0329         1.12598 
        1.94509         3.01116         1.11731 
        1.95123         3.00674          1.1087 
        1.95737         2.99348         1.10018 
        1.96349         2.97269         1.09178 
        1.96964         2.96087         1.08343 
        1.97578         2.94646         1.07517 
        1.98192         2.92686         1.06701 
        1.98805         2.91834         1.05894 
        1.99419         2.90397         1.05095 
        2.00033         2.88046         1.04304 
        2.00647         2.87757         1.03521 
         2.0126         2.86371         1.02747 
        2.01874         2.85093         1.01981 
        2.02488         2.83882         1.01221 
        2.03101         2.81654          1.0047 
        2.03714         2.80789        0.997282 
        2.04328         2.79677        0.989927 
        2.04941         2.78102        0.982652 
        2.05554         2.77188        0.975455 
        2.06167         2.75702        0.968321 
        2.06781         2.74466        0.961257 
        2.07396            2.73        0.954253 
        2.08009         2.72286        0.947331 
        2.08622         2.71185        0.940485 
        2.09237         2.70273        0.933694 
        2.09851         2.68095        0.926969 
        2.10464         2.66983         0.92032 
        2.11077         2.66516        0.913745 
        2.11691         2.64745         0.90722 
        2.12305         2.63272        0.900758 
        2.12918         2.62458        0.894375 
        2.13531         2.61346        0.888053 
        2.14145          2.6017        0.881777 
         2.1476         2.58407        0.875555 
        2.15372          2.5746        0.869424 
        2.15985          2.5666        0.863346 
        2.16599         2.55722        0.857308 
        2.17213         2.54963        0.851335 
        2.17827          2.5287         0.84542 
         2.1844         2.52066        0.839566 
        2.19054         2.51131        0.833766 
        2.19666         2.50303        0.828028 
         2.2028         2.48218         0.82234 
        2.20893         2.48411        0.816702 
        2.21508         2.46798        0.811111 
        2.22122         2.45176         0.80557 
        2.22736         2.44451        0.800092 
        2.23349         2.43372        0.794667 
        2.23962         2.42911        0.789288 
        2.24577         2.41132        0.783955 
         2.2519         2.40734        0.778679 
        2.25802         2.39119        0.773459 
        2.26417         2.38414        0.768273 
        2.27031          2.3744        0.763129 
        2.27644         2.36326        0.758048 
        2.28257         2.35509        0.753013 
        2.28872         2.34529        0.748014 
        2.29486         2.33232        0.743062 
        2.30099         2.32411        0.738164 
        2.30712         2.31687        0.733309 
        2.31326         2.30857        0.728489 
         2.3194         2.29573        0.723715 
        2.32553         2.28924        0.718992 
        2.33166         2.28205        0.714312 
         2.3378         2.27356        0.709669 
        2.34394         2.25759        0.705065 
        2.35007         2.24943        0.700508 
        2.35619         2.24506        0.695997 
        2.36233         2.23296        0.691515 
        2.36848         2.22596        0.687063 
        2.37462         2.21801         0.68266 
        2.38075         2.21029        0.678299 
        2.38689         2.20083        0.673973 
        2.39303          2.1918        0.669686 
        2.39916         2.18392         0.66544 
        2.40529         2.17249        0.661231 
        2.41143         2.16785        0.657055 
        2.41757         2.16101        0.652914 
         2.4237         2.14796        0.648816 
        2.42983         2.14424        0.644753 
        2.43598         2.13635        0.640715 
        2.44211         2.12337        0.636717 
        2.44823         2.11853        0.632763 
        2.45437          2.1065        0.628831 
        2.46052         2.10077         0.62493 
        2.46665         2.09453        0.621068 
        2.47279         2.08278         0.61724 
        2.47892         2.07939        0.613442 
        2.48507         2.06996        0.609673 
         2.4912         2.06463        0.605942 
