# k  (h/Mpc)    Pcb(k)  (Mpc/h)^3    Pcb_linear(k)  (Mpc/h)^3
     0.00783031         14075.3         14277.3 
       0.013688         18429.8         18277.1 
       0.019231           18980         18970.2 
      0.0249154         17491.2         17891.5 
      0.0312784         15563.5         15778.9 
      0.0375637         13599.2         13649.6 
      0.0433917           11771         12041.1 
      0.0492413         10732.7           10867 
      0.0555754         9624.68          9995.2 
      0.0619321          9283.9         9345.93 
       0.067871         8454.02         8774.16 
      0.0738098         7833.47         8135.28 
      0.0800417         7014.32         7373.37 
      0.0862327         6352.46         6578.57 
      0.0921407         5781.76         5865.19 
      0.0982031         5161.36         5247.21 
       0.104506         4839.69         4760.92 
       0.110769         4491.46         4425.76 
       0.116806         4242.25         4202.75 
       0.122832         4062.44          4026.6 
       0.129052         3787.37         3843.82 
       0.135211         3592.76         3630.52 
       0.141259         3429.45         3384.61 
       0.147318         3219.57          3118.3 
       0.153489          2942.8         2853.87 
       0.159709         2778.13         2620.34 
       0.165845         2676.37          2436.9 
       0.171974         2530.44         2301.07 
       0.178125         2414.77          2201.9 
       0.184229         2320.15         2123.78 
        0.19034         2198.85          2048.9 
       0.196428         2157.73         1965.44 
       0.202534         2075.34         1868.27 
       0.208729         1980.13         1759.14 
       0.214876         1895.33         1648.75 
       0.220989         1830.62         1546.17 
       0.227147         1751.21         1457.08 
        0.23329         1684.85         1385.13 
       0.239377         1661.63         1328.97 
       0.245482         1561.16         1283.11 
       0.251667         1554.32          1241.4 
       0.257832         1494.69         1199.33 
       0.263955         1446.44         1153.94 
       0.270079         1398.22         1104.55 
        0.27624         1382.66         1052.75 
       0.282372         1324.52         1002.07 
        0.28843         1316.95         955.779 
       0.294538         1252.84         914.672 
       0.300721         1246.82         879.258 
        0.30691         1198.09          849.04 
       0.313033         1175.39         822.557 
       0.319153         1156.73         797.473 
       0.325316         1118.89         772.085 
        0.33145         1094.16         745.852 
       0.337538          1076.3         719.013 
       0.343633         1052.26         691.998 
       0.349808         1017.76         665.557 
       0.355968         1011.14         640.938 
       0.362074         1000.94         618.838 
       0.368217         970.439         598.896 
       0.374374         934.024         580.821 
       0.380519         935.649         564.097 
       0.386598         910.576         548.149 
       0.392688         907.296         532.349 
        0.39888         881.483         516.235 
       0.405048         870.199          500.16 
       0.411186         858.199         484.447 
       0.417313          840.56         469.325 
       0.423458          826.43         454.976 
       0.429607         815.417         441.613 
       0.435692         798.567         429.326 
       0.441815         792.963         417.734 
       0.447964         775.991         406.697 
       0.454126         768.114         396.023 
       0.460267         750.606         385.585 
       0.466387         742.021          375.34 
        0.47254         735.289          365.23 
       0.478662         729.497         355.412 
       0.484765         708.784         345.947 
       0.490885         704.114         336.877 
       0.497035         689.749         328.228 
       0.503198          685.21         319.991 
       0.509342         678.007          312.15 
       0.515458         674.245         304.659 
       0.521598         658.027          297.39 
       0.527764         645.409         290.281 
       0.533884         644.365         283.375 
           0.54         637.058         276.636 
       0.546137         632.493         270.067 
       0.552299         623.138         263.688 
       0.558452         619.375         257.547 
       0.564573         610.614         251.661 
       0.570708         604.027         245.981 
       0.576825         587.621          240.53 
       0.582926         590.183         235.281 
       0.589034         584.574         230.187 
       0.595184         578.899         225.195 
       0.601379         570.983         220.292 
       0.607522         563.151         215.554 
       0.613639         563.428         210.967 
       0.619772         550.188         206.506 
       0.625918         547.866         202.176 
       0.632068         540.458         197.981 
       0.638161         538.617         193.951 
         0.6443         528.692          190.01 
       0.650464          526.64         186.167 
       0.656582         523.392         182.459 
       0.662703         520.811         178.852 
       0.668861         511.678         175.321 
       0.675024         507.717         171.882 
       0.681124         504.395          168.57 
       0.687237         499.974         165.337 
       0.693381         493.743         162.174 
       0.699536         486.211         159.088 
       0.705665         485.407         156.097 
       0.711789         482.379         153.188 
       0.717957          477.86         150.335 
        0.72409         475.193         147.574 
       0.730186         468.361           144.9 
       0.736317         465.351          142.28 
       0.742472           463.2         139.715 
       0.748622         457.735         137.217 
        0.75476         451.621         134.785 
       0.760888         447.318         132.416 
       0.767043         447.863         130.095 
       0.773185         442.711         127.835 
       0.779291         437.753         125.641 
       0.785407          435.08         123.496 
       0.791564         429.923         121.389 
       0.797719         427.761         119.332 
       0.803834         423.726         117.337 
       0.809972         422.309          115.38 
       0.816124          421.19         113.465 
       0.822261         415.024         111.599 
       0.828378          412.74         109.781 
       0.834502          408.67         108.003 
       0.840667         405.123         106.253 
       0.846816         403.386         104.548 
       0.852925         400.027          102.89 
       0.859047         398.713         101.266 
       0.865192         393.866         99.6723 
       0.871341         390.677          98.112 
       0.877463          389.76         96.5925 
       0.883569         386.382         95.1095 
       0.889708         383.441         93.6503 
       0.895864         380.961         92.2183 
       0.902008         378.181         90.8196 
       0.908149         374.566         89.4511 
       0.914301         371.591         88.1088 
       0.920448         369.511         86.7956 
       0.926574         364.239         85.5141 
       0.932687         364.703         84.2614 
       0.938823         360.508         83.0296 
       0.944975         360.574         81.8198 
       0.951105         356.175         80.6386 
       0.957225         353.955         79.4831 
       0.963368         349.914         78.3464 
       0.969511         348.765         77.2321 
       0.975621         346.166         76.1458 
       0.981748         344.974         75.0777 
       0.987916          342.65         74.0235 
        0.99406         336.999         72.9938 
        1.00019         336.299         71.9859 
        1.00632         334.596         70.9981 
        1.01246         331.818         70.0275 
        1.01859         332.266         69.0768 
        1.02471         327.103         68.1451 
        1.03085         325.288         67.2275 
        1.03698         324.316         66.3289 
        1.04314         321.029          65.443 
        1.04929         318.152         64.5756 
        1.05541         318.786         63.7275 
        1.06154          313.44         62.8927 
        1.06769         312.507         62.0718 
        1.07382         310.457         61.2683 
        1.07993         308.469         60.4811 
        1.08607         307.509         59.7045 
        1.09222         304.614          58.941 
        1.09836         302.619         58.1918 
        1.10449         299.601         57.4566 
        1.11063         296.911         56.7335 
        1.11677         296.834         56.0231 
         1.1229         294.755         55.3263 
        1.12903         292.556         54.6408 
        1.13518         290.097         53.9665 
        1.14131         288.499         53.3041 
        1.14745         287.245         52.6532 
        1.15359         285.036         52.0132 
        1.15973         283.212         51.3836 
        1.16584         281.066         50.7674 
        1.17197         280.814         50.1604 
        1.17811         277.522         49.5616 
        1.18424         275.538         48.9744 
        1.19038         274.605         48.3951 
        1.19652         272.356         47.8254 
        1.20267         271.616          47.265 
        1.20881         269.506         46.7137 
        1.21495         267.422         46.1722 
        1.22108         265.965         45.6394 
         1.2272         264.223         45.1163 
        1.23334         262.647         44.6003 
        1.23949         260.997         44.0912 
        1.24562         259.769         43.5915 
        1.25174          257.56         43.1003 
        1.25789         255.571         42.6153 
        1.26402         253.847         42.1387 
        1.27014         252.265         41.6705 
        1.27628         250.992         41.2082 
        1.28244         250.516          40.752 
        1.28858         247.779         40.3034 
        1.29471         245.993         39.8625 
        1.30084         244.772         39.4288 
        1.30697         243.268         39.0008 
        1.31312         240.874         38.5787 
        1.31925         240.518         38.1642 
        1.32537         239.308         37.7562 
        1.33151         236.923         37.3528 
        1.33765         235.254         36.9556 
        1.34378         234.491          36.565 
        1.34992         233.067         36.1798 
        1.35606         232.722         35.7993 
         1.3622         230.528         35.4251 
        1.36833         228.358         35.0571 
        1.37445         227.457         34.6946 
        1.38059         225.461         34.3361 
        1.38675         224.715         33.9819 
        1.39288         223.128         33.6341 
        1.39901         222.558         33.2914 
        1.40515         220.479         32.9527 
         1.4113         219.332         32.6189 
        1.41742         217.692          32.291 
        1.42355         216.528          31.967 
         1.4297         214.804         31.6466 
        1.43585         213.771         31.3306 
        1.44198         212.577         31.0203 
        1.44809         211.523         30.7147 
        1.45423         210.109         30.4122 
        1.46036         208.941         30.1143 
        1.46649         207.267         29.8203 
        1.47263         205.989           29.53 
        1.47877         204.837         29.2437 
        1.48491         203.114         28.9608 
        1.49104         202.518         28.6822 
        1.49718         200.645         28.4072 
        1.50333         199.963         28.1353 
        1.50947         198.755         27.8675 
         1.5156           196.9         27.6037 
        1.52172          196.17         27.3433 
        1.52787          194.55         27.0858 
          1.534         194.069         26.8319 
        1.54013         192.461         26.5815 
        1.54627         191.462         26.3339 
        1.55241         190.183         26.0895 
        1.55855         188.934         25.8485 
        1.56467         187.685         25.6112 
         1.5708         187.254         25.3763 
        1.57695         185.788          25.144 
        1.58308         184.825         24.9151 
        1.58922         183.208         24.6889 
        1.59535         181.858         24.4657 
         1.6015         181.433         24.2449 
        1.60764         180.108          24.027 
        1.61376         178.935         23.8123 
        1.61989         178.112         23.6002 
        1.62604         176.912         23.3901 
        1.63218         175.954         23.1828 
        1.63831          174.75         22.9785 
        1.64444         173.972         22.7765 
        1.65059         172.662         22.5765 
        1.65673         171.517         22.3792 
        1.66285         170.701         22.1848 
        1.66898         169.461         21.9926 
        1.67512         169.217         21.8024 
        1.68127         167.299         21.6142 
         1.6874         166.408         21.4287 
        1.69353         165.646         21.2455 
        1.69967         164.302          21.064 
        1.70581           163.6         20.8847 
        1.71193         162.321         20.7082 
        1.71806         161.864         20.5333 
        1.72421         160.632         20.3602 
        1.73035         160.044         20.1892 
        1.73649         159.032         20.0203 
        1.74262         157.867         19.8534 
        1.74876         157.059         19.6884 
        1.75489         156.048         19.5255 
        1.76101         154.859         19.3646 
        1.76715         154.496         19.2053 
        1.77329         153.599         19.0475 
        1.77943         152.583         18.8915 
        1.78557         151.786         18.7375 
        1.79171         150.902         18.5852 
        1.79785         149.787         18.4345 
        1.80399         148.907         18.2856 
        1.81012         148.049         18.1385 
        1.81625         147.468         17.9931 
        1.82239         146.428         17.8491 
        1.82853         145.882         17.7067 
        1.83466         144.707         17.5661 
        1.84078         144.168         17.4271 
        1.84692         142.679         17.2894 
        1.85306         142.541          17.153 
         1.8592         141.444         17.0184 
        1.86533         140.566         16.8852 
        1.87147         139.541         16.7534 
        1.87761         139.034         16.6228 
        1.88375         137.752         16.4939 
        1.88988           137.1         16.3665 
        1.89601         136.509         16.2403 
        1.90215         135.582         16.1154 
        1.90829         134.999         15.9918 
        1.91442         134.165         15.8696 
        1.92056         133.405         15.7487 
         1.9267         132.757          15.629 
        1.93284         131.826         15.5105 
        1.93897         131.078         15.3934 
        1.94509         130.433         15.2778 
        1.95123         129.884         15.1631 
        1.95737         129.135         15.0495 
        1.96349         128.355         14.9373 
        1.96964         127.248          14.826 
        1.97578         126.535         14.7157 
        1.98192         126.133         14.6069 
        1.98805         125.176         14.4991 
        1.99419         124.564         14.3923 
        2.00033          123.81         14.2867 
        2.00647         123.329         14.1821 
         2.0126         122.169         14.0787 
        2.01874         121.713         13.9762 
        2.02488         121.281         13.8747 
        2.03101         120.116         13.7744 
        2.03714         119.683         13.6751 
        2.04328         118.917         13.5767 
        2.04941         118.323         13.4794 
        2.05554         117.534         13.3831 
        2.06167         117.199         13.2876 
        2.06781         116.437          13.193 
        2.07396         115.535         13.0993 
        2.08009         115.103         13.0066 
        2.08622         114.331         12.9149 
        2.09237         113.648         12.8239 
        2.09851         113.092         12.7338 
        2.10464         112.633         12.6447 
        2.11077             112         12.5565 
        2.11691          111.41          12.469 
        2.12305         110.402         12.3824 
        2.12918         109.903         12.2968 
        2.13531         109.404          12.212 
        2.14145         108.609         12.1277 
         2.1476          107.83         12.0442 
        2.15372         107.548         11.9619 
        2.15985         107.119         11.8803 
        2.16599         106.272         11.7993 
        2.17213         105.676          11.719 
        2.17827         105.216         11.6396 
         2.1844         104.392         11.5609 
        2.19054         104.022          11.483 
        2.19666         103.492         11.4059 
         2.2028         102.728         11.3294 
        2.20893         102.328         11.2536 
        2.21508         101.665         11.1784 
        2.22122         101.143         11.1039 
        2.22736         100.668         11.0302 
        2.23349           100.1         10.9572 
        2.23962         99.4196         10.8848 
        2.24577         99.0377          10.813 
         2.2519         98.6589          10.742 
        2.25802         97.6691         10.6717 
        2.26417         97.3509         10.6018 
        2.27031         96.7193         10.5325 
        2.27644         96.2455         10.4641 
        2.28257         95.6398         10.3962 
        2.28872         95.2819         10.3289 
        2.29486         94.6382         10.2621 
        2.30099         94.2291         10.1961 
        2.30712         93.7156         10.1306 
        2.31326         93.0636         10.0656 
         2.3194         92.5407         10.0012 
        2.32553         92.1696         9.93749 
        2.33166          91.635         9.87435 
         2.3378         91.2187         9.81168 
        2.34394         90.7683         9.74953 
        2.35007         90.1638         9.68801 
        2.35619         89.7819          9.6271 
        2.36233         89.2061         9.56657 
        2.36848         88.6433         9.50644 
        2.37462         88.2806         9.44696 
        2.38075         87.7549         9.38804 
        2.38689         87.3226         9.32958 
        2.39303         86.6063         9.27163 
        2.39916         86.3886         9.21423 
        2.40529         86.0022         9.15732 
        2.41143         85.3935         9.10086 
        2.41757         85.0143         9.04485 
         2.4237         84.5195         8.98941 
        2.42983         83.9637         8.93444 
        2.43598         83.5344         8.87979 
        2.44211         83.3362         8.82569 
        2.44823         82.7983         8.77217 
        2.45437          82.079         8.71894 
        2.46052         81.6859         8.66611 
        2.46665         81.4049         8.61381 
        2.47279         80.8657         8.56197 
        2.47892         80.5682         8.51052 
        2.48507         80.0624         8.45944 
         2.4912         79.7734         8.40888 
