# k  (h/Mpc)    Pcb(k)  (Mpc/h)^3    Pcb_linear(k)  (Mpc/h)^3
     0.00783031         10249.6         10384.8 
       0.013688         12462.8         12380.8 
       0.019231         12088.9         12055.2 
      0.0249154         10470.8         10627.1 
      0.0312784         8634.85         8676.17 
      0.0375637         7031.65         6992.99 
      0.0433917         5821.31         5859.51 
      0.0492413         5131.02         5123.14 
      0.0555754         4577.22         4652.41 
      0.0619321         4390.69         4352.05 
       0.067871         4033.53         4091.43 
      0.0738098         3717.83         3771.58 
      0.0800417         3289.85          3357.5 
      0.0862327         2888.51         2909.01 
      0.0921407         2535.64          2506.8 
      0.0982031         2189.48         2169.11 
       0.104506         1996.21         1920.77 
       0.110769         1836.24         1769.92 
       0.116806         1737.55         1688.38 
       0.122832         1682.41          1635.5 
       0.129052         1588.15         1577.29 
       0.135211          1506.8         1493.97 
       0.141259         1421.21         1382.85 
       0.147318         1308.48         1253.17 
       0.153489         1173.85         1120.97 
       0.159709         1080.12         1005.51 
       0.165845         1013.73         919.155 
       0.171974         949.783          861.36 
       0.178125         909.335         825.937 
       0.184229         879.011         803.167 
        0.19034         831.132         782.049 
       0.196428         816.597         754.495 
       0.202534         787.146          716.79 
       0.208729         739.482         669.805 
       0.214876         692.706          619.69 
       0.220989         659.251         572.491 
       0.227147         621.045         532.328 
        0.23329         592.076         501.735 
       0.239377         577.152         480.204 
       0.245482         540.086         464.857 
       0.251667         536.294         452.141 
       0.257832         518.185         438.986 
       0.263955         500.375         423.283 
       0.270079         479.671         404.394 
        0.27624         470.688         383.202 
       0.282372         450.287         361.711 
        0.28843         434.797         341.967 
       0.294538         412.567         324.844 
       0.300721         408.151         310.835 
        0.30691         389.392         299.786 
       0.313033         381.083         290.805 
       0.319153         367.891         282.622 
       0.325316           358.3         274.152 
        0.33145         346.551         264.923 
       0.337538          340.86         254.909 
       0.343633         329.011         244.398 
       0.349808          317.43         233.871 
       0.355968         312.789         224.053 
       0.362074         305.665         215.422 
       0.368217         296.981         207.905 
       0.374374         285.257         201.423 
       0.380519         282.045         195.649 
       0.386598         274.608         190.234 
       0.392688          271.37         184.828 
        0.39888         264.045         179.141 
       0.405048         257.473         173.297 
       0.411186         252.077         167.441 
       0.417313         247.015         161.717 
       0.423458         241.582         156.296 
       0.429607         236.534         151.321 
       0.435692         229.771         146.835 
       0.441815         227.721         142.718 
       0.447964          223.02         138.886 
       0.454126         214.818         135.203 
       0.460267         211.888         131.586 
       0.466387         209.244         128.001 
        0.47254         204.437         124.403 
       0.478662         203.528         120.852 
       0.484765         196.603         117.411 
       0.490885         193.923         114.123 
       0.497035         190.877         111.004 
       0.503198          186.41         108.064 
       0.509342         184.214         105.309 
       0.515458         181.549         102.711 
       0.521598         177.991           100.2 
       0.527764         175.612         97.7373 
       0.533884         173.172         95.3309 
           0.54         170.309         92.9737 
       0.546137         169.032         90.6636 
       0.552299         165.663         88.4094 
       0.558452         163.579          86.235 
       0.564573         160.917         84.1582 
       0.570708         157.713         82.1721 
       0.576825         155.789         80.2818 
       0.582926         153.137         78.4713 
       0.589034         151.369         76.7159 
       0.595184         149.484         74.9933 
       0.601379         147.552         73.2999 
       0.607522         144.677          71.663 
       0.613639         143.792         70.0777 
       0.619772         140.762         68.5345 
       0.625918         139.328          67.035 
       0.632068         137.596         65.5815 
       0.638161          136.47         64.1873 
         0.6443         134.558         62.8286 
       0.650464         133.125         61.5096 
       0.656582         131.223         60.2421 
       0.662703          129.86         59.0116 
       0.668861         127.692         57.8081 
       0.675024          126.16         56.6347 
       0.681124         125.405         55.5019 
       0.687237         123.184          54.395 
       0.693381         121.398         53.3116 
       0.699536         120.563         52.2556 
       0.705665         120.252         51.2341 
       0.711789         117.671         50.2431 
       0.717957         117.364         49.2739 
        0.72409         115.516         48.3375 
       0.730186         113.786         47.4322 
       0.736317         113.014         46.5455 
       0.742472         112.196         45.6781 
       0.748622         111.031         44.8328 
        0.75476          109.99           44.01 
       0.760888         108.476         43.2083 
       0.767043         107.928         42.4232 
       0.773185         106.722          41.659 
       0.779291         105.087         40.9181 
       0.785407         104.585         40.1944 
       0.791564           103.7         39.4842 
       0.797719         101.845         38.7919 
       0.803834         101.383         38.1211 
       0.809972         100.211         37.4641 
       0.816124         99.7765         36.8214 
       0.822261         98.8115         36.1957 
       0.828378         97.9308         35.5865 
       0.834502         97.4051         34.9909 
       0.840667         96.0295         34.4051 
       0.846816         94.9253         33.8344 
       0.852925         94.3906         33.2803 
       0.859047          93.194         32.7375 
       0.865192          92.619          32.205 
       0.871341         91.8518         31.6841 
       0.877463         90.7667         31.1772 
       0.883569         90.3637         30.6827 
       0.889708         89.5767         30.1965 
       0.895864         88.7857         29.7196 
       0.902008         88.0721         29.2541 
       0.908149          87.572         28.7989 
       0.914301         86.6676         28.3528 
       0.920448         86.0138         27.9165 
       0.926574         85.3298         27.4911 
       0.932687          85.225         27.0755 
       0.938823         83.8464          26.667 
       0.944975          83.023         26.2661 
       0.951105         82.5987         25.8749 
       0.957225         81.7181         25.4924 
       0.963368         81.1541         25.1164 
       0.969511         80.9594          24.748 
       0.975621         80.4946          24.389 
       0.981748         79.7604         24.0363 
       0.987916         78.9824         23.6883 
        0.99406         78.4582         23.3486 
        1.00019         77.9683         23.0163 
        1.00632         77.3279         22.6908 
        1.01246         76.8469         22.3711 
        1.01859         75.9162         22.0581 
        1.02471         75.6769         21.7515 
        1.03085         74.9906         21.4498 
        1.03698         74.6793         21.1544 
        1.04314          73.972         20.8633 
        1.04929         73.4735         20.5785 
        1.05541         72.8007         20.3001 
        1.06154         72.6625         20.0263 
        1.06769         72.2341         19.7571 
        1.07382         71.8172         19.4937 
        1.07993         71.2922         19.2358 
        1.08607         70.7299         18.9815 
        1.09222         70.4646         18.7316 
        1.09836         69.8351         18.4864 
        1.10449         69.5035          18.246 
        1.11063         68.8854         18.0096 
        1.11677         68.5812         17.7775 
         1.1229         67.8817         17.5499 
        1.12903         67.2554         17.3261 
        1.13518         67.4735         17.1061 
        1.14131         66.9515           16.89 
        1.14745         66.2815         16.6778 
        1.15359         66.0064         16.4692 
        1.15973         65.4971         16.2642 
        1.16584         65.0817         16.0635 
        1.17197         64.7185          15.866 
        1.17811         64.3829         15.6712 
        1.18424         63.8767         15.4802 
        1.19038         63.5171         15.2919 
        1.19652         63.2813         15.1068 
        1.20267         62.5913         14.9248 
        1.20881         62.3753         14.7458 
        1.21495          61.919         14.5701 
        1.22108         61.7266         14.3973 
         1.2272         61.0225         14.2277 
        1.23334         60.8286         14.0604 
        1.23949         60.5985         13.8955 
        1.24562         60.1061         13.7336 
        1.25174         59.8635         13.5746 
        1.25789         59.6331         13.4176 
        1.26402         59.2309         13.2634 
        1.27014          58.728          13.112 
        1.27628          58.464         12.9625 
        1.28244         58.0822         12.8151 
        1.28858         57.8689         12.6702 
        1.29471          57.618         12.5278 
        1.30084         57.2706         12.3878 
        1.30697         56.8769         12.2497 
        1.31312         56.5218         12.1135 
        1.31925         56.2747         11.9799 
        1.32537          56.085         11.8483 
        1.33151         55.4897         11.7183 
        1.33765         55.3182         11.5904 
        1.34378         54.9984         11.4646 
        1.34992         54.7444         11.3405 
        1.35606         54.4585         11.2181 
         1.3622         54.0232         11.0977 
        1.36833         53.8475         10.9794 
        1.37445         53.5908         10.8628 
        1.38059         53.1693         10.7476 
        1.38675         52.9175         10.6338 
        1.39288          52.652         10.5221 
        1.39901         52.4784          10.412 
        1.40515         52.1055         10.3033 
         1.4113          51.909         10.1962 
        1.41742         51.7709          10.091 
        1.42355         51.3131         9.98714 
         1.4297         51.1775         9.88441 
        1.43585         50.8403         9.78317 
        1.44198          50.517         9.68374 
        1.44809         50.3757         9.58587 
        1.45423         50.0983         9.48901 
        1.46036         49.9139         9.39366 
        1.46649           49.64         9.29959 
        1.47263         49.2801         9.20674 
        1.47877         49.0767         9.11519 
        1.48491         49.0263         9.02476 
        1.49104         48.6249         8.93574 
        1.49718          48.178         8.84787 
        1.50333         48.1405         8.76104 
        1.50947         47.9327         8.67555 
         1.5156          47.619         8.59133 
        1.52172         47.4941         8.50824 
        1.52787         47.3692         8.42608 
          1.534         46.9858          8.3451 
        1.54013          46.747         8.26528 
        1.54627         46.6324         8.18636 
        1.55241         46.1815         8.10846 
        1.55855         46.0732         8.03168 
        1.56467         45.6917         7.95611 
         1.5708         45.7332          7.8813 
        1.57695         45.4806         7.80734 
        1.58308         45.1643         7.73451 
        1.58922         45.1087         7.66255 
        1.59535         44.9466         7.59154 
         1.6015         44.5113         7.52133 
        1.60764         44.3206         7.45205 
        1.61376         44.1279         7.38383 
        1.61989         43.9083         7.31641 
        1.62604         43.7702         7.24969 
        1.63218         43.6866         7.18384 
        1.63831         43.3828         7.11896 
        1.64444         43.1643         7.05486 
        1.65059         42.9434         6.99141 
        1.65673         42.7471          6.9288 
        1.66285          42.486         6.86713 
        1.66898         42.3378          6.8062 
        1.67512         42.1017         6.74589 
        1.68127         41.8924         6.68625 
         1.6874         41.7659         6.62747 
        1.69353         41.5219         6.56944 
        1.69967         41.3539         6.51196 
        1.70581         41.2895          6.4552 
        1.71193         41.0877         6.39933 
        1.71806         40.6792           6.344 
        1.72421          40.617         6.28922 
        1.73035         40.4437         6.23515 
        1.73649          40.093         6.18173 
        1.74262         40.0583         6.12898 
        1.74876         39.9132         6.07681 
        1.75489         39.7113         6.02536 
        1.76101          39.541         5.97452 
        1.76715          39.339         5.92419 
        1.77329         39.1832         5.87439 
        1.77943          39.002         5.82514 
        1.78557         38.8189         5.77652 
        1.79171         38.6314         5.72845 
        1.79785         38.4529         5.68092 
        1.80399         38.3999         5.63394 
        1.81012         38.1186         5.58756 
        1.81625         37.8889         5.54171 
        1.82239         37.8205         5.49632 
        1.82853         37.5723         5.45145 
        1.83466         37.4234         5.40713 
        1.84078         37.1693         5.36336 
        1.84692         37.0709         5.31999 
        1.85306         36.8787         5.27705 
         1.8592         36.6785         5.23466 
        1.86533         36.5951         5.19275 
        1.87147         36.4855         5.15126 
        1.87761          36.329          5.1102 
        1.88375         36.1198         5.06964 
        1.88988         36.0503         5.02956 
        1.89601         35.8358          4.9899 
        1.90215         35.7093         4.95063 
        1.90829          35.612          4.9118 
        1.91442         35.3899         4.87339 
        1.92056         35.2062         4.83542 
         1.9267         35.0362         4.79782 
        1.93284         34.8655          4.7606 
        1.93897         34.8078         4.72384 
        1.94509          34.554         4.68755 
        1.95123          34.479         4.65155 
        1.95737         34.2595          4.6159 
        1.96349          34.132         4.58072 
        1.96964         34.0723         4.54581 
        1.97578         33.8172         4.51124 
        1.98192         33.7251          4.4771 
        1.98805         33.6334         4.44332 
        1.99419         33.4284         4.40988 
        2.00033         33.2815         4.37676 
        2.00647         33.1215           4.344 
         2.0126          32.952         4.31163 
        2.01874         32.9147         4.27954 
        2.02488         32.7606         4.24775 
        2.03101         32.5918         4.21634 
        2.03714         32.4427         4.18528 
        2.04328          32.301          4.1545 
        2.04941         32.1651         4.12405 
        2.05554         32.0115         4.09393 
        2.06167          31.938         4.06407 
        2.06781         31.7204          4.0345 
        2.07396         31.6515         4.00519 
        2.08009         31.5512         3.97622 
        2.08622         31.3341         3.94756 
        2.09237         31.2179         3.91914 
        2.09851         31.0786         3.89099 
        2.10464         30.9875         3.86316 
        2.11077         30.8898         3.83564 
        2.11691         30.7036         3.80832 
        2.12305         30.5739         3.78127 
        2.12918         30.4726         3.75455 
        2.13531         30.3349         3.72809 
        2.14145         30.2551         3.70182 
         2.1476         30.0785         3.67577 
        2.15372         29.9346          3.6501 
        2.15985         29.8184         3.62466 
        2.16599         29.8039         3.59938 
        2.17213         29.6763         3.57437 
        2.17827         29.4178         3.54961 
         2.1844         29.3496          3.5251 
        2.19054         29.2484         3.50082 
        2.19666         29.1276          3.4768 
         2.2028         28.9518         3.45298 
        2.20893         28.9051         3.42938 
        2.21508         28.8104         3.40596 
        2.22122         28.5979         3.38276 
        2.22736          28.562         3.35983 
        2.23349         28.4214         3.33711 
        2.23962         28.2771         3.31459 
        2.24577         28.1619         3.29226 
         2.2519         28.0738         3.27017 
        2.25802         27.9304         3.24831 
        2.26417         27.8633         3.22659 
        2.27031         27.7455         3.20505 
        2.27644          27.578         3.18378 
        2.28257         27.5157         3.16269 
        2.28872         27.3929         3.14176 
        2.29486         27.3276         3.12102 
        2.30099         27.1572         3.10051 
        2.30712         27.0688         3.08018 
        2.31326         27.0141         3.05999 
         2.3194         26.8924            3.04 
        2.32553         26.7476         3.02022 
        2.33166          26.648         3.00062 
         2.3378         26.4901         2.98117 
        2.34394         26.4018         2.96189 
        2.35007          26.324          2.9428 
        2.35619         26.2005         2.92391 
        2.36233         26.1431         2.90514 
        2.36848         26.0055         2.88649 
        2.37462          25.895         2.86805 
        2.38075         25.8257         2.84978 
        2.38689         25.7445         2.83166 
        2.39303         25.5973          2.8137 
        2.39916         25.4717         2.79592 
        2.40529         25.3663         2.77829 
        2.41143         25.3101          2.7608 
        2.41757         25.2176         2.74345 
         2.4237         25.0836         2.72628 
        2.42983         24.9456         2.70927 
        2.43598         24.8808         2.69235 
        2.44211         24.7764          2.6756 
        2.44823         24.6888         2.65904 
        2.45437         24.5767         2.64257 
        2.46052         24.4431         2.62622 
        2.46665         24.4304         2.61005 
        2.47279         24.3137         2.59401 
        2.47892         24.2049          2.5781 
        2.48507         24.0845         2.56231 
         2.4912         24.0584         2.54668 
