# k  (h/Mpc)    Pcb(k)  (Mpc/h)^3    Pcb_linear(k)  (Mpc/h)^3
     0.00783031          425.69         429.873 
       0.013688         511.928         513.674 
       0.019231          500.24         500.501 
      0.0249154         439.783         441.352 
      0.0312784         360.685         360.396 
      0.0375637         291.518         290.511 
      0.0433917         243.815         243.438 
      0.0492413         213.396         212.854 
      0.0555754         193.089         193.303 
      0.0619321         181.386         180.828 
       0.067871         169.671         170.002 
      0.0738098         156.324         156.714 
      0.0800417          139.02          139.51 
      0.0862327         120.818         120.876 
      0.0921407          104.33         104.164 
      0.0982031         90.1843          90.133 
       0.104506         80.2764         79.8139 
       0.110769         73.8899         73.5462 
       0.116806         70.1836         70.1578 
       0.122832         68.1061         67.9608 
       0.129052         65.4285         65.5421 
       0.135211         61.9358         62.0799 
       0.141259         57.5142         57.4627 
       0.147318         52.2889         52.0742 
       0.153489         46.7501          46.581 
       0.159709         41.9978          41.783 
       0.165845         38.5953         38.1948 
       0.171974         35.9752         35.7932 
       0.178125         34.5367         34.3212 
       0.184229         33.5999         33.3751 
        0.19034         32.5151         32.4975 
       0.196428         31.4759         31.3526 
       0.202534         30.0623         29.7858 
       0.208729         28.0216         27.8334 
       0.214876          25.885         25.7509 
       0.220989         24.0749         23.7896 
       0.227147         22.2942         22.1206 
        0.23329         21.0299         20.8494 
       0.239377         20.1634         19.9547 
       0.245482         19.4384          19.317 
       0.251667         19.0022         18.7885 
       0.257832         18.4048         18.2419 
       0.263955         17.7713         17.5894 
       0.270079         16.9916         16.8044 
        0.27624         16.1868         15.9238 
       0.282372         15.3072         15.0308 
        0.28843          14.437         14.2103 
       0.294538         13.7289         13.4988 
       0.300721         13.2063         12.9167 
        0.30691         12.6804         12.4575 
       0.313033         12.3047         12.0843 
       0.319153          11.871         11.7443 
       0.325316         11.6382         11.3923 
        0.33145         11.2308         11.0088 
       0.337538         10.8157         10.5927 
       0.343633          10.351         10.1559 
       0.349808         9.94762         9.71844 
       0.355968         9.54787         9.31047 
       0.362074         9.17411         8.95182 
       0.368217         8.86682         8.63944 
       0.374374         8.56225          8.3701 
       0.380519         8.34942         8.13015 
       0.386598         8.13318         7.90514 
       0.392688         7.92707         7.68051 
        0.39888         7.67047         7.44417 
       0.405048         7.43593         7.20133 
       0.411186         7.19784         6.95796 
       0.417313          6.9403         6.72014 
       0.423458         6.73079         6.49485 
       0.429607         6.50582         6.28813 
       0.435692         6.31587         6.10172 
       0.441815         6.14678         5.93064 
       0.447964         6.01089         5.77137 
       0.454126         5.82368         5.61834 
       0.460267          5.6785         5.46803 
       0.466387         5.51057         5.31905 
        0.47254         5.37466         5.16954 
       0.478662         5.23931         5.02199 
       0.484765         5.07661         4.87901 
       0.490885           4.944         4.74235 
       0.497035          4.8471         4.61277 
       0.503198         4.70532         4.49059 
       0.509342         4.59418         4.37609 
       0.515458         4.47492         4.26812 
       0.521598         4.37297         4.16381 
       0.527764         4.25599         4.06146 
       0.533884         4.17761         3.96147 
           0.54         4.07065         3.86351 
       0.546137         3.97839         3.76752 
       0.552299         3.88528         3.67384 
       0.558452         3.77703         3.58349 
       0.564573         3.70291         3.49719 
       0.570708         3.61799         3.41465 
       0.576825         3.52902          3.3361 
       0.582926         3.46239         3.26087 
       0.589034         3.36524         3.18792 
       0.595184         3.30102         3.11634 
       0.601379         3.22679         3.04597 
       0.607522          3.1714         2.97795 
       0.613639         3.11437         2.91207 
       0.619772         3.02887         2.84795 
       0.625918         2.97722         2.78563 
       0.632068         2.92452         2.72523 
       0.638161         2.85355          2.6673 
         0.6443         2.79469         2.61084 
       0.650464         2.73044         2.55603 
       0.656582         2.68967         2.50336 
       0.662703         2.63592         2.45222 
       0.668861         2.59197         2.40221 
       0.675024          2.5344         2.35345 
       0.681124         2.48084         2.30638 
       0.687237         2.44188         2.26038 
       0.693381         2.39634         2.21536 
       0.699536         2.33537         2.17148 
       0.705665         2.29643         2.12903 
       0.711789         2.25894         2.08785 
       0.717957          2.2125         2.04757 
        0.72409         2.17381         2.00866 
       0.730186         2.13364         1.97104 
       0.736317         2.10933          1.9342 
       0.742472         2.06984         1.89815 
       0.748622         2.02777         1.86303 
        0.75476         1.98745         1.82883 
       0.760888         1.95304         1.79552 
       0.767043         1.93036         1.76289 
       0.773185         1.88849         1.73114 
       0.779291         1.86114         1.70035 
       0.785407          1.8283         1.67028 
       0.791564         1.80072         1.64076 
       0.797719         1.77327           1.612 
       0.803834         1.74681         1.58412 
       0.809972         1.71681         1.55682 
       0.816124         1.68465         1.53011 
       0.822261         1.65344         1.50411 
       0.828378         1.63171          1.4788 
       0.834502         1.61169         1.45405 
       0.840667          1.5765          1.4297 
       0.846816         1.55266         1.40599 
       0.852925         1.53671         1.38296 
       0.859047         1.51202         1.36041 
       0.865192          1.4863         1.33828 
       0.871341         1.46543         1.31663 
       0.877463           1.447         1.29557 
       0.883569         1.42002         1.27502 
       0.889708         1.39913         1.25481 
       0.895864         1.37821           1.235 
       0.902008         1.35601         1.21565 
       0.908149         1.33851         1.19674 
       0.914301         1.31222          1.1782 
       0.920448         1.29581         1.16007 
       0.926574         1.27656         1.14239 
       0.932687         1.25816         1.12512 
       0.938823         1.24584         1.10815 
       0.944975         1.22699         1.09149 
       0.951105          1.2111         1.07523 
       0.957225         1.19838         1.05934 
       0.963368         1.17984         1.04371 
       0.969511         1.16088          1.0284 
       0.975621         1.14303         1.01348 
       0.981748         1.13235        0.998827 
       0.987916         1.11479        0.984368 
        0.99406          1.0977        0.970252 
        1.00019         1.08731        0.956442 
        1.00632         1.06903        0.942915 
        1.01246          1.0556         0.92963 
        1.01859         1.04351        0.916625 
        1.02471         1.02835        0.903885 
        1.03085         1.01811        0.891345 
        1.03698         1.00242         0.87907 
        1.04314        0.991213        0.866976 
        1.04929        0.977074        0.855139 
        1.05541        0.966811        0.843572 
        1.06154         0.95283        0.832192 
        1.06769        0.941131        0.821005 
        1.07382        0.929534        0.810062 
        1.07993        0.915372        0.799344 
        1.08607        0.909343        0.788776 
        1.09222        0.895254         0.77839 
        1.09836        0.888092        0.768204 
        1.10449         0.87703        0.758213 
        1.11063        0.862673         0.74839 
        1.11677        0.851941        0.738745 
         1.1229        0.843203        0.729288 
        1.12903        0.832339        0.719989 
        1.13518         0.82443        0.710845 
        1.14131        0.812892        0.701866 
        1.14745        0.798982        0.693047 
        1.15359        0.793696         0.68438 
        1.15973        0.781458        0.675858 
        1.16584        0.777635         0.66752 
        1.17197        0.767115        0.659311 
        1.17811        0.759559        0.651216 
        1.18424        0.752498        0.643281 
        1.19038        0.741259        0.635456 
        1.19652        0.731799        0.627764 
        1.20267        0.726835        0.620201 
        1.20881        0.716227        0.612764 
        1.21495        0.710605        0.605462 
        1.22108        0.702286         0.59828 
         1.2272        0.696347        0.591232 
        1.23334        0.686877        0.584281 
        1.23949         0.67952        0.577427 
        1.24562         0.67291        0.570701 
        1.25174        0.666175        0.564093 
        1.25789        0.659356         0.55757 
        1.26402        0.650115        0.551162 
        1.27014        0.643664        0.544871 
        1.27628        0.639595        0.538659 
        1.28244        0.629658        0.532533 
        1.28858         0.62415         0.52651 
        1.29471        0.618863        0.520595 
        1.30084        0.611005        0.514776 
        1.30697          0.6048        0.509037 
        1.31312         0.59639        0.503378 
        1.31925        0.592318        0.497824 
        1.32537        0.587016        0.492359 
        1.33151        0.582049        0.486956 
        1.33765        0.575335        0.481639 
        1.34378        0.567941        0.476411 
        1.34992        0.564085        0.471258 
        1.35606        0.557458         0.46617 
         1.3622        0.552642        0.461166 
        1.36833        0.546778        0.456248 
        1.37445        0.539767        0.451405 
        1.38059        0.535364        0.446617 
        1.38675        0.533498        0.441888 
        1.39288         0.52608        0.437246 
        1.39901         0.52125        0.432673 
        1.40515        0.516693        0.428155 
         1.4113        0.510609        0.423704 
        1.41742        0.505947        0.419334 
        1.42355         0.50355        0.415017 
         1.4297        0.496566        0.410748 
        1.43585        0.492226        0.406541 
        1.44198        0.489927        0.402409 
        1.44809        0.483273        0.398342 
        1.45423        0.479228        0.394317 
        1.46036        0.474856        0.390355 
        1.46649        0.470817        0.386445 
        1.47263        0.465954        0.382587 
        1.47877        0.461287        0.378783 
        1.48491         0.45755        0.375025 
        1.49104        0.452438        0.371326 
        1.49718        0.449416        0.367674 
        1.50333        0.445315        0.364066 
        1.50947        0.441558        0.360514 
         1.5156        0.437066        0.357014 
        1.52172        0.433397        0.353561 
        1.52787        0.429172        0.350147 
          1.534        0.425883        0.346782 
        1.54013        0.421293        0.343465 
        1.54627         0.41813        0.340185 
        1.55241        0.414096        0.336948 
        1.55855        0.410284        0.333758 
        1.56467        0.408607        0.330617 
         1.5708        0.403746        0.327509 
        1.57695        0.401004        0.324435 
        1.58308        0.397277        0.321409 
        1.58922        0.393944        0.318418 
        1.59535         0.39035        0.315468 
         1.6015        0.387136         0.31255 
        1.60764        0.384317        0.309671 
        1.61376        0.380082        0.306836 
        1.61989        0.377765        0.304035 
        1.62604        0.374401        0.301262 
        1.63218         0.37198        0.298526 
        1.63831        0.368688         0.29583 
        1.64444        0.365306        0.293166 
        1.65059        0.362635        0.290529 
        1.65673        0.359372        0.287927 
        1.66285        0.356856        0.285365 
        1.66898         0.35456        0.282833 
        1.67512        0.350543        0.280326 
        1.68127        0.347548        0.277848 
         1.6874        0.346077        0.275406 
        1.69353        0.342482        0.272994 
        1.69967        0.340088        0.270606 
        1.70581        0.337116        0.268247 
        1.71193         0.33464        0.265925 
        1.71806        0.331861        0.263626 
        1.72421        0.329463         0.26135 
        1.73035         0.32637        0.259103 
        1.73649        0.324722        0.256883 
        1.74262        0.321948        0.254691 
        1.74876         0.31918        0.252523 
        1.75489        0.316786        0.250385 
        1.76101        0.314137        0.248272 
        1.76715         0.31184        0.246181 
        1.77329        0.309538        0.244112 
        1.77943        0.306787        0.242065 
        1.78557        0.304966        0.240045 
        1.79171         0.30285        0.238047 
        1.79785        0.300315        0.236072 
        1.80399         0.29806         0.23412 
        1.81012        0.296106        0.232192 
        1.81625        0.293792        0.230287 
        1.82239        0.291982        0.228401 
        1.82853        0.288844        0.226536 
        1.83466        0.287153        0.224695 
        1.84078        0.284681        0.222875 
        1.84692        0.282971        0.221073 
        1.85306        0.281437        0.219289 
         1.8592        0.279096        0.217527 
        1.86533        0.277393        0.215786 
        1.87147        0.275145        0.214062 
        1.87761        0.273429        0.212356 
        1.88375        0.270784         0.21067 
        1.88988        0.269347        0.209005 
        1.89601        0.267024        0.207356 
        1.90215        0.265547        0.205725 
        1.90829        0.263343        0.204111 
        1.91442        0.261819        0.202515 
        1.92056        0.259804        0.200937 
         1.9267        0.257834        0.199375 
        1.93284        0.256064        0.197828 
        1.93897        0.254328        0.196301 
        1.94509        0.252917        0.194792 
        1.95123        0.250713        0.193296 
        1.95737        0.249469        0.191815 
        1.96349        0.247335        0.190353 
        1.96964        0.245769        0.188902 
        1.97578        0.243906        0.187466 
        1.98192        0.242605        0.186047 
        1.98805         0.24112        0.184643 
        1.99419        0.239186        0.183254 
        2.00033        0.237748        0.181878 
        2.00647        0.236391        0.180516 
         2.0126        0.234348        0.179171 
        2.01874         0.23307        0.177838 
        2.02488        0.231723        0.176517 
        2.03101          0.2298        0.175211 
        2.03714        0.228124        0.173921 
        2.04328        0.227076        0.172641 
        2.04941        0.225494        0.171376 
        2.05554        0.223994        0.170125 
        2.06167         0.22274        0.168884 
        2.06781        0.220506        0.167655 
        2.07396         0.21931        0.166437 
        2.08009         0.21793        0.165233 
        2.08622        0.216733        0.164042 
        2.09237        0.215751        0.162861 
        2.09851        0.214235        0.161691 
        2.10464        0.212737        0.160535 
        2.11077        0.211444        0.159391 
        2.11691        0.209933        0.158256 
        2.12305        0.208635        0.157132 
        2.12918        0.207569        0.156022 
        2.13531        0.205984        0.154922 
        2.14145        0.204764         0.15383 
         2.1476        0.203639        0.152748 
        2.15372        0.202667        0.151681 
        2.15985        0.200945        0.150624 
        2.16599        0.199481        0.149574 
        2.17213        0.198712        0.148534 
        2.17827        0.197503        0.147505 
         2.1844        0.196459        0.146487 
        2.19054         0.19496        0.145478 
        2.19666         0.19344         0.14448 
         2.2028        0.192753         0.14349 
        2.20893        0.191728        0.142509 
        2.21508         0.19007        0.141536 
        2.22122        0.188746        0.140572 
        2.22736        0.188036        0.139619 
        2.23349        0.186868        0.138675 
        2.23962        0.186048        0.137739 
        2.24577        0.184428        0.136811 
         2.2519        0.183793        0.135893 
        2.25802        0.182337        0.134985 
        2.26417        0.181409        0.134082 
        2.27031        0.180171        0.133187 
        2.27644        0.179309        0.132303 
        2.28257        0.178256        0.131427 
        2.28872        0.177174        0.130557 
        2.29486        0.176176        0.129695 
        2.30099        0.175143        0.128843 
        2.30712        0.174268        0.127998 
        2.31326        0.172951        0.127159 
         2.3194        0.172772        0.126328 
        2.32553        0.171654        0.125506 
        2.33166        0.170716        0.124692 
         2.3378         0.16964        0.123884 
        2.34394        0.168188        0.123082 
        2.35007         0.16745        0.122289 
        2.35619        0.166449        0.121504 
        2.36233        0.165235        0.120724 
        2.36848        0.164653        0.119949 
        2.37462        0.163543        0.119183 
        2.38075         0.16308        0.118424 
        2.38689        0.161903        0.117671 
        2.39303          0.1614        0.116925 
        2.39916        0.159865        0.116186 
        2.40529        0.159257        0.115453 
        2.41143         0.15845        0.114726 
        2.41757        0.157536        0.114005 
         2.4237        0.156781        0.113292 
        2.42983        0.155811        0.112585 
        2.43598        0.155339        0.111882 
        2.44211        0.154299        0.111186 
        2.44823        0.153683        0.110498 
        2.45437        0.152336        0.109813 
        2.46052        0.151851        0.109134 
        2.46665        0.150874        0.108462 
        2.47279        0.150134        0.107795 
        2.47892        0.149301        0.107134 
        2.48507        0.148402        0.106478 
         2.4912        0.147816        0.105828 
