# k  (h/Mpc)    P(k)  (Mpc/h)^3    P_linear(k)  (Mpc/h)^3
     0.00783031         2794.68         2831.62 
       0.013688         3376.11         3376.95 
       0.019231         3289.78         3288.04 
      0.0249154         2875.45         2898.41 
      0.0312784         2364.02         2366.22 
      0.0375637         1915.99         1907.12 
      0.0433917          1596.1         1597.97 
      0.0492413         1400.63         1397.13 
      0.0555754         1260.79         1268.75 
      0.0619321         1194.72         1186.82 
       0.067871         1109.79         1115.74 
      0.0738098         1022.35         1028.51 
      0.0800417          907.26         915.589 
      0.0862327         791.383         793.284 
      0.0921407         686.766         683.599 
      0.0982031         592.536         591.512 
       0.104506         532.335         523.787 
       0.110769         489.726         482.652 
       0.116806          463.54         460.413 
       0.122832         450.543         445.993 
       0.129052         430.038         430.119 
       0.135211         407.281         407.396 
       0.141259         380.341         377.096 
       0.147318         347.313         341.732 
       0.153489         310.545         305.683 
       0.159709             281         274.196 
       0.165845          260.31         250.648 
       0.171974         242.126         234.887 
       0.178125         232.685         225.227 
       0.184229          226.17         219.018 
        0.19034         216.341          213.26 
       0.196428         211.038         205.747 
       0.202534         202.822         195.464 
       0.208729         189.103         182.651 
       0.214876          174.93         168.985 
       0.220989         164.393         156.114 
       0.227147         152.437         145.162 
        0.23329         144.353         136.819 
       0.239377         139.311         130.948 
       0.245482         132.574         126.763 
       0.251667          130.56         123.295 
       0.257832         126.641         119.708 
       0.263955          122.07         115.426 
       0.270079         116.884         110.275 
        0.27624         112.672         104.496 
       0.282372         107.142         98.6357 
        0.28843          101.44         93.2518 
       0.294538         96.6067         88.5818 
       0.300721         93.9342         84.7617 
        0.30691         89.8405         81.7494 
       0.313033         87.2879         79.3002 
       0.319153          83.608         77.0685 
       0.325316         82.4317         74.7593 
        0.33145          79.286         72.2428 
       0.337538         77.1161         69.5116 
       0.343633         73.9827         66.6454 
       0.349808          71.415         63.7747 
       0.355968         69.1025         61.0968 
       0.362074         66.6385          58.744 
       0.368217           64.51          56.694 
       0.374374         62.5366         54.9265 
       0.380519         61.0682          53.352 
       0.386598         59.4423         51.8752 
       0.392688         58.2124         50.4012 
        0.39888          56.455         48.8503 
       0.405048         54.9767         47.2567 
       0.411186         53.5032         45.6596 
       0.417313         51.7028          44.099 
       0.423458         50.2587         42.6206 
       0.429607         48.8616         41.2641 
       0.435692         47.2589         40.0406 
       0.441815         46.4879         38.9182 
       0.447964         45.6552         37.8729 
       0.454126         43.7732         36.8688 
       0.460267         43.0761         35.8823 
       0.466387         41.8562         34.9048 
        0.47254         41.1211         33.9235 
       0.478662         40.3921         32.9554 
       0.484765          39.106         32.0171 
       0.490885         38.2075         31.1202 
       0.497035         37.6756           30.27 
       0.503198         36.6193         29.4682 
       0.509342         35.6701         28.7168 
       0.515458         34.9305         28.0083 
       0.521598         34.3289         27.3239 
       0.527764         33.6042         26.6521 
       0.533884         33.0328         25.9959 
           0.54         32.2569         25.3531 
       0.546137         31.7607         24.7232 
       0.552299         31.2139         24.1085 
       0.558452         30.2534         23.5156 
       0.564573         29.7589         22.9492 
       0.570708         29.2713         22.4076 
       0.576825         28.5848         21.8922 
       0.582926         27.9969         21.3984 
       0.589034         27.2843         20.9198 
       0.595184         26.9351         20.4501 
       0.601379         26.4047         19.9882 
       0.607522         25.8916         19.5419 
       0.613639         25.6399         19.1096 
       0.619772         24.9723         18.6888 
       0.625918         24.8035         18.2799 
       0.632068         24.4072         17.8835 
       0.638161         23.8772         17.5033 
         0.6443         23.4074         17.1328 
       0.650464          22.979         16.7732 
       0.656582         22.8233         16.4275 
       0.662703         22.3743          16.092 
       0.668861         21.9478         15.7638 
       0.675024         21.5627         15.4438 
       0.681124         21.1838         15.1349 
       0.687237         20.8188          14.833 
       0.693381         20.6312         14.5376 
       0.699536         20.0976         14.2497 
       0.705665           20.03         13.9711 
       0.711789         19.5642         13.7009 
       0.717957         19.2893         13.4366 
        0.72409         19.0099         13.1812 
       0.730186         18.7351         12.9343 
       0.736317         18.5252         12.6926 
       0.742472          18.202          12.456 
       0.748622         18.0088         12.2255 
        0.75476           17.68         12.0011 
       0.760888         17.4076         11.7826 
       0.767043         17.1911         11.5684 
       0.773185         16.8861         11.3601 
       0.779291         16.7934          11.158 
       0.785407         16.5969         10.9607 
       0.791564         16.2915          10.767 
       0.797719         15.9145         10.5782 
       0.803834         15.8927         10.3953 
       0.809972         15.7356         10.2161 
       0.816124           15.38         10.0409 
       0.822261           15.21         9.87025 
       0.828378         15.0597         9.70414 
       0.834502         14.9153         9.54173 
       0.840667         14.6934         9.38199 
       0.846816         14.4191         9.22636 
       0.852925         14.2827         9.07526 
       0.859047         14.1232         8.92723 
       0.865192         13.9811         8.78204 
       0.871341         13.8627            8.64 
       0.877463         13.6143         8.50176 
       0.883569         13.4411         8.36691 
       0.889708         13.2317         8.23432 
       0.895864         13.1119         8.10428 
       0.902008         13.0154         7.97735 
       0.908149         12.8692         7.85323 
       0.914301         12.7756         7.73156 
       0.920448         12.5363         7.61261 
       0.926574         12.4146         7.49659 
       0.932687         12.2711         7.38325 
       0.938823         12.1105         7.27187 
       0.944975          11.977         7.16254 
       0.951105         11.8587         7.05587 
       0.957225         11.7524         6.95156 
       0.963368         11.6479         6.84902 
       0.969511         11.5311         6.74857 
       0.975621         11.4139         6.65068 
       0.981748         11.2545         6.55449 
       0.987916         11.1863         6.45961 
        0.99406         11.0269         6.36697 
        1.00019         10.8669         6.27635 
        1.00632         10.8313         6.18758 
        1.01246          10.725         6.10041 
        1.01859         10.5467         6.01506 
        1.02471         10.5036         5.93146 
        1.03085         10.3927         5.84917 
        1.03698         10.2269         5.76862 
        1.04314           10.17         5.68926 
        1.04929         10.0424         5.61158 
        1.05541         9.92825         5.53568 
        1.06154         9.86559         5.46099 
        1.06769         9.81308         5.38758 
        1.07382         9.67337         5.31577 
        1.07993         9.59228         5.24544 
        1.08607         9.50144         5.17609 
        1.09222         9.42768         5.10794 
        1.09836         9.31158          5.0411 
        1.10449         9.24131         4.97553 
        1.11063         9.13257         4.91107 
        1.11677         9.09356         4.84778 
         1.1229         9.03404         4.78572 
        1.12903         8.91081          4.7247 
        1.13518         8.80035         4.66469 
        1.14131         8.76236         4.60577 
        1.14745         8.67627          4.5479 
        1.15359         8.61773         4.49103 
        1.15973         8.52974          4.4351 
        1.16584         8.40919         4.38039 
        1.17197         8.36735         4.32652 
        1.17811         8.31631          4.2734 
        1.18424          8.2362         4.22132 
        1.19038         8.20073         4.16998 
        1.19652         8.10546          4.1195 
        1.20267         8.02858         4.06987 
        1.20881         7.99762         4.02107 
        1.21495         7.93352         3.97315 
        1.22108         7.83409         3.92602 
         1.2272         7.77732         3.87977 
        1.23334         7.70536         3.83416 
        1.23949         7.63546         3.78918 
        1.24562         7.59945         3.74504 
        1.25174         7.54404         3.70168 
        1.25789         7.47868         3.65888 
        1.26402         7.44603         3.61683 
        1.27014         7.37526         3.57554 
        1.27628         7.28578         3.53478 
        1.28244         7.22596         3.49458 
        1.28858         7.22238         3.45505 
        1.29471         7.13648         3.41624 
        1.30084         7.06576         3.37805 
        1.30697         7.05023         3.34039 
        1.31312         6.94893         3.30326 
        1.31925         6.89761         3.26681 
        1.32537         6.86331         3.23094 
        1.33151         6.82752         3.19549 
        1.33765         6.76317          3.1606 
        1.34378         6.71241         3.12629 
        1.34992         6.66023         3.09248 
        1.35606         6.61827         3.05909 
         1.3622         6.57955         3.02625 
        1.36833         6.51193         2.99398 
        1.37445         6.47834          2.9622 
        1.38059         6.44856         2.93078 
        1.38675         6.38509         2.89974 
        1.39288         6.36231         2.86928 
        1.39901         6.28818         2.83927 
        1.40515         6.26059         2.80963 
         1.4113         6.21349         2.78042 
        1.41742         6.16823         2.75174 
        1.42355          6.1158         2.72341 
         1.4297         6.09036          2.6954 
        1.43585          6.0573         2.66779 
        1.44198         6.02514         2.64068 
        1.44809         5.97395         2.61399 
        1.45423         5.92701         2.58758 
        1.46036         5.88188         2.56157 
        1.46649         5.85692         2.53592 
        1.47263         5.80036          2.5106 
        1.47877         5.76478         2.48564 
        1.48491         5.73701         2.46098 
        1.49104         5.69782         2.43671 
        1.49718          5.6647         2.41274 
        1.50333         5.63085         2.38906 
        1.50947         5.58218         2.36575 
         1.5156         5.55649         2.34279 
        1.52172         5.52871         2.32013 
        1.52787         5.48794         2.29772 
          1.534         5.44584         2.27564 
        1.54013         5.41918         2.25388 
        1.54627         5.37413         2.23235 
        1.55241         5.34481         2.21111 
        1.55855         5.32333         2.19017 
        1.56467         5.27974         2.16957 
         1.5708         5.26296         2.14917 
        1.57695         5.21803           2.129 
        1.58308         5.17537         2.10914 
        1.58922         5.16412         2.08952 
        1.59535         5.13931         2.07015 
         1.6015         5.08998         2.05101 
        1.60764         5.05387         2.03211 
        1.61376         5.04042         2.01351 
        1.61989         5.00719         1.99513 
        1.62604          4.9777         1.97693 
        1.63218         4.96347         1.95898 
        1.63831         4.92403         1.94128 
        1.64444         4.89899         1.92381 
        1.65059         4.84729          1.9065 
        1.65673         4.85207         1.88943 
        1.66285         4.80026         1.87261 
        1.66898           4.776           1.856 
        1.67512         4.75629         1.83955 
        1.68127         4.72406         1.82329 
         1.6874          4.7059         1.80726 
        1.69353         4.66453         1.79143 
        1.69967         4.65271         1.77576 
        1.70581         4.62962         1.76028 
        1.71193         4.59292         1.74505 
        1.71806         4.57625         1.72996 
        1.72421          4.5474         1.71502 
        1.73035          4.5304         1.70028 
        1.73649         4.50292         1.68571 
        1.74262         4.47393         1.67133 
        1.74876         4.45939          1.6571 
        1.75489          4.4341         1.64307 
        1.76101         4.40041          1.6292 
        1.76715         4.38665         1.61548 
        1.77329         4.35719          1.6019 
        1.77943         4.32821         1.58847 
        1.78557         4.31736         1.57521 
        1.79171         4.29356          1.5621 
        1.79785         4.26773         1.54914 
        1.80399         4.24433         1.53633 
        1.81012         4.22367         1.52368 
        1.81625         4.20315         1.51118 
        1.82239         4.18552          1.4988 
        1.82853         4.15573         1.48657 
        1.83466         4.13784         1.47448 
        1.84078         4.12276         1.46255 
        1.84692         4.11003         1.45072 
        1.85306         4.07675         1.43901 
         1.8592         4.05225         1.42745 
        1.86533         4.03549         1.41602 
        1.87147         4.01766         1.40471 
        1.87761         3.99793         1.39351 
        1.88375         3.97106         1.38245 
        1.88988         3.96141         1.37152 
        1.89601         3.93925         1.36071 
        1.90215         3.91817            1.35 
        1.90829         3.89646         1.33941 
        1.91442         3.87925         1.32894 
        1.92056         3.86535         1.31858 
         1.9267         3.83862         1.30833 
        1.93284         3.82243         1.29818 
        1.93897          3.8021         1.28816 
        1.94509         3.79324         1.27826 
        1.95123         3.77175         1.26844 
        1.95737         3.74561         1.25872 
        1.96349         3.73705         1.24913 
        1.96964         3.71929         1.23961 
        1.97578         3.69348         1.23018 
        1.98192         3.68612         1.22087 
        1.98805         3.66744         1.21166 
        1.99419         3.64573         1.20254 
        2.00033         3.63763         1.19351 
        2.00647         3.61553         1.18458 
         2.0126         3.60452         1.17575 
        2.01874         3.58132           1.167 
        2.02488         3.57073         1.15833 
        2.03101         3.54647         1.14976 
        2.03714         3.52722         1.14129 
        2.04328         3.51571          1.1329 
        2.04941         3.49482          1.1246 
        2.05554         3.48479         1.11638 
        2.06167         3.46701         1.10824 
        2.06781         3.45459         1.10018 
        2.07396         3.44556         1.09218 
        2.08009         3.42674         1.08428 
        2.08622         3.40809         1.07647 
        2.09237         3.39005         1.06872 
        2.09851         3.38547         1.06104 
        2.10464         3.36964         1.05345 
        2.11077         3.34577         1.04595 
        2.11691         3.33166          1.0385 
        2.12305         3.32298         1.03112 
        2.12918         3.31313         1.02384 
        2.13531         3.29744         1.01662 
        2.14145         3.28187         1.00946 
         2.1476         3.26476         1.00235 
        2.15372         3.24967        0.995356 
        2.15985          3.2496        0.988417 
        2.16599         3.22101        0.981524 
        2.17213         3.21042        0.974705 
        2.17827         3.20344        0.967952 
         2.1844         3.18705        0.961269 
        2.19054         3.16843        0.954647 
        2.19666         3.15643        0.948097 
         2.2028         3.14384        0.941602 
        2.20893         3.13229        0.935166 
        2.21508         3.11888        0.928782 
        2.22122          3.1033        0.922455 
        2.22736         3.09366        0.916201 
        2.23349         3.08543        0.910006 
        2.23962         3.07066        0.903865 
        2.24577         3.05868        0.897775 
         2.2519         3.05161         0.89175 
        2.25802         3.03302         0.88579 
        2.26417         3.02447        0.879868 
        2.27031          3.0093        0.873995 
        2.27644         2.99314        0.868192 
        2.28257         2.97832        0.862443 
        2.28872         2.97869        0.856735 
        2.29486         2.96232        0.851079 
        2.30099         2.94678        0.845486 
        2.30712          2.9361        0.839941 
        2.31326         2.92109        0.834437 
         2.3194         2.91319        0.828985 
        2.32553         2.90673        0.823591 
        2.33166         2.89571        0.818247 
         2.3378         2.88145        0.812944 
        2.34394          2.8711        0.807685 
        2.35007         2.85732        0.802481 
        2.35619         2.84989        0.797329 
        2.36233         2.83722         0.79221 
        2.36848         2.82447        0.787126 
        2.37462          2.8211        0.782096 
        2.38075         2.80545        0.777116 
        2.38689         2.80037        0.772175 
        2.39303         2.78271        0.767277 
        2.39916         2.77466        0.762427 
        2.40529         2.76409         0.75762 
        2.41143         2.75351         0.75285 
        2.41757         2.74916         0.74812 
         2.4237         2.73725        0.743438 
        2.42983         2.72033        0.738798 
        2.43598         2.71214        0.734184 
        2.44211         2.70027        0.729618 
        2.44823         2.69314        0.725101 
        2.45437         2.68262         0.72061 
        2.46052         2.67621        0.716153 
        2.46665         2.66646        0.711741 
        2.47279         2.65195        0.707369 
        2.47892         2.64407         0.70303 
        2.48507          2.6362        0.698723 
         2.4912         2.62268        0.694461 
