# k  (h/Mpc)    P(k)  (Mpc/h)^3    P_linear(k)  (Mpc/h)^3
     0.00783031         7934.21         8057.09 
       0.013688         10489.6         10451.6 
       0.019231         10972.1         10979.8 
      0.0249154         10318.5           10501 
      0.0312784         9326.57         9419.06 
      0.0375637         8258.63         8278.67 
      0.0433917         7265.47         7388.95 
      0.0492413         6657.91         6717.63 
      0.0555754         6029.03         6198.53 
      0.0619321         5780.27         5797.89 
       0.067871          5302.2          5444.3 
      0.0738098         4920.02         5057.79 
      0.0800417         4436.18         4606.42 
      0.0862327         4030.53         4140.21 
      0.0921407         3669.15         3721.15 
      0.0982031         3293.18         3353.95 
       0.104506         3079.02         3058.21 
       0.110769         2860.52         2846.45 
       0.116806         2690.03         2698.64 
       0.122832         2580.28         2578.47 
       0.129052         2413.57         2456.35 
       0.135211         2287.68         2320.38 
       0.141259         2175.23         2169.18 
       0.147318         2039.36          2008.4 
       0.153489         1869.21         1849.24 
       0.159709         1759.97         1707.23 
       0.165845         1685.37         1593.02 
       0.171974            1587         1505.17 
       0.178125         1515.75          1437.9 
       0.184229         1462.07         1383.11 
        0.19034          1375.1         1331.25 
       0.196428          1350.6         1276.06 
       0.202534         1303.68          1214.6 
       0.208729         1238.08         1147.45 
       0.214876         1173.07         1080.17 
       0.220989         1135.49         1017.31 
       0.227147         1075.65          961.67 
        0.23329         1034.04         915.305 
       0.239377         1014.68         877.633 
       0.245482         951.191         845.799 
       0.251667         944.416         816.646 
       0.257832         911.247         787.978 
       0.263955         881.603         758.253 
       0.270079         851.544         726.993 
        0.27624         841.055         694.799 
       0.282372         804.909         663.432 
        0.28843         788.264         634.475 
       0.294538         750.906         608.223 
       0.300721         747.682         584.935 
        0.30691         714.647         564.464 
       0.313033         701.235         546.212 
       0.319153         682.063         528.982 
       0.325316         661.992         511.911 
        0.33145         644.301         494.754 
       0.337538         636.709         477.586 
       0.343633         617.188         460.515 
       0.349808         597.507           443.8 
       0.355968          592.93         428.101 
       0.362074         581.927         413.724 
       0.368217         566.384         400.501 
       0.374374         544.532         388.291 
       0.380519         540.467         376.897 
       0.386598         527.989         366.102 
       0.392688         525.184         355.532 
        0.39888         510.205         344.944 
       0.405048         500.744         334.532 
       0.411186         491.691          324.41 
       0.417313         483.013          314.67 
       0.423458         474.904         305.362 
       0.429607         465.424         296.571 
       0.435692         454.706         288.394 
       0.441815         451.904         280.609 
       0.447964         443.104         273.156 
       0.454126         429.857         265.972 
       0.460267         424.657         259.015 
       0.466387         419.982         252.241 
        0.47254         411.425         245.602 
       0.478662         410.268         239.186 
       0.484765         398.531         233.001 
       0.490885         394.204         227.037 
       0.497035         387.842         221.305 
       0.503198         380.629         215.816 
       0.509342          377.76         210.567 
       0.515458         373.768         205.537 
       0.521598         367.048         200.657 
       0.527764         360.394         195.907 
       0.533884         357.711         191.321 
           0.54         352.938         186.861 
       0.546137          351.64         182.515 
       0.552299          344.64          178.29 
       0.558452         341.803         174.217 
       0.564573         336.347         170.303 
       0.570708         330.876         166.513 
       0.576825          325.99         162.861 
       0.582926         323.363         159.338 
       0.589034          319.78          155.92 
       0.595184         316.892         152.578 
       0.601379         313.839         149.306 
       0.607522         308.274         146.149 
       0.613639         307.073         143.092 
       0.619772         299.684         140.117 
       0.625918         298.494         137.224 
       0.632068         294.503         134.416 
       0.638161          293.36         131.717 
         0.6443         288.252         129.076 
       0.650464         285.947         126.499 
       0.656582         284.596         124.013 
       0.662703         281.742         121.592 
       0.668861         277.156         119.223 
       0.675024         274.399         116.916 
       0.681124          273.42         114.693 
       0.687237         269.682         112.525 
       0.693381         265.955         110.403 
       0.699536         264.056         108.333 
       0.705665         262.805         106.326 
       0.711789         259.138         104.372 
       0.717957          257.64         102.456 
        0.72409         254.864         100.599 
       0.730186         251.852         98.8002 
       0.736317         249.778         97.0367 
       0.742472          248.67         95.3105 
       0.748622          246.65         93.6285 
        0.75476         244.609         91.9913 
       0.760888         241.286         90.3961 
       0.767043         240.763         88.8329 
       0.773185         237.967         87.3103 
       0.779291         234.036         85.8326 
       0.785407         233.443         84.3874 
       0.791564         231.327         82.9669 
       0.797719         228.823         81.5802 
       0.803834         227.721         80.2346 
       0.809972         225.545         78.9149 
       0.816124         225.764         77.6225 
       0.822261         222.203         76.3629 
       0.828378         220.648         75.1356 
       0.834502         220.427         73.9346 
       0.840667         216.831         72.7524 
       0.846816         215.765         71.5998 
       0.852925         214.315         70.4799 
       0.859047         212.465         69.3819 
       0.865192         211.044          68.304 
       0.871341         208.861         67.2486 
       0.877463         207.678         66.2206 
       0.883569         206.116         65.2171 
       0.889708         204.565         64.2295 
       0.895864         202.241         63.2601 
       0.902008         201.581          62.313 
       0.908149         200.584         61.3861 
       0.914301         198.361         60.4768 
       0.920448         196.923         59.5871 
       0.926574             196         58.7186 
       0.932687         195.183         57.8695 
       0.938823         192.977         57.0344 
       0.944975         191.441         56.2141 
       0.951105          190.64          55.413 
       0.957225         188.473         54.6292 
       0.963368         186.819          53.858 
       0.969511         186.101         53.1019 
       0.975621         184.972         52.3646 
       0.981748         184.558         51.6395 
       0.987916         182.198         50.9238 
        0.99406         181.245         50.2245 
        1.00019         180.673         49.5399 
        1.00632         179.042         48.8688 
        1.01246         177.966         48.2093 
        1.01859         176.594         47.5632 
        1.02471         175.795         46.9299 
        1.03085         173.851          46.306 
        1.03698         172.798          45.695 
        1.04314         171.727         45.0925 
        1.04929         170.443         44.5024 
        1.05541         169.815         43.9253 
        1.06154         168.603         43.3572 
        1.06769         168.429         42.7984 
        1.07382         167.155         42.2515 
        1.07993         165.784         41.7154 
        1.08607         164.624         41.1865 
        1.09222         163.801         40.6664 
        1.09836         162.372          40.156 
        1.10449         161.243          39.655 
        1.11063         160.261         39.1621 
        1.11677         159.854         38.6779 
         1.1229         158.075         38.2028 
        1.12903         157.358         37.7354 
        1.13518         157.208         37.2755 
        1.14131         155.554         36.8236 
        1.14745         154.917         36.3796 
        1.15359         153.755         35.9428 
        1.15973         153.466         35.5132 
        1.16584         151.893         35.0926 
        1.17197         151.183         34.6782 
        1.17811         150.371         34.2694 
        1.18424         149.441         33.8684 
        1.19038         148.838         33.4727 
        1.19652         147.892         33.0836 
        1.20267         146.922         32.7008 
        1.20881         145.931         32.3241 
        1.21495         145.098          31.954 
        1.22108         144.477         31.5899 
         1.2272         143.315         31.2323 
        1.23334         142.556         30.8796 
        1.23949         141.053         30.5314 
        1.24562         140.919         30.1897 
        1.25174         139.397         29.8538 
        1.25789         138.983          29.522 
        1.26402         138.414         29.1959 
        1.27014         137.352         28.8755 
        1.27628         136.766         28.5591 
        1.28244         136.018         28.2468 
        1.28858         135.404         27.9396 
        1.29471         134.042         27.6378 
        1.30084         133.489         27.3407 
        1.30697         132.801         27.0476 
        1.31312         132.483         26.7584 
        1.31925         131.268         26.4744 
        1.32537         130.862         26.1949 
        1.33151         129.458         25.9184 
        1.33765         129.087         25.6461 
        1.34378         128.174         25.3784 
        1.34992         128.035         25.1142 
        1.35606         127.064         24.8534 
         1.3622           126.2         24.5967 
        1.36833          125.58         24.3443 
        1.37445         124.673         24.0956 
        1.38059         124.404         23.8496 
        1.38675         123.356         23.6066 
        1.39288         122.862         23.3679 
        1.39901         122.388         23.1327 
        1.40515         121.672         22.9002 
         1.4113         120.369          22.671 
        1.41742         120.325         22.4459 
        1.42355         119.371         22.2234 
         1.4297         118.688         22.0033 
        1.43585         117.843         21.7863 
        1.44198          117.64         21.5731 
        1.44809         116.659         21.3632 
        1.45423         115.855         21.1553 
        1.46036          115.63         20.9505 
        1.46649         115.012         20.7485 
        1.47263         114.468         20.5489 
        1.47877         113.902         20.3521 
        1.48491         112.969         20.1576 
        1.49104         112.426         19.9661 
        1.49718         111.693         19.7769 
        1.50333         111.177         19.5899 
        1.50947         110.448         19.4057 
         1.5156         110.155         19.2242 
        1.52172         109.287          19.045 
        1.52787         109.085         18.8678 
          1.534         108.422         18.6931 
        1.54013         107.568         18.5207 
        1.54627          107.01         18.3503 
        1.55241         106.503          18.182 
        1.55855         106.115          18.016 
        1.56467         105.418         17.8526 
         1.5708         104.775         17.6908 
        1.57695         104.546         17.5308 
        1.58308         103.453         17.3731 
        1.58922         103.435         17.2173 
        1.59535         102.834         17.0635 
         1.6015          102.25         16.9113 
        1.60764         101.608         16.7611 
        1.61376         101.199         16.6132 
        1.61989         100.636         16.4669 
        1.62604          100.02         16.3221 
        1.63218         99.7549         16.1791 
        1.63831         98.9934         16.0382 
        1.64444         98.5266         15.8989 
        1.65059         97.8509          15.761 
        1.65673          97.273         15.6248 
        1.66285         97.0504         15.4907 
        1.66898         96.3349         15.3581 
        1.67512         95.8209         15.2268 
        1.68127         95.2924          15.097 
         1.6874         94.8522         14.9689 
        1.69353         94.3675         14.8424 
        1.69967         93.8103         14.7171 
        1.70581         93.4978         14.5934 
        1.71193         93.1332         14.4715 
        1.71806         92.2843         14.3507 
        1.72421         92.0434         14.2311 
        1.73035         91.4163         14.1131 
        1.73649         90.9806         13.9964 
        1.74262         90.5461         13.8811 
        1.74876         90.1347          13.767 
        1.75489         89.4842         13.6545 
        1.76101          89.187         13.5433 
        1.76715         88.6439         13.4332 
        1.77329         88.2834         13.3242 
        1.77943         87.7762         13.2163 
        1.78557         87.4285         13.1098 
        1.79171         86.8746         13.0045 
        1.79785         86.5187         12.9003 
        1.80399         86.0521         12.7973 
        1.81012         85.7041         12.6956 
        1.81625         85.0747          12.595 
        1.82239         84.6964         12.4954 
        1.82853          84.429         12.3969 
        1.83466         83.8197         12.2996 
        1.84078         83.5126         12.2034 
        1.84692         82.9321         12.1081 
        1.85306          82.564         12.0137 
         1.8592          81.942         11.9205 
        1.86533          81.667         11.8283 
        1.87147         81.0781          11.737 
        1.87761         80.8108         11.6467 
        1.88375         80.5082         11.5574 
        1.88988         80.0988         11.4691 
        1.89601         79.5657         11.3817 
        1.90215         79.2667         11.2952 
        1.90829           78.92         11.2096 
        1.91442         78.3998         11.1249 
        1.92056         77.9333         11.0412 
         1.9267         77.6548         10.9582 
        1.93284         76.9965         10.8761 
        1.93897          76.742          10.795 
        1.94509         76.2175         10.7148 
        1.95123          75.954         10.6353 
        1.95737         75.8241         10.5565 
        1.96349         75.2549         10.4788 
        1.96964         74.8206         10.4016 
        1.97578         74.5749         10.3251 
        1.98192         74.1584         10.2496 
        1.98805         73.8492         10.1749 
        1.99419         73.2813         10.1008 
        2.00033         73.0576         10.0275 
        2.00647         72.7304         9.95498 
         2.0126         72.1725         9.88327 
        2.01874          71.813         9.81216 
        2.02488         71.6636         9.74169 
        2.03101         71.2897         9.67205 
        2.03714         70.7385         9.60317 
        2.04328         70.5133         9.53488 
        2.04941         69.9957         9.46731 
        2.05554         69.6808         9.40046 
        2.06167          69.515         9.33416 
        2.06781         69.0825          9.2685 
        2.07396          68.679         9.20338 
        2.08009           68.44           9.139 
        2.08622         68.0381         9.07532 
        2.09237           67.72         9.01212 
        2.09851         67.4843         8.94952 
        2.10464         67.0366         8.88762 
        2.11077         66.6462         8.82638 
        2.11691         66.3678         8.76559 
        2.12305         66.0154         8.70538 
        2.12918         65.6623         8.64587 
        2.13531         65.3635         8.58693 
        2.14145         65.0182          8.5284 
         2.1476         64.8338         8.47035 
        2.15372         64.4601         8.41314 
        2.15985         64.0622          8.3564 
        2.16599         63.7587         8.30003 
        2.17213         63.4849         8.24424 
        2.17827         63.1429         8.18899 
         2.1844         62.6814         8.13429 
        2.19054         62.4225         8.08007 
        2.19666         62.2367         8.02644 
         2.2028          62.044         7.97324 
        2.20893         61.6889          7.9205 
        2.21508         61.3273         7.86819 
        2.22122         61.1076         7.81633 
        2.22736         60.7299         7.76505 
        2.23349         60.4814         7.71425 
        2.23962         60.0727         7.66387 
        2.24577         59.7327         7.61391 
         2.2519         59.5157         7.56446 
        2.25802         59.2453         7.51553 
        2.26417         58.9039         7.46691 
        2.27031         58.6927         7.41867 
        2.27644         58.2834           7.371 
        2.28257         58.0609         7.32375 
        2.28872         57.7822         7.27684 
        2.29486         57.5338         7.23034 
        2.30099         57.2553         7.18435 
        2.30712         56.9718         7.13875 
        2.31326           56.64         7.09346 
         2.3194          56.417          7.0486 
        2.32553         56.0979          7.0042 
        2.33166         55.7895          6.9602 
         2.3378         55.4802         6.91653 
        2.34394         55.1022         6.87322 
        2.35007         54.9236         6.83035 
        2.35619         54.7683         6.78789 
        2.36233         54.5933          6.7457 
        2.36848         54.1234         6.70378 
        2.37462         53.9121         6.66231 
        2.38075         53.6534         6.62123 
        2.38689         53.4412         6.58047 
        2.39303         53.2391         6.54006 
        2.39916         53.0344         6.50003 
        2.40529         52.6733         6.46034 
        2.41143         52.3975         6.42096 
        2.41757         52.1688         6.38189 
         2.4237         51.9234         6.34322 
        2.42983         51.6244         6.30487 
        2.43598         51.3501         6.26674 
        2.44211         51.1361           6.229 
        2.44823         50.8755         6.19165 
        2.45437         50.6101          6.1545 
        2.46052          50.286         6.11763 
        2.46665         50.1308         6.08113 
        2.47279         49.9205         6.04495 
        2.47892         49.7035         6.00903 
        2.48507         49.4439         5.97338 
         2.4912         49.2683         5.93808 
