#  k  (h/Mpc)          P(k)  (Mpc/h)^3     P_linear(k) (Mpc/h)^3
     0.00783031         12317.4         12384.6 
       0.013688         14422.5         14765.6 
       0.019231           14309         14497.5 
      0.0249154         13036.5         12990.6 
      0.0312784         10833.3         10901.5 
      0.0375637         8972.35         9085.69 
      0.0433917         7830.62         7843.82 
      0.0492413         6943.52         7002.56 
      0.0555754         6393.37          6401.3 
      0.0619321         5764.91         5934.72 
       0.067871         5409.44         5489.91 
      0.0738098         4950.69         4981.03 
      0.0800417         4397.74         4395.85 
      0.0862327         3826.43         3827.33 
      0.0921407         3391.07         3359.04 
      0.0982031         3066.71         2989.63 
       0.104506         2756.05         2726.02 
       0.110769         2595.09         2556.73 
       0.116806         2507.26         2439.36 
       0.122832         2363.12         2327.47 
       0.129052         2225.55         2189.91 
       0.135211         2110.45         2024.69 
       0.141259         1916.42         1846.15 
       0.147318         1738.23         1671.65 
       0.153489         1610.47         1517.76 
       0.159709         1529.41         1397.75 
       0.165845         1405.35         1313.57 
       0.171974         1379.73         1254.76 
       0.178125         1334.17         1208.21 
       0.184229         1242.16         1162.05 
        0.19034         1212.47         1107.95 
       0.196428          1163.8         1044.46 
       0.202534         1075.34         974.968 
       0.208729         1044.71          905.32 
       0.214876          989.86         843.531 
       0.220989         928.091         793.069 
       0.227147         904.602         753.697 
        0.23329         870.629         723.421 
       0.239377         861.212         698.324 
       0.245482         817.923         674.007 
       0.251667         786.161         647.388 
       0.257832         773.222         617.956 
       0.263955          730.15         586.749 
       0.270079         702.468         555.587 
        0.27624         671.566          526.44 
       0.282372         657.248         501.059 
        0.28843         649.375         479.979 
       0.294538         616.377         462.138 
       0.300721         600.013         446.404 
        0.30691         588.386         431.562 
       0.313033         562.039         416.749 
       0.319153         553.203         401.277 
       0.325316         543.088          385.19 
        0.33145         529.349         369.172 
       0.337538         509.408         353.978 
       0.343633         494.864         339.973 
       0.349808         482.411         327.306 
       0.355968         473.085         316.082 
       0.362074         456.516         306.031 
       0.368217         453.568         296.572 
       0.374374         444.967         287.319 
       0.380519          426.78         278.112 
       0.386598         421.997         268.956 
       0.392688          411.37         259.855 
        0.39888         400.758         250.892 
       0.405048         392.482         242.424 
       0.411186          391.08         234.584 
       0.417313         385.409         227.367 
       0.423458         374.393         220.639 
       0.429607         363.661         214.294 
       0.435692         358.279         208.275 
       0.441815         351.806         202.353 
       0.447964         343.881         196.497 
       0.454126         339.761         190.746 
       0.460267         334.157         185.168 
       0.466387          327.34          179.81 
        0.47254         322.958         174.679 
       0.478662          315.51         169.856 
       0.484765         311.312         165.302 
       0.490885         307.842         160.949 
       0.497035         301.787         156.753 
       0.503198         300.733         152.692 
       0.509342         293.423         148.755 
       0.515458         288.453         144.925 
       0.521598         283.488         141.183 
       0.527764         279.699         137.548 
       0.533884          277.89         134.076 
           0.54         273.445         130.743 
       0.546137         267.361         127.531 
       0.552299         265.997         124.431 
       0.558452         261.495         121.455 
       0.564573         259.675         118.597 
       0.570708         254.738          115.82 
       0.576825          250.54         113.128 
       0.582926         248.588         110.514 
       0.589034          244.54         107.972 
       0.595184          242.84         105.493 
       0.601379          238.89          103.08 
       0.607522         233.667          100.77 
       0.613639         232.717         98.5459 
       0.619772         231.374          96.387 
       0.625918         227.765         94.2895 
       0.632068         224.302         92.2525 
       0.638161         222.918         90.2926 
         0.6443         220.226         88.3749 
       0.650464         216.789         86.5054 
       0.656582         214.856          84.703 
       0.662703         213.534         82.9514 
       0.668861         209.238         81.2395 
       0.675024         208.654         79.5748 
       0.681124         205.847          77.974 
       0.687237         204.182         76.4147 
       0.693381         201.106         74.8914 
       0.699536         199.873         73.4076 
       0.705665         197.728         71.9709 
       0.711789         195.359         70.5744 
       0.717957         193.604         69.2056 
        0.72409         191.047         67.8808 
       0.730186         192.035         66.5987 
       0.736317         188.861         65.3428 
       0.742472         186.414         64.1146 
       0.748622         183.981         62.9192 
        0.75476         184.351         61.7568 
       0.760888         181.844         60.6256 
       0.767043         179.083         59.5184 
       0.773185         177.736         58.4412 
       0.779291         175.706         57.3969 
       0.785407         174.825         56.3767 
       0.791564         173.266         55.3751 
       0.797719         170.391         54.3983 
       0.803834         171.291         53.4515 
       0.809972         169.239          52.524 
       0.816124         166.407         51.6165 
       0.822261         165.503         50.7331 
       0.828378         164.995         49.8731 
       0.834502          162.97         49.0325 
       0.840667         162.697         48.2059 
       0.846816         159.852         47.4008 
       0.852925         159.242         46.6192 
       0.859047         157.718         45.8537 
       0.865192          157.19          45.103 
       0.871341         155.348         44.3686 
       0.877463         153.911         43.6539 
       0.883569         153.845         42.9569 
       0.889708         152.312         42.2716 
       0.895864         150.787         41.5995 
       0.902008         149.312         40.9435 
       0.908149         147.914         40.3021 
       0.914301         147.157         39.6734 
       0.920448         146.983         39.0587 
       0.926574         144.754         38.4593 
       0.932687         144.575         37.8737 
       0.938823         143.361         37.2982 
       0.944975         142.471         36.7334 
       0.951105         141.038         36.1824 
       0.957225         140.249         35.6436 
       0.963368         139.326          35.114 
       0.969511         137.861         34.5951 
       0.975621         136.379         34.0896 
       0.981748         135.886         33.5928 
       0.987916         135.195         33.1029 
        0.99406         134.308         32.6246 
        1.00019         133.415         32.1566 
        1.00632         132.361         31.6983 
        1.01246         131.543         31.2483 
        1.01859         130.589         30.8077 
        1.02471         129.664         30.3762 
        1.03085         128.667         29.9515 
        1.03698         127.763         29.5358 
        1.04314         127.428         29.1263 
        1.04929         126.736         28.7255 
        1.05541          125.88         28.3339 
        1.06154         124.638         27.9486 
        1.06769         124.012           27.57 
        1.07382         123.394         27.1996 
        1.07993         122.373         26.8369 
        1.08607         121.891         26.4793 
        1.09222         120.863         26.1278 
        1.09836         120.139         25.7832 
        1.10449         119.372         25.4453 
        1.11063         118.496          25.113 
        1.11677         117.957         24.7867 
         1.1229         116.935         24.4669 
        1.12903         116.225         24.1524 
        1.13518         115.449         23.8432 
        1.14131         115.004         23.5396 
        1.14745         114.265         23.2414 
        1.15359         113.228         22.9484 
        1.15973         112.866         22.6603 
        1.16584         112.119         22.3784 
        1.17197          111.61          22.101 
        1.17811         110.623         21.8274 
        1.18424         110.069         21.5592 
        1.19038         109.479         21.2947 
        1.19652         108.888         21.0348 
        1.20267         108.087         20.7792 
        1.20881          107.32          20.528 
        1.21495         107.003         20.2812 
        1.22108         106.299         20.0386 
         1.2272         105.622         19.8005 
        1.23334         105.245         19.5657 
        1.23949         104.662         19.3342 
        1.24562          103.82         19.1071 
        1.25174         103.528         18.8839 
        1.25789          102.61         18.6636 
        1.26402         102.352         18.4473 
        1.27014         101.503         18.2349 
        1.27628          100.92         18.0252 
        1.28244         100.656         17.8184 
        1.28858         99.7867         17.6151 
        1.29471         99.2515         17.4155 
        1.30084         98.5327         17.2191 
        1.30697          98.118         17.0255 
        1.31312         97.5446         16.8346 
        1.31925         96.8214         16.6472 
        1.32537          96.433         16.4628 
        1.33151         96.3217         16.2806 
        1.33765         95.4146         16.1012 
        1.34378          95.099         15.9249 
        1.34992         94.6615         15.7512 
        1.35606          94.074         15.5796 
         1.3622         93.8602         15.4109 
        1.36833         92.8823         15.2451 
        1.37445         92.6947         15.0818 
        1.38059         92.1562         14.9205 
        1.38675         91.4845          14.761 
        1.39288         90.9497         14.6046 
        1.39901         90.5147         14.4505 
        1.40515         90.0899         14.2982 
         1.4113         89.5761         14.1483 
        1.41742         89.1749          14.001 
        1.42355         88.8369         13.8555 
         1.4297         88.1733         13.7117 
        1.43585          87.794           13.57 
        1.44198         87.0582         13.4308 
        1.44809         86.5953         13.2938 
        1.45423         86.6094         13.1582 
        1.46036         85.8046         13.0248 
        1.46649         85.3142         12.8931 
        1.47263         84.8282         12.7632 
        1.47877         84.4827         12.6351 
        1.48491         84.0753         12.5086 
        1.49104         83.3401         12.3841 
        1.49718         83.1057         12.2612 
        1.50333         82.7937         12.1397 
        1.50947         82.4066         12.0201 
         1.5156         82.0857         11.9024 
        1.52172         81.3295         11.7862 
        1.52787         81.0937         11.6713 
          1.534         80.6312         11.5581 
        1.54013          80.333         11.4465 
        1.54627         79.6731         11.3362 
        1.55241         79.6269         11.2273 
        1.55855         78.8214           11.12 
        1.56467         78.3681         11.0144 
         1.5708         77.9503         10.9098 
        1.57695         77.7312         10.8065 
        1.58308          77.315         10.7047 
        1.58922         77.1639         10.6042 
        1.59535         76.8871          10.505 
         1.6015         76.2203         10.4069 
        1.60764         75.8298         10.3102 
        1.61376         75.5975         10.2149 
        1.61989         75.0051         10.1207 
        1.62604         74.7693         10.0275 
        1.63218         74.4242         9.93559 
        1.63831         74.0464         9.84501 
        1.64444         73.6291         9.75551 
        1.65059         73.2369         9.66691 
        1.65673         72.9951         9.57951 
        1.66285         72.5058         9.49343 
        1.66898         72.0287         9.40837 
        1.67512         71.6559         9.32419 
        1.68127         71.5008         9.24097 
         1.6874         71.0096         9.15894 
        1.69353         70.6578         9.07796 
        1.69967         70.3356         8.99776 
        1.70581         70.0514         8.91857 
        1.71193          69.584         8.84062 
        1.71806         69.4043         8.76344 
        1.72421         69.0053         8.68703 
        1.73035          68.641         8.61161 
        1.73649         68.2641         8.53711 
        1.74262         67.9147         8.46354 
        1.74876         67.6242         8.39079 
        1.75489         67.2818         8.31904 
        1.76101         66.9829         8.24815 
        1.76715          66.615         8.17799 
        1.77329         66.2485         8.10856 
        1.77943         66.1384          8.0399 
        1.78557          65.782         7.97214 
        1.79171         65.2766         7.90514 
        1.79785         64.9629          7.8389 
        1.80399         64.8573         7.77344 
        1.81012         64.3735          7.7088 
        1.81625         64.0904         7.64493 
        1.82239         63.7325         7.58169 
        1.82853         63.4493         7.51919 
        1.83466         63.0687         7.45745 
        1.84078         62.8589         7.39647 
        1.84692         62.7527         7.33608 
        1.85306         62.3702         7.27628 
         1.8592         62.0549         7.21724 
        1.86533         61.7066         7.15889 
        1.87147         61.3989         7.10111 
        1.87761         60.9535         7.04395 
        1.88375         60.8587         6.98747 
        1.88988         60.3999         6.93168 
        1.89601         60.3389         6.87646 
        1.90215         59.8649          6.8218 
        1.90829         59.5758         6.76776 
        1.91442         59.2412          6.7143 
        1.92056         59.1601         6.66146 
         1.9267         58.7683         6.60914 
        1.93284         58.5553         6.55734 
        1.93897          58.189          6.5062 
        1.94509         57.9379         6.45571 
        1.95123         57.6749         6.40563 
        1.95737         57.4818         6.35604 
        1.96349         57.1961          6.3071 
        1.96964         56.8728         6.25854 
        1.97578         56.5751         6.21046 
        1.98192         56.2324         6.16299 
        1.98805         55.8561           6.116 
        1.99419         55.8957         6.06951 
        2.00033         55.4483         6.02347 
        2.00647         55.2149         5.97792 
         2.0126         55.0117         5.93291 
        2.01874         54.9262          5.8883 
        2.02488         54.5771         5.84411 
        2.03101         54.2662         5.80046 
        2.03714         54.0062         5.75728 
        2.04328          53.782          5.7145 
        2.04941         53.3473         5.67219 
        2.05554         53.2135         5.63033 
        2.06167         52.9715         5.58884 
        2.06781         52.7777         5.54776 
        2.07396         52.4754         5.50703 
        2.08009         52.2466         5.46678 
        2.08622         52.0186         5.42698 
        2.09237         51.7952          5.3875 
        2.09851         51.3833          5.3484 
        2.10464         51.2067         5.30975 
        2.11077         51.0569         5.27154 
        2.11691         50.7933         5.23361 
        2.12305         50.5475         5.19605 
        2.12918         50.2489         5.15895 
        2.13531         50.0539         5.12221 
        2.14145         49.8016         5.08574 
         2.1476         49.7748         5.04958 
        2.15372         49.3979         5.01395 
        2.15985         49.1259         4.97863 
        2.16599         48.9258         4.94355 
        2.17213          48.686         4.90885 
        2.17827         48.4658         4.87448 
         2.1844         48.1318         4.84047 
        2.19054          48.139         4.80678 
        2.19666         47.8938         4.77345 
         2.2028         47.5537         4.74041 
        2.20893         47.3194         4.70766 
        2.21508         47.0389         4.67518 
        2.22122         46.8411           4.643 
        2.22736         46.6554         4.61119 
        2.23349         46.4663         4.57968 
        2.23962         46.3041         4.54845 
        2.24577         46.0549         4.51749 
         2.2519         45.8014         4.48685 
        2.25802         45.5998         4.45655 
        2.26417         45.3795         4.42644 
        2.27031         45.2353         4.39658 
        2.27644         45.0151         4.36708 
        2.28257         44.7502         4.33786 
        2.28872          44.616         4.30884 
        2.29486         44.3908          4.2801 
        2.30099         44.0913         4.25167 
        2.30712         43.9626          4.2235 
        2.31326         43.8152         4.19552 
         2.3194         43.5863         4.16782 
        2.32553         43.3654         4.14041 
        2.33166         43.1916         4.11326 
         2.3378         42.9427         4.08632 
        2.34394         42.7946          4.0596 
        2.35007         42.5969         4.03317 
        2.35619         42.3868           4.007 
        2.36233         42.1986           3.981 
        2.36848         42.0155         3.95517 
        2.37462         41.7336         3.92963 
        2.38075         41.6379         3.90434 
        2.38689         41.4236         3.87925 
        2.39303         41.2672         3.85438 
        2.39916         41.0362         3.82975 
        2.40529         40.9174         3.80535 
        2.41143         40.7442         3.78113 
        2.41757         40.5689         3.75712 
         2.4237         40.3794         3.73336 
        2.42983         40.1813          3.7098 
        2.43598         39.9895         3.68639 
        2.44211         39.7242         3.66322 
        2.44823         39.6192         3.64029 
        2.45437         39.4386          3.6175 
        2.46052         39.1708         3.59489 
        2.46665         39.0607          3.5725 
        2.47279          38.845         3.55032 
        2.47892         38.7197         3.52831 
        2.48507         38.5876         3.50646 
         2.4912         38.2938         3.48484 
