# k  (h/Mpc)    Pcb(k)  (Mpc/h)^3    Pcb_linear(k)  (Mpc/h)^3
     0.00783031         16828.6         17079.7 
       0.013688         19847.6         19651.8 
       0.019231         18796.3         18728.5 
      0.0249154         16046.4         16351.4 
      0.0312784         13321.2           13420 
      0.0375637         11091.5         11038.1 
      0.0433917         9374.23         9483.24 
      0.0492413         8439.11         8458.58 
      0.0555754         7527.15         7718.88 
      0.0619321         7157.33         7108.59 
       0.067871         6373.19         6501.53 
      0.0738098         5719.29         5815.94 
      0.0800417         4953.32         5061.94 
      0.0862327         4355.11          4369.9 
      0.0921407         3909.82         3831.97 
      0.0982031         3479.46         3430.02 
       0.104506         3293.86          3154.1 
       0.110769         3080.06            2973 
       0.116806          2915.4         2830.54 
       0.122832         2763.39         2676.34 
       0.129052         2523.99          2483.9 
       0.135211         2335.27         2265.99 
       0.141259         2184.09         2048.47 
       0.147318         2020.66         1852.16 
       0.153489         1840.56         1691.29 
       0.159709         1742.29          1572.7 
       0.165845         1679.71         1490.34 
       0.171974         1598.66         1427.71 
       0.178125         1525.11         1369.16 
       0.184229         1454.17          1304.5 
        0.19034         1357.95         1229.66 
       0.196428         1315.04         1148.32 
       0.202534          1254.3         1067.06 
       0.208729         1183.53         992.322 
       0.214876         1127.12         930.397 
       0.220989         1085.88         881.581 
       0.227147         1041.18         842.723 
        0.23329         1000.09         809.919 
       0.239377         979.844         778.949 
       0.245482         914.109         746.476 
       0.251667         905.084         711.226 
       0.257832         865.543         674.664 
       0.263955          833.81         638.985 
       0.270079         800.397         605.951 
        0.27624         789.139         576.666 
       0.282372         757.033         551.707 
        0.28843         744.208         530.407 
       0.294538         705.312         511.132 
       0.300721         701.011         492.579 
        0.30691         670.326         474.079 
       0.313033         655.993         455.512 
       0.319153         638.868         436.914 
       0.325316         618.962         418.649 
        0.33145         601.503         401.511 
       0.337538         590.458         385.866 
       0.343633         573.771         371.681 
       0.349808         552.482         358.604 
       0.355968         548.156         346.536 
       0.362074         540.403         335.152 
       0.368217         523.915         324.006 
       0.374374         501.031         313.028 
       0.380519         499.827         302.263 
       0.386598         485.459         291.943 
       0.392688         482.395         282.063 
        0.39888         468.131         272.582 
       0.405048         458.931         263.759 
       0.411186         451.731         255.529 
       0.417313         442.389         247.769 
       0.423458         432.904         240.346 
       0.429607         426.826         233.178 
       0.435692         415.781         226.287 
       0.441815          411.51         219.557 
       0.447964         402.694         213.019 
       0.454126         394.801         206.714 
       0.460267         386.662         200.708 
       0.466387          381.92         195.011 
        0.47254         375.486          189.55 
       0.478662         373.701         184.356 
       0.484765         360.198         179.389 
       0.490885         356.969          174.59 
       0.497035         350.075         169.925 
       0.503198          345.51         165.396 
       0.509342         343.032         161.031 
       0.515458         338.921         156.838 
       0.521598         329.901         152.785 
       0.527764         325.229         148.866 
       0.533884         322.426         145.124 
           0.54         317.828         141.525 
       0.546137          316.05         138.045 
       0.552299         309.666          134.67 
       0.558452         308.001         131.409 
       0.564573         303.757         128.266 
       0.570708         297.806         125.215 
       0.576825         291.923          122.27 
       0.582926         290.079          119.43 
       0.589034         287.178         116.679 
       0.595184         284.719             114 
       0.601379         279.904         111.389 
       0.607522         276.195         108.883 
       0.613639         274.352         106.465 
       0.619772         268.767         104.115 
       0.625918          267.54         101.833 
       0.632068         262.957          99.617 
       0.638161         261.779         97.4868 
         0.6443         257.525         95.4033 
       0.650464         255.022         93.3731 
       0.656582         252.292         91.4169 
       0.662703         251.874         89.5169 
       0.668861          247.56          87.661 
       0.675024         244.477         85.8572 
       0.681124         242.607         84.1231 
       0.687237         240.019          82.434 
       0.693381           236.3         80.7838 
       0.699536         234.091         79.1761 
       0.705665         231.968         77.6191 
       0.711789         230.453         76.1056 
       0.717957         229.016         74.6221 
        0.72409         226.609         73.1866 
       0.730186         223.777         71.7978 
       0.736317         221.347         70.4377 
       0.742472         219.803         69.1081 
       0.748622         217.942         67.8144 
        0.75476         215.591         66.5567 
       0.760888         213.287         65.3331 
       0.767043         213.073         64.1356 
       0.773185         210.847         62.9708 
       0.779291         206.973         61.8417 
       0.785407         206.482         60.7387 
       0.791564         204.231         59.6559 
       0.797719          201.68         58.6002 
       0.803834         200.231         57.5768 
       0.809972         199.522         56.5743 
       0.816124         198.565         55.5937 
       0.822261         196.679         54.6391 
       0.828378         194.491         53.7098 
       0.834502         193.523         52.8015 
       0.840667         191.351         51.9084 
       0.846816         189.816         51.0386 
       0.852925         188.876         50.1943 
       0.859047          187.27         49.3674 
       0.865192         184.823         48.5565 
       0.871341         183.419         47.7634 
       0.877463         182.427         46.9918 
       0.883569         181.804         46.2392 
       0.889708         179.527         45.4993 
       0.895864         177.999         44.7738 
       0.902008         176.774         44.0657 
       0.908149         176.101         43.3734 
       0.914301         173.648          42.695 
       0.920448         172.764         42.0318 
       0.926574         171.308          41.385 
       0.932687         171.326         40.7533 
       0.938823         169.035         40.1326 
       0.944975         168.165         39.5235 
       0.951105         167.068         38.9292 
       0.957225         165.812         38.3482 
       0.963368         163.464         37.7771 
       0.969511          162.96         37.2177 
       0.975621         161.493         36.6727 
       0.981748         161.396         36.1373 
       0.987916         159.811         35.6092 
        0.99406         158.343         35.0936 
        1.00019         158.064         34.5894 
        1.00632         156.558         34.0955 
        1.01246         155.503         33.6106 
        1.01859         155.215         33.1358 
        1.02471         153.031         32.6709 
        1.03085         151.817         32.2133 
        1.03698         151.058         31.7655 
        1.04314         149.597         31.3243 
        1.04929         149.084         30.8925 
        1.05541         148.623         30.4707 
        1.06154         147.107         30.0557 
        1.06769         146.882         29.6478 
        1.07382         145.421         29.2489 
        1.07993         144.312         28.8582 
        1.08607         143.764         28.4731 
        1.09222         143.005         28.0946 
        1.09836         141.799         27.7235 
        1.10449         140.327         27.3595 
        1.11063         139.345         27.0017 
        1.11677         138.855         26.6504 
         1.1229         137.772          26.306 
        1.12903         137.281         25.9674 
        1.13518         136.488         25.6345 
        1.14131         135.119         25.3077 
        1.14745         135.009         24.9868 
        1.15359         133.785         24.6713 
        1.15973         132.954         24.3612 
        1.16584         131.891         24.0579 
        1.17197         131.398         23.7593 
        1.17811          130.39         23.4648 
        1.18424         129.907         23.1763 
        1.19038         129.505         22.8917 
        1.19652         128.309         22.6121 
        1.20267         127.733         22.3371 
        1.20881         126.793         22.0668 
        1.21495          125.91         21.8014 
        1.22108         125.215         21.5404 
         1.2272           124.2         21.2842 
        1.23334         123.865         21.0317 
        1.23949         122.982         20.7827 
        1.24562          122.26         20.5384 
        1.25174         121.593         20.2984 
        1.25789         120.855         20.0615 
        1.26402          119.55         19.8288 
        1.27014         118.902         19.6004 
        1.27628         118.636         19.3748 
        1.28244         118.336         19.1524 
        1.28858         117.427         18.9338 
        1.29471         116.335         18.7191 
        1.30084         116.198          18.508 
        1.30697         114.906         18.2998 
        1.31312         114.453         18.0944 
        1.31925         113.654         17.8929 
        1.32537          113.34         17.6947 
        1.33151         112.364         17.4988 
        1.33765         111.689         17.3059 
        1.34378         111.225         17.1164 
        1.34992         110.883         16.9295 
        1.35606         110.417         16.7451 
         1.3622         109.286         16.5637 
        1.36833         108.615         16.3854 
        1.37445         108.202         16.2099 
        1.38059         107.409         16.0364 
        1.38675         106.814         15.8651 
        1.39288         106.556         15.6969 
        1.39901          106.04         15.5312 
        1.40515         105.035         15.3676 
         1.4113         104.663         15.2064 
        1.41742          103.87         15.0481 
        1.42355         103.391         14.8918 
         1.4297         102.917         14.7372 
        1.43585         102.117         14.5849 
        1.44198         101.688         14.4353 
        1.44809         101.262         14.2881 
        1.45423         100.823         14.1424 
        1.46036         100.103          13.999 
        1.46649         99.3731         13.8576 
        1.47263          98.746          13.718 
        1.47877         98.3768         13.5803 
        1.48491          97.574         13.4444 
        1.49104         97.4597         13.3106 
        1.49718         96.7846         13.1785 
        1.50333         96.2506          13.048 
        1.50947         95.7197         12.9195 
         1.5156         95.2331          12.793 
        1.52172         94.6655         12.6681 
        1.52787         94.1197         12.5447 
          1.534         93.6425         12.4231 
        1.54013         93.1793         12.3032 
        1.54627         92.7553         12.1846 
        1.55241         92.1074         12.0676 
        1.55855         91.5606         11.9524 
        1.56467         91.3031         11.8389 
         1.5708         90.5373         11.7266 
        1.57695         90.4012         11.6155 
        1.58308         89.8569         11.5062 
        1.58922         89.4835         11.3982 
        1.59535         88.9099         11.2916 
         1.6015         88.5081         11.1863 
        1.60764         87.9649         11.0823 
        1.61376         87.6255           10.98 
        1.61989         87.0774         10.8788 
        1.62604         86.5923         10.7787 
        1.63218         86.4505           10.68 
        1.63831          85.566         10.5827 
        1.64444          85.215         10.4865 
        1.65059         84.7855         10.3914 
        1.65673         84.2218         10.2975 
        1.66285         83.9421          10.205 
        1.66898         83.6156         10.1137 
        1.67512         82.9071         10.0232 
        1.68127         82.6733         9.93385 
         1.6874         81.9952         9.84575 
        1.69353          81.657         9.75877 
        1.69967         81.4642         9.67263 
        1.70581         80.9081         9.58757 
        1.71193         80.4579         9.50385 
        1.71806         80.1476         9.42096 
        1.72421         79.5683         9.33889 
        1.73035         79.3161         9.25789 
        1.73649         78.9554         9.17787 
        1.74262         78.3765         9.09886 
        1.74876         78.1145         9.02073 
        1.75489         77.5717         8.94368 
        1.76101         77.1686         8.86754 
        1.76715         76.6805         8.79219 
        1.77329         76.4855         8.71763 
        1.77943         75.8825         8.64389 
        1.78557         75.8053         8.57112 
        1.79171          75.014         8.49917 
        1.79785         74.6908         8.42803 
        1.80399         74.3856         8.35772 
        1.81012         74.1146          8.2883 
        1.81625         73.7139         8.21971 
        1.82239         73.3411         8.15179 
        1.82853         73.0115         8.08466 
        1.83466         72.6215         8.01836 
        1.84078         72.1659         7.95287 
        1.84692         71.9053         7.88801 
        1.85306         71.5048         7.82379 
         1.8592         71.2452         7.76038 
        1.86533         70.7747         7.69772 
        1.87147         70.2861         7.63567 
        1.87761          70.069         7.57428 
        1.88375         69.6842         7.51364 
        1.88988         69.3369         7.45372 
        1.89601         69.0067         7.39443 
        1.90215          68.478         7.33573 
        1.90829          68.222          7.2777 
        1.91442         67.9479         7.22029 
        1.92056         67.5122         7.16355 
         1.9267         67.2526         7.10736 
        1.93284         66.8832         7.05174 
        1.93897         66.5665         6.99682 
        1.94509         66.3166          6.9426 
        1.95123         65.9259         6.88881 
        1.95737         65.5207         6.83556 
        1.96349         65.1602         6.78301 
        1.96964         64.8511         6.73086 
        1.97578         64.5212         6.67923 
        1.98192         64.4834         6.62825 
        1.98805         63.8311          6.5778 
        1.99419         63.6292         6.52786 
        2.00033         63.4155         6.47842 
        2.00647         63.0103         6.42951 
         2.0126         62.6843         6.38118 
        2.01874         62.2193         6.33328 
        2.02488         62.0778         6.28582 
        2.03101         61.6759         6.23894 
        2.03714         61.2842         6.19259 
        2.04328         61.0593         6.14664 
        2.04941         60.8134         6.10121 
        2.05554         60.5849         6.05626 
        2.06167         60.2685         6.01171 
        2.06781         59.7953         5.96759 
        2.07396         59.5283         5.92386 
        2.08009         59.3544         5.88064 
        2.08622         59.0332          5.8379 
        2.09237         58.7673          5.7955 
        2.09851         58.5581         5.75351 
        2.10464         58.1552         5.71201 
        2.11077          57.913         5.67096 
        2.11691         57.5819         5.63023 
        2.12305         57.2858          5.5899 
        2.12918         57.0229         5.55006 
        2.13531         56.6512          5.5106 
        2.14145         56.4308         5.47144 
         2.1476          56.107         5.43261 
        2.15372         55.9573         5.39435 
        2.15985         55.5925         5.35642 
        2.16599         55.3057         5.31875 
        2.17213         55.0797         5.28148 
        2.17827         54.7846         5.24458 
         2.1844         54.4943         5.20806 
        2.19054         54.2733         5.17187 
        2.19666         54.0295         5.13608 
         2.2028         53.8791          5.1006 
        2.20893         53.4915         5.06543 
        2.21508         53.3123         5.03056 
        2.22122          53.014           4.996 
        2.22736         52.7738         4.96184 
        2.23349         52.4756           4.928 
        2.23962         52.1865         4.89447 
        2.24577         51.8914         4.86121 
         2.2519          51.738         4.82831 
        2.25802         51.5039         4.79576 
        2.26417         51.1973         4.76343 
        2.27031         50.9543         4.73136 
        2.27644          50.704         4.69968 
        2.28257         50.4955         4.66829 
        2.28872         50.1764         4.63713 
        2.29486         49.9085         4.60626 
        2.30099         49.6569         4.57573 
        2.30712         49.5099         4.54547 
        2.31326         49.1982         4.51543 
         2.3194         48.9856         4.48568 
        2.32553         48.7351         4.45624 
        2.33166         48.4256         4.42708 
         2.3378         48.2224         4.39814 
        2.34394         47.9777         4.36945 
        2.35007         47.7606         4.34106 
        2.35619         47.5831         4.31295 
        2.36233         47.3598         4.28503 
        2.36848         47.1455          4.2573 
        2.37462         46.8398         4.22986 
        2.38075         46.7228          4.2027 
        2.38689         46.4682         4.17575 
        2.39303         46.2053         4.14904 
        2.39916         45.9883          4.1226 
        2.40529         45.8458         4.09638 
        2.41143         45.5948         4.07037 
        2.41757          45.363         4.04458 
         2.4237         45.1513         4.01906 
        2.42983         44.9048         3.99376 
        2.43598         44.6862         3.96861 
        2.44211          44.494         3.94372 
        2.44823         44.3067          3.9191 
        2.45437          44.065         3.89462 
        2.46052         43.8968         3.87033 
        2.46665         43.7103         3.84628 
        2.47279         43.3881         3.82245 
        2.47892         43.2722         3.79881 
        2.48507         42.9988         3.77534 
         2.4912          42.849         3.75212 
