# k  (h/Mpc)    P(k)  (Mpc/h)^3    P_linear(k)  (Mpc/h)^3
     0.00783031           10696         10757.6 
       0.013688         13293.6           13613 
       0.019231           13942         14138.3 
      0.0249154           13421         13419.9 
      0.0312784         11799.3         11925.8 
      0.0375637         10153.5         10334.9 
      0.0433917         8992.96         9057.34 
      0.0492413         7948.62         8066.48 
      0.0555754         7247.68         7301.47 
      0.0619321         6518.74         6758.99 
       0.067871         6207.08         6349.61 
      0.0738098          5851.7         5949.52 
      0.0800417         5407.83         5488.72 
      0.0862327         4886.85         4984.21 
      0.0921407         4424.34         4488.45 
      0.0982031         4012.45         4008.56 
       0.104506         3551.81         3580.76 
       0.110769         3252.19         3248.49 
       0.116806         3080.77         3014.25 
       0.122832         2883.14         2846.98 
       0.129052         2746.43         2716.44 
       0.135211         2672.09         2600.48 
       0.141259         2504.64         2477.85 
       0.147318         2334.37         2336.04 
       0.153489         2201.39         2173.78 
       0.159709         2094.12         2003.27 
       0.165845         1900.63         1842.72 
       0.171974          1835.1         1702.23 
       0.178125         1751.61          1587.8 
       0.184229         1615.69         1500.74 
        0.19034         1585.62         1435.01 
       0.196428         1539.73         1382.77 
       0.202534         1449.18         1334.97 
       0.208729          1426.8         1283.97 
       0.214876         1369.66         1227.04 
       0.220989         1291.37         1164.17 
       0.227147         1256.89         1097.54 
        0.23329         1204.78         1032.26 
       0.239377         1186.14          972.97 
       0.245482         1124.24         921.611 
       0.251667         1080.61         878.656 
       0.257832         1065.59         843.893 
       0.263955         1013.93         814.986 
       0.270079         984.605         788.841 
        0.27624         944.827         762.844 
       0.282372         929.891         735.593 
        0.28843         919.723         706.897 
       0.294538         873.755         676.731 
       0.300721         851.579         646.179 
        0.30691         834.764         617.022 
       0.313033         798.904          590.69 
       0.319153         787.295         567.459 
       0.325316         775.837          547.09 
        0.33145         759.264         529.312 
       0.337538         732.699         513.261 
       0.343633         713.665         497.941 
       0.349808         697.927         482.509 
       0.355968         685.086         466.819 
       0.362074         662.653         451.005 
       0.368217         659.983         435.068 
       0.374374         648.663         419.511 
       0.380519         623.762         404.779 
       0.386598         618.242         391.266 
       0.392688         604.308         378.896 
        0.39888         588.786         367.391 
       0.405048         578.525         356.823 
       0.411186         576.512         346.888 
       0.417313         571.253         337.282 
       0.423458         553.996         327.807 
       0.429607         538.962          318.38 
       0.435692         532.049         309.136 
       0.441815          522.89         300.024 
       0.447964         513.413         291.171 
       0.454126         507.256         282.703 
       0.460267         499.164         274.751 
       0.466387         491.217         267.303 
        0.47254         483.619         260.239 
       0.478662         474.309         253.574 
       0.484765         469.352           247.2 
       0.490885         464.296         240.994 
       0.497035         455.123          234.89 
       0.503198         454.778         228.906 
       0.509342         444.424         223.072 
       0.515458         436.844         217.413 
       0.521598         431.271         211.918 
       0.527764         423.958          206.62 
       0.533884         421.697         201.591 
           0.54         416.242          196.78 
       0.546137         408.148          192.15 
       0.552299         407.228         187.681 
       0.558452         400.807         183.373 
       0.564573         396.894         179.211 
       0.570708         392.132          175.14 
       0.576825          384.91         171.182 
       0.582926          382.66          167.34 
       0.589034         376.907         163.603 
       0.595184          374.17         159.956 
       0.601379         368.236         156.402 
       0.607522         361.606         152.994 
       0.613639         360.295         149.717 
       0.619772         358.756         146.544 
       0.625918         352.533         143.466 
       0.632068         348.879         140.477 
       0.638161         345.998         137.595 
         0.6443         342.422         134.764 
       0.650464         337.896         131.996 
       0.656582          334.89         129.323 
       0.662703         332.556         126.722 
       0.668861         327.047         124.179 
       0.675024         325.404         121.707 
       0.681124         321.475         119.329 
       0.687237         319.107         117.013 
       0.693381         315.184         114.749 
       0.699536         312.858         112.544 
       0.705665         309.642         110.408 
       0.711789         307.706         108.331 
       0.717957         303.774         106.293 
        0.72409         300.414         104.318 
       0.730186         302.242         102.404 
       0.736317         296.581         100.526 
       0.742472         293.619         98.6884 
       0.748622         290.483         96.8981 
        0.75476         290.109         95.1566 
       0.760888         286.718         93.4614 
       0.767043         283.716         91.8023 
       0.773185         282.195         90.1882 
       0.779291         277.957         88.6231 
       0.785407         277.101         87.0936 
       0.791564         274.381          85.591 
       0.797719         270.121         84.1249 
       0.803834          272.24         82.7023 
       0.809972         268.333         81.3074 
       0.816124         264.869         79.9415 
       0.822261         262.621         78.6106 
       0.828378         262.307         77.3142 
       0.834502          258.37         76.0461 
       0.840667          258.49         74.7984 
       0.846816         253.895         73.5826 
       0.852925         253.725         72.4018 
       0.859047         251.239         71.2448 
       0.865192         250.798         70.1095 
       0.871341         247.334         68.9985 
       0.877463         245.258         67.9168 
       0.883569          244.56         66.8612 
       0.889708         242.182         65.8229 
       0.895864         240.211          64.804 
       0.902008         238.222          63.809 
       0.908149         236.286         62.8356 
       0.914301         234.915          61.881 
       0.920448         234.009         60.9472 
       0.926574         231.892         60.0361 
       0.932687         230.667         59.1457 
       0.938823         228.624         58.2702 
       0.944975         227.647         57.4106 
       0.951105         225.235         56.5715 
       0.957225         223.578         55.7507 
       0.963368         223.119         54.9435 
       0.969511         219.427         54.1524 
       0.975621         218.375         53.3812 
       0.981748         217.364         52.6232 
       0.987916         216.337         51.8752 
        0.99406         214.427         51.1447 
        1.00019         213.071         50.4298 
        1.00632         212.244         49.7292 
        1.01246         210.543         49.0411 
        1.01859         208.469         48.3672 
        1.02471         206.904         47.7068 
        1.03085         205.983         47.0566 
        1.03698         204.659           46.42 
        1.04314         204.246         45.7925 
        1.04929         202.842         45.1781 
        1.05541         201.187         44.5776 
        1.06154         199.513         43.9866 
        1.06769         198.156         43.4055 
        1.07382         197.703         42.8368 
        1.07993          195.46         42.2797 
        1.08607         194.366         41.7302 
        1.09222         193.136           41.19 
        1.09836         192.437           40.66 
        1.10449         190.615           40.14 
        1.11063         189.456         39.6286 
        1.11677         188.516         39.1263 
         1.1229         187.166         38.6336 
        1.12903         186.173         38.1491 
        1.13518           184.8         37.6725 
        1.14131         183.991         37.2043 
        1.14745         182.326         36.7444 
        1.15359         180.766         36.2922 
        1.15973         180.406         35.8474 
        1.16584         179.464         35.4121 
        1.17197         178.251         34.9835 
        1.17811         176.658         34.5607 
        1.18424         175.928         34.1461 
        1.19038         174.788         33.7371 
        1.19652         173.306         33.3351 
        1.20267         172.489         32.9396 
        1.20881         171.202         32.5507 
        1.21495         170.961         32.1686 
        1.22108         169.584         31.7928 
         1.2272         168.174          31.424 
        1.23334         167.561         31.0601 
        1.23949         166.927         30.7012 
        1.24562         165.664          30.349 
        1.25174         164.607         30.0028 
        1.25789         163.324          29.661 
        1.26402         163.147         29.3252 
        1.27014           162.2         28.9955 
        1.27628         160.356         28.6698 
        1.28244         159.829         28.3485 
        1.28858         158.752         28.0327 
        1.29471         157.888         27.7223 
        1.30084         156.844          27.417 
        1.30697         155.822         27.1158 
        1.31312         154.917         26.8187 
        1.31925         153.816         26.5271 
        1.32537         153.423           26.24 
        1.33151         152.511         25.9562 
        1.33765         151.126         25.6768 
        1.34378         150.925         25.4021 
        1.34992          150.02         25.1312 
        1.35606         149.019         24.8636 
         1.3622         148.439         24.6005 
        1.36833         146.846         24.3418 
        1.37445         146.831          24.087 
        1.38059         145.552          23.835 
        1.38675         144.813         23.5861 
        1.39288         143.751         23.3417 
        1.39901         142.994         23.1009 
        1.40515         142.434          22.863 
         1.4113         141.483         22.6285 
        1.41742         140.417         22.3982 
        1.42355         140.361         22.1707 
         1.4297         138.992         21.9457 
        1.43585         138.331         21.7239 
        1.44198         137.039          21.506 
        1.44809         136.437         21.2916 
        1.45423         136.107         21.0792 
        1.46036          134.95         20.8702 
        1.46649         134.152         20.6639 
        1.47263         133.697         20.4603 
        1.47877         132.553         20.2595 
        1.48491          132.03         20.0611 
        1.49104         130.537         19.8658 
        1.49718         130.505         19.6729 
        1.50333         129.937         19.4824 
        1.50947         129.024         19.2947 
         1.5156         128.214         19.1098 
        1.52172         127.565         18.9273 
        1.52787         126.883         18.7468 
          1.534         126.208          18.569 
        1.54013         125.532         18.3936 
        1.54627          124.63         18.2202 
        1.55241         124.239         18.0489 
        1.55855         123.533         17.8802 
        1.56467          122.61          17.714 
         1.5708         121.684         17.5495 
        1.57695         121.422         17.3869 
        1.58308         120.516         17.2267 
        1.58922         120.396         17.0684 
        1.59535         119.694         16.9122 
         1.6015         118.512         16.7577 
        1.60764         117.799         16.6052 
        1.61376         117.316          16.455 
        1.61989         116.817         16.3066 
        1.62604         115.951         16.1597 
        1.63218         115.524         16.0147 
        1.63831         114.738         15.8718 
        1.64444         113.948         15.7306 
        1.65059         113.301         15.5907 
        1.65673         113.113         15.4528 
        1.66285         112.484         15.3169 
        1.66898         111.542         15.1826 
        1.67512         111.113         15.0496 
        1.68127         110.524         14.9181 
         1.6874          109.58         14.7885 
        1.69353         109.088         14.6605 
        1.69967          108.58         14.5337 
        1.70581         108.245         14.4085 
        1.71193         107.407         14.2852 
        1.71806         106.748         14.1631 
        1.72421         106.215         14.0422 
        1.73035         105.736         13.9228 
        1.73649         104.946         13.8049 
        1.74262         104.644         13.6884 
        1.74876         103.834         13.5732 
        1.75489         103.483         13.4596 
        1.76101         102.805         13.3473 
        1.76715          102.05         13.2361 
        1.77329         101.705         13.1261 
        1.77943         100.995         13.0172 
        1.78557         100.687         12.9098 
        1.79171         100.195         12.8036 
        1.79785         99.2727         12.6985 
        1.80399         99.1314         12.5946 
        1.81012         98.2669         12.4921 
        1.81625         97.8512         12.3907 
        1.82239         97.4112         12.2903 
        1.82853         96.8485         12.1911 
        1.83466         96.1207          12.093 
        1.84078         95.8369         11.9962 
        1.84692         95.5273         11.9002 
        1.85306         94.8549         11.8052 
         1.8592         94.4762         11.7114 
        1.86533         93.7761         11.6187 
        1.87147         93.4105         11.5268 
        1.87761         92.6299         11.4359 
        1.88375         92.2027         11.3461 
        1.88988         91.5093         11.2574 
        1.89601         91.4637         11.1695 
        1.90215         90.7876         11.0825 
        1.90829         90.1931         10.9965 
        1.91442         89.7732         10.9114 
        1.92056         89.4205         10.8273 
         1.9267         88.7847          10.744 
        1.93284         88.4106         10.6615 
        1.93897         88.0106           10.58 
        1.94509         87.4099         10.4996 
        1.95123         86.9652         10.4198 
        1.95737         86.6946         10.3408 
        1.96349         86.1885         10.2627 
        1.96964         85.7452         10.1853 
        1.97578         85.0994         10.1086 
        1.98192         84.6574         10.0329 
        1.98805         84.1754         9.95797 
        1.99419         83.9021         9.88379 
        2.00033          83.204         9.81032 
        2.00647         82.9787         9.73762 
         2.0126         82.5127         9.66578 
        2.01874         82.3509         9.59456 
        2.02488         81.6533         9.52399 
        2.03101         81.2552         9.45426 
        2.03714         80.8675          9.3853 
        2.04328         80.5029         9.31695 
        2.04941         80.0789         9.24934 
        2.05554         79.6101         9.18244 
        2.06167         78.9871         9.11612 
        2.06781         78.5978         9.05044 
        2.07396         78.3506         8.98532 
        2.08009         77.7492         8.92095 
        2.08622         77.6008         8.85729 
        2.09237         77.1974         8.79412 
        2.09851         76.4487         8.73156 
        2.10464         76.3711         8.66971 
        2.11077          75.993         8.60853 
        2.11691         75.6471         8.54782 
        2.12305         75.1177         8.48768 
        2.12918         74.7468         8.42827 
        2.13531         74.3462         8.36942 
        2.14145         73.8566           8.311 
         2.1476         73.6611         8.25307 
        2.15372         73.1974         8.19599 
        2.15985         72.7367         8.13939 
        2.16599         72.4486         8.08316 
        2.17213         72.0673         8.02752 
        2.17827          71.547         7.97242 
         2.1844         71.2397         7.91789 
        2.19054         70.9912         7.86385 
        2.19666         70.6556         7.81039 
         2.2028         70.1413         7.75738 
        2.20893         69.8155         7.70483 
        2.21508         69.4233         7.65272 
        2.22122         69.0269         7.60107 
        2.22736         68.7703            7.55 
        2.23349         68.3579         7.49941 
        2.23962         68.1421         7.44927 
        2.24577         67.6592         7.39953 
         2.2519         67.3269         7.35033 
        2.25802         66.9335         7.30164 
        2.26417         66.5791         7.25327 
        2.27031         66.2627         7.20528 
        2.27644         66.0035         7.15787 
        2.28257         65.6318         7.11089 
        2.28872         65.2852         7.06425 
        2.29486         65.0395         7.01803 
        2.30099         64.5626         6.97232 
        2.30712         64.3854           6.927 
        2.31326         64.0894         6.88201 
         2.3194         63.6353         6.83744 
        2.32553         63.3151         6.79334 
        2.33166         62.9879         6.74965 
         2.3378         62.7338         6.70628 
        2.34394         62.3682         6.66328 
        2.35007         62.0747         6.62072 
        2.35619         61.7427         6.57858 
        2.36233         61.4498         6.53671 
        2.36848         61.1217         6.49512 
        2.37462         60.7997         6.45398 
        2.38075         60.5231         6.41323 
        2.38689         60.1371          6.3728 
        2.39303         59.8658         6.33273 
        2.39916         59.6108         6.29304 
        2.40529         59.3413          6.2537 
        2.41143         59.0517         6.21466 
        2.41757         58.6078         6.17594 
         2.4237         58.5247         6.13762 
        2.42983         58.1267         6.09963 
        2.43598         57.8783         6.06186 
        2.44211         57.4374         6.02448 
        2.44823         57.2898         5.98749 
        2.45437         56.9499         5.95071 
        2.46052         56.5775         5.91421 
        2.46665         56.3148         5.87809 
        2.47279         56.0488         5.84227 
        2.47892         55.8866         5.80673 
        2.48507         55.4819         5.77146 
         2.4912         55.2786         5.73654 
