# k  (h/Mpc)    P(k)  (Mpc/h)^3    P_linear(k)  (Mpc/h)^3
     0.00783031           14333           14453 
       0.013688         17334.9         17827.7 
       0.019231         17836.2         18141.4 
      0.0249154         16910.8         16911.7 
      0.0312784         14598.3           14780 
      0.0375637         12402.9         12652.5 
      0.0433917         10918.7         11008.8 
      0.0492413         9614.45         9767.36 
      0.0555754         8751.34         8823.17 
      0.0619321         7834.36         8148.31 
       0.067871          7435.1         7622.28 
      0.0738098         6978.12          7094.1 
      0.0800417         6393.76         6485.91 
      0.0862327         5730.44         5835.15 
      0.0921407         5167.18         5216.19 
      0.0982031         4680.04         4638.05 
       0.104506         4140.96         4141.28 
       0.110769          3808.7         3768.22 
       0.116806         3620.09         3510.64 
       0.122832         3398.75         3324.77 
       0.129052         3225.81         3170.68 
       0.135211         3136.88            3022 
       0.141259         2919.45         2858.63 
       0.147318          2710.6         2672.19 
       0.153489          2545.7         2467.33 
       0.159709          2425.8         2262.52 
       0.165845         2204.74         2079.13 
       0.171974         2133.48         1925.81 
       0.178125         2048.32         1805.28 
       0.184229          1888.4         1714.74 
        0.19034         1859.34         1644.29 
       0.196428          1806.4         1583.63 
       0.202534         1698.67         1522.95 
       0.208729         1668.35         1455.51 
       0.214876         1594.31          1381.3 
       0.220989          1508.8         1302.92 
       0.227147         1465.14         1224.28 
        0.23329         1404.53         1151.25 
       0.239377         1390.64         1087.84 
       0.245482         1320.97         1034.57 
       0.251667         1271.81         990.296 
       0.257832         1251.78         953.328 
       0.263955         1193.87         920.539 
       0.270079         1160.62         888.705 
        0.27624         1113.01         855.662 
       0.282372         1097.65         821.117 
        0.28843         1080.58         785.823 
       0.294538         1028.76         750.384 
       0.300721         1006.78         716.149 
        0.30691         983.638         684.779 
       0.313033         943.513         657.175 
       0.319153         931.961         632.936 
       0.325316         919.739         611.282 
        0.33145         899.244          591.57 
       0.337538         868.493         572.901 
       0.343633          847.73         554.455 
       0.349808         830.534         535.635 
       0.355968         814.694         516.793 
       0.362074           787.8         498.301 
       0.368217         785.382         480.325 
       0.374374         773.192         463.298 
       0.380519         744.448         447.524 
       0.386598         739.357         433.183 
       0.392688         721.171         419.918 
        0.39888         704.643         407.344 
       0.405048          691.02         395.441 
       0.411186         689.469         383.957 
       0.417313         684.571          372.73 
       0.423458         663.783         361.636 
       0.429607         645.335         350.749 
       0.435692         638.863         340.294 
       0.441815         626.747         330.184 
       0.447964         617.719         320.519 
       0.454126         610.145         311.376 
       0.460267          601.12          302.77 
       0.466387         590.752          294.63 
        0.47254         581.651         286.815 
       0.478662         572.347         279.328 
       0.484765         565.972         272.078 
       0.490885         560.063         264.993 
       0.497035         548.673         258.062 
       0.503198         548.336         251.316 
       0.509342         537.388         244.806 
       0.515458         526.936         238.563 
       0.521598         523.548         232.554 
       0.527764         512.519         226.771 
       0.533884          508.16         221.261 
           0.54         503.385         215.965 
       0.546137         494.927         210.838 
       0.552299         492.956         205.856 
       0.558452          485.76         201.028 
       0.564573         481.847         196.354 
       0.570708         476.405         191.804 
       0.576825         467.097         187.404 
       0.582926         465.612         183.154 
       0.589034         458.173         179.037 
       0.595184         454.319         175.027 
       0.601379          447.29         171.123 
       0.607522         439.524         167.381 
       0.613639         438.774         163.775 
       0.619772         436.578         160.269 
       0.625918         428.272         156.857 
       0.632068         425.895         153.536 
       0.638161         421.636         150.337 
         0.6443          416.37         147.203 
       0.650464         412.388         144.146 
       0.656582         408.946           141.2 
       0.662703         405.444         138.338 
       0.668861         399.284         135.541 
       0.675024         397.489         132.822 
       0.681124         390.752         130.206 
       0.687237         389.697         127.657 
       0.693381          384.01         125.165 
       0.699536         383.079         122.736 
       0.705665          378.08         120.383 
       0.711789         376.575         118.093 
       0.717957         371.558         115.847 
        0.72409         367.524         113.671 
       0.730186          368.86         111.564 
       0.736317         362.337           109.5 
       0.742472         359.275         107.481 
       0.748622         356.887         105.515 
        0.75476          354.11         103.604 
       0.760888         351.158         101.743 
       0.767043          348.13         99.9223 
       0.773185         345.698         98.1502 
       0.779291         341.606         96.4315 
       0.785407         339.646         94.7518 
       0.791564         337.266         93.1016 
       0.797719         331.924         91.4917 
       0.803834         333.826         89.9302 
       0.809972         328.343         88.3997 
       0.816124          325.28         86.9018 
       0.822261         322.893         85.4429 
       0.828378         321.559         84.0222 
       0.834502         316.568         82.6328 
       0.840667         316.835         81.2663 
       0.846816         311.582         79.9347 
       0.852925         312.128         78.6417 
       0.859047           309.1         77.3747 
       0.865192         307.677         76.1318 
       0.871341          303.61         74.9155 
       0.877463         301.995         73.7314 
       0.883569         299.833         72.5761 
       0.889708         297.088         71.4398 
       0.895864         294.008          70.325 
       0.902008         292.684         69.2364 
       0.908149         290.037         68.1717 
       0.914301         288.596         67.1277 
       0.920448         286.466         66.1068 
       0.926574         284.548         65.1107 
       0.932687         283.543         64.1374 
       0.938823         280.252         63.1805 
       0.944975         279.647         62.2411 
       0.951105         276.816         61.3243 
       0.957225          273.88         60.4276 
       0.963368         274.305          59.546 
       0.969511         269.299         58.6819 
       0.975621         268.047         57.8398 
       0.981748         267.275         57.0122 
       0.987916         265.666         56.1957 
        0.99406         263.155         55.3983 
        1.00019         260.992          54.618 
        1.00632         260.546         53.8536 
        1.01246         258.275         53.1028 
        1.01859         255.446         52.3676 
        1.02471          253.85         51.6474 
        1.03085         252.842         50.9383 
        1.03698         251.695         50.2441 
        1.04314         250.522         49.5599 
        1.04929         248.888         48.8902 
        1.05541          246.63         48.2356 
        1.06154         244.853         47.5915 
        1.06769         242.884         46.9582 
        1.07382         241.669         46.3386 
        1.07993         239.829         45.7317 
        1.08607         238.617         45.1331 
        1.09222         236.589         44.5448 
        1.09836         235.956         43.9676 
        1.10449          234.15         43.4014 
        1.11063         232.436         42.8446 
        1.11677          230.49         42.2978 
         1.1229         230.014         41.7616 
        1.12903         227.782         41.2342 
        1.13518          226.38         40.7155 
        1.14131          225.61          40.206 
        1.14745         223.178         39.7055 
        1.15359         221.642         39.2136 
        1.15973         220.879         38.7297 
        1.16584         219.449         38.2563 
        1.17197         218.256           37.79 
        1.17811         216.305         37.3302 
        1.18424         215.144         36.8794 
        1.19038          214.26         36.4348 
        1.19652         211.726         35.9976 
        1.20267         211.155         35.5677 
        1.20881          209.55         35.1449 
        1.21495          209.25         34.7297 
        1.22108         207.501         34.3213 
         1.2272         205.449         33.9205 
        1.23334         204.753         33.5251 
        1.23949         203.663         33.1352 
        1.24562         202.298         32.7525 
        1.25174         201.201         32.3765 
        1.25789         199.339         32.0053 
        1.26402         199.078         31.6406 
        1.27014         198.172         31.2825 
        1.27628         196.386         30.9289 
        1.28244         194.955         30.5801 
        1.28858         193.918         30.2372 
        1.29471         192.761         29.9003 
        1.30084          191.91         29.5689 
        1.30697         190.145          29.242 
        1.31312          189.18         28.9196 
        1.31925         187.927         28.6031 
        1.32537         187.371         28.2917 
        1.33151         186.054         27.9838 
        1.33765         184.729         27.6807 
        1.34378         184.015         27.3827 
        1.34992         182.499         27.0889 
        1.35606         181.736         26.7987 
         1.3622         180.412         26.5134 
        1.36833         179.309         26.2329 
        1.37445         179.138         25.9566 
        1.38059         177.076         25.6835 
        1.38675          176.03         25.4136 
        1.39288         175.113         25.1488 
        1.39901         173.789         24.8878 
        1.40515         173.325         24.6299 
         1.4113         172.031         24.3758 
        1.41742         170.711         24.1262 
        1.42355         170.604         23.8797 
         1.4297          169.16         23.6359 
        1.43585         168.517         23.3956 
        1.44198         166.806         23.1596 
        1.44809         166.323         22.9272 
        1.45423         165.362         22.6972 
        1.46036          164.25         22.4708 
        1.46649         163.206         22.2474 
        1.47263         162.673         22.0269 
        1.47877         161.436         21.8095 
        1.48491         160.246         21.5946 
        1.49104          158.83         21.3832 
        1.49718         158.607         21.1744 
        1.50333         157.174          20.968 
        1.50947         156.593         20.7649 
         1.5156         155.588         20.5647 
        1.52172         154.863         20.3672 
        1.52787         154.018         20.1719 
          1.534         153.206         19.9794 
        1.54013         152.094         19.7897 
        1.54627         151.339          19.602 
        1.55241         150.646         19.4168 
        1.55855         149.942         19.2342 
        1.56467         148.915         19.0545 
         1.5708         147.672         18.8766 
        1.57695         147.249         18.7007 
        1.58308         146.055         18.5274 
        1.58922         145.375         18.3562 
        1.59535         144.407         18.1873 
         1.6015         143.688         18.0202 
        1.60764         142.711         17.8554 
        1.61376         141.817          17.693 
        1.61989         141.304         17.5325 
        1.62604         140.162         17.3737 
        1.63218         139.627         17.2169 
        1.63831         138.745         17.0625 
        1.64444          137.69         16.9098 
        1.65059         137.185         16.7587 
        1.65673         136.389         16.6096 
        1.66285         135.859         16.4627 
        1.66898         134.833         16.3176 
        1.67512         133.946         16.1739 
        1.68127          133.49         16.0318 
         1.6874         132.508         15.8918 
        1.69353          132.05         15.7535 
        1.69967         131.022         15.6165 
        1.70581         130.603         15.4813 
        1.71193         129.658         15.3481 
        1.71806         128.501         15.2162 
        1.72421          128.14         15.0857 
        1.73035         127.404         14.9568 
        1.73649         126.471         14.8294 
        1.74262         126.076         14.7036 
        1.74876         125.291         14.5792 
        1.75489         124.891         14.4565 
        1.76101          123.73         14.3353 
        1.76715         123.002         14.2153 
        1.77329         122.309         14.0965 
        1.77943         121.546          13.979 
        1.78557         121.101          13.863 
        1.79171          120.33         13.7483 
        1.79785         119.474         13.6349 
        1.80399         118.978         13.5229 
        1.81012         118.177         13.4122 
        1.81625         117.633         13.3028 
        1.82239         117.071         13.1945 
        1.82853         116.189         13.0874 
        1.83466         115.342         12.9816 
        1.84078         115.107         12.8771 
        1.84692         114.708         12.7736 
        1.85306         113.779         12.6711 
         1.8592         113.299         12.5699 
        1.86533         112.405         12.4699 
        1.87147         111.984         12.3708 
        1.87761         111.174         12.2728 
        1.88375         110.457         12.1759 
        1.88988         109.948         12.0802 
        1.89601         109.583         11.9854 
        1.90215         109.146         11.8916 
        1.90829          108.03         11.7989 
        1.91442         107.257         11.7071 
        1.92056         106.928         11.6164 
         1.9267         106.313         11.5266 
        1.93284         105.605         11.4377 
        1.93897         105.165         11.3498 
        1.94509         104.597         11.2631 
        1.95123         104.078         11.1771 
        1.95737         103.516         11.0919 
        1.96349         102.915         11.0078 
        1.96964         102.248         10.9243 
        1.97578         101.748         10.8417 
        1.98192         101.426         10.7601 
        1.98805         100.755         10.6793 
        1.99419          100.01         10.5994 
        2.00033         99.5603         10.5202 
        2.00647         99.0925         10.4419 
         2.0126          98.479         10.3645 
        2.01874         98.1126         10.2878 
        2.02488         97.3288         10.2117 
        2.03101         96.9541         10.1366 
        2.03714         96.3175         10.0623 
        2.04328         96.0669         9.98869 
        2.04941         95.4889         9.91586 
        2.05554         94.9757         9.84381 
        2.06167         94.1779         9.77237 
        2.06781         93.7998         9.70164 
        2.07396         93.2703         9.63151 
        2.08009         92.5602         9.56219 
        2.08622            92.3         9.49363 
        2.09237         91.6481         9.42561 
        2.09851         91.2026         9.35825 
        2.10464         90.9533         9.29166 
        2.11077          90.236         9.22579 
        2.11691         89.8852         9.16043 
        2.12305          89.373         9.09568 
        2.12918         88.8358         9.03173 
        2.13531          88.366         8.96838 
        2.14145         87.9356         8.90549 
         2.1476         87.4909         8.84314 
        2.15372         86.9022         8.78169 
        2.15985         86.5133         8.72077 
        2.16599         85.9367         8.66025 
        2.17213          85.475         8.60037 
        2.17827         84.9587         8.54107 
         2.1844         84.6906         8.48238 
        2.19054         84.1062         8.42422 
        2.19666         83.5549         8.36669 
         2.2028         83.3816         8.30964 
        2.20893         82.9654          8.2531 
        2.21508         82.4194         8.19703 
        2.22122         81.9444         8.14145 
        2.22736         81.6617         8.08651 
        2.23349         81.0299         8.03208 
        2.23962         80.6388         7.97813 
        2.24577            80.3         7.92463 
         2.2519         79.7879          7.8717 
        2.25802         79.4274         7.81933 
        2.26417         78.8714         7.76729 
        2.27031         78.4001         7.71568 
        2.27644         78.1476         7.66469 
        2.28257         77.7205         7.61416 
        2.28872         77.2948         7.56399 
        2.29486         77.1133         7.51428 
        2.30099         76.4186         7.46513 
        2.30712         76.2088         7.41639 
        2.31326          75.727           7.368 
         2.3194         75.3272         7.32008 
        2.32553         74.9196         7.27266 
        2.33166         74.4775         7.22568 
         2.3378         74.1764         7.17905 
        2.34394         73.8638         7.13282 
        2.35007         73.2858         7.08706 
        2.35619         73.0234         7.04175 
        2.36233          72.564         6.99674 
        2.36848         72.2061         6.95203 
        2.37462         71.9406          6.9078 
        2.38075         71.4291           6.864 
        2.38689         71.1028         6.82054 
        2.39303         70.8124         6.77747 
        2.39916         70.3824         6.73482 
        2.40529         70.1267         6.69253 
        2.41143         69.6911         6.65058 
        2.41757         69.2621         6.60897 
         2.4237         68.8738         6.56779 
        2.42983         68.5222         6.52696 
        2.43598         68.2759         6.48638 
        2.44211         67.9605         6.44621 
        2.44823         67.5862         6.40647 
        2.45437          67.242         6.36695 
        2.46052         66.8671         6.32773 
        2.46665         66.2621         6.28892 
        2.47279          66.168         6.25044 
        2.47892         65.8764         6.21226 
        2.48507         65.4871         6.17436 
         2.4912         65.0934         6.13685 
