# k  (h/Mpc)    Pcb(k)  (Mpc/h)^3    Pcb_linear(k)  (Mpc/h)^3
     0.00783031         8707.78         8754.39 
       0.013688         10594.3         10816.3 
       0.019231         10889.6         11015.3 
      0.0249154         10291.5         10273.4 
      0.0312784         8918.62         8981.36 
      0.0375637         7591.96         7690.16 
      0.0433917          6671.7         6692.04 
      0.0492413         5882.16         5938.02 
      0.0555754         5354.04         5364.45 
      0.0619321         4820.31         4954.46 
       0.067871         4568.24         4634.83 
      0.0738098         4274.94         4313.83 
      0.0800417         3920.63         3944.13 
      0.0862327          3512.7         3548.49 
      0.0921407         3155.91         3172.15 
      0.0982031         2845.47         2820.62 
       0.104506         2515.94         2518.55 
       0.110769         2306.63         2291.71 
       0.116806         2187.65         2135.08 
       0.122832         2050.15         2022.06 
       0.129052         1955.78         1928.36 
       0.135211         1891.36         1837.95 
       0.141259         1766.65          1738.6 
       0.147318            1636         1625.22 
       0.153489         1530.85         1500.63 
       0.159709         1443.56         1376.08 
       0.165845         1307.84         1264.54 
       0.171974         1260.78          1171.3 
       0.178125         1199.24            1098 
       0.184229         1112.89         1042.93 
        0.19034         1089.06         1000.09 
       0.196428          1055.1         963.191 
       0.202534         989.717         926.289 
       0.208729         971.429          885.27 
       0.214876         930.064         840.138 
       0.220989         869.533         792.465 
       0.227147         844.601         744.635 
        0.23329         807.775          700.22 
       0.239377         789.961         661.652 
       0.245482         747.438         629.254 
       0.251667         717.412         602.326 
       0.257832          708.35         579.841 
       0.263955         671.332           559.9 
       0.270079         649.117         540.538 
        0.27624         622.383         520.442 
       0.282372         608.865          499.43 
        0.28843         602.913         477.964 
       0.294538         571.478         456.409 
       0.300721          553.15         435.588 
        0.30691         542.973         416.507 
       0.313033         518.421         399.717 
       0.319153         509.536         384.974 
       0.325316         499.423         371.803 
        0.33145         487.652         359.814 
       0.337538         470.211          348.46 
       0.343633         456.433         337.239 
       0.349808         444.792         325.794 
       0.355968         435.921         314.333 
       0.362074         422.182         303.086 
       0.368217         418.423         292.153 
       0.374374         409.464         281.796 
       0.380519         392.827         272.203 
       0.386598         387.895         263.479 
       0.392688         378.549         255.411 
        0.39888         368.878         247.763 
       0.405048         361.987         240.522 
       0.411186          359.79         233.539 
       0.417313         353.905         226.709 
       0.423458         343.984         219.962 
       0.429607         335.085         213.339 
       0.435692         329.479         206.981 
       0.441815         323.615         200.831 
       0.447964         315.702         194.953 
       0.454126         311.419         189.392 
       0.460267         306.842         184.157 
       0.466387         300.982         179.206 
        0.47254         296.971         174.453 
       0.478662         289.242         169.899 
       0.484765         285.795          165.49 
       0.490885         282.178          161.18 
       0.497035         277.521         156.964 
       0.503198         275.664         152.861 
       0.509342         268.438         148.901 
       0.515458         264.801         145.104 
       0.521598         259.387         141.449 
       0.527764         256.279         137.932 
       0.533884         255.258         134.581 
           0.54         250.194         131.359 
       0.546137         244.685         128.241 
       0.552299         243.239         125.211 
       0.558452         239.095         122.274 
       0.564573         237.333         119.431 
       0.570708         232.539         116.663 
       0.576825          229.09         113.987 
       0.582926         226.845         111.402 
       0.589034         223.569         108.898 
       0.595184         221.904         106.459 
       0.601379         217.862         104.085 
       0.607522         213.637         101.809 
       0.613639         212.342         99.6152 
       0.619772         210.604         97.4827 
       0.625918         208.288         95.4073 
       0.632068         204.125         93.3877 
       0.638161         202.503         91.4415 
         0.6443         200.983         89.5352 
       0.650464         197.347         87.6761 
       0.656582         195.941         85.8842 
       0.662703         194.295         84.1433 
       0.668861         190.514         82.4422 
       0.675024         190.279         80.7881 
       0.681124         187.629         79.1971 
       0.687237         185.518         77.6467 
       0.693381         183.471         76.1312 
       0.699536          181.62         74.6539 
       0.705665         179.664         73.2224 
       0.711789         177.632         71.8296 
       0.717957         175.716         70.4633 
        0.72409         173.965           69.14 
       0.730186         174.257         67.8586 
       0.736317         171.305         66.6028 
       0.742472         168.998         65.3746 
       0.748622         166.558          64.179 
        0.75476         167.211         63.0164 
       0.760888         165.126          61.885 
       0.767043         162.476         60.7773 
       0.773185         161.064         59.6994 
       0.779291         159.063          58.654 
       0.785407          158.15         57.6323 
       0.791564         156.833         56.6287 
       0.797719         154.562         55.6494 
       0.803834         154.842         54.6997 
       0.809972         153.433         53.7688 
       0.816124         151.093         52.8577 
       0.822261         149.864         51.9703 
       0.828378         149.647         51.1061 
       0.834502         147.404         50.2611 
       0.840667         146.954         49.4299 
       0.846816         145.196           48.62 
       0.852925         143.929         47.8335 
       0.859047         142.644         47.0629 
       0.865192         141.963         46.3068 
       0.871341         140.328          45.567 
       0.877463         139.202         44.8469 
       0.883569         139.078         44.1441 
       0.889708         137.742          43.453 
       0.895864         136.449         42.7749 
       0.902008         135.105         42.1128 
       0.908149         133.522         41.4652 
       0.914301         133.413         40.8302 
       0.920448         132.907         40.2092 
       0.926574         130.655         39.6033 
       0.932687         130.518         39.0113 
       0.938823         129.517         38.4293 
       0.944975          128.28          37.858 
       0.951105         127.155         37.3003 
       0.957225          126.81         36.7549 
       0.963368         125.488         36.2186 
       0.969511         124.483         35.6931 
       0.975621         123.324         35.1809 
       0.981748         122.512         34.6775 
       0.987916         121.854         34.1808 
        0.99406         121.252         33.6958 
        1.00019         120.116         33.2212 
        1.00632         119.305         32.7563 
        1.01246         118.561         32.2996 
        1.01859         117.875         31.8524 
        1.02471         117.004         31.4143 
        1.03085         115.975          30.983 
        1.03698         115.157         30.5608 
        1.04314         114.581         30.1447 
        1.04929         114.116         29.7373 
        1.05541          113.27         29.3392 
        1.06154         112.432         28.9474 
        1.06769         111.642         28.5622 
        1.07382         110.898         28.1853 
        1.07993         110.291         27.8161 
        1.08607         109.454         27.4521 
        1.09222         108.937         27.0942 
        1.09836         107.976         26.7432 
        1.10449         107.332         26.3988 
        1.11063         106.689         26.0601 
        1.11677         105.973         25.7275 
         1.1229         105.161         25.4013 
        1.12903         104.715         25.0806 
        1.13518         104.025         24.7651 
        1.14131         103.385         24.4552 
        1.14745         102.866         24.1508 
        1.15359         101.664         23.8515 
        1.15973         101.432         23.5572 
        1.16584           100.8         23.2692 
        1.17197         100.262         22.9857 
        1.17811         99.4079          22.706 
        1.18424         98.8463         22.4318 
        1.19038         98.5824         22.1613 
        1.19652         97.8377         21.8955 
        1.20267         97.1925          21.634 
        1.20881         96.5865         21.3768 
        1.21495         96.0799         21.1243 
        1.22108         95.6447         20.8758 
         1.2272         94.7686          20.632 
        1.23334         94.5865         20.3916 
        1.23949         93.9628         20.1544 
        1.24562          93.182         19.9216 
        1.25174         92.6963         19.6929 
        1.25789         92.3457         19.4671 
        1.26402         91.8116         19.2453 
        1.27014         91.2869         19.0275 
        1.27628         90.4735         18.8124 
        1.28244         90.3716         18.6002 
        1.28858         89.5582         18.3917 
        1.29471         89.0732         18.1868 
        1.30084         88.4235         17.9852 
        1.30697         88.3153         17.7864 
        1.31312         87.6393         17.5903 
        1.31925         87.0692         17.3978 
        1.32537         86.6934         17.2083 
        1.33151         86.4623         17.0211 
        1.33765          85.739         16.8367 
        1.34378         85.3803         16.6554 
        1.34992          85.075         16.4767 
        1.35606         84.4276         16.3003 
         1.3622         84.2236         16.1267 
        1.36833         83.4102         15.9561 
        1.37445         82.9771          15.788 
        1.38059         82.6897         15.6219 
        1.38675         81.9133         15.4578 
        1.39288         81.7533         15.2967 
        1.39901         81.0454         15.1379 
        1.40515         80.7822         14.9811 
         1.4113         80.4265         14.8265 
        1.41742         79.8457         14.6747 
        1.42355         79.6111         14.5248 
         1.4297         79.0598         14.3765 
        1.43585         78.6128         14.2303 
        1.44198         78.1961         14.0867 
        1.44809         77.6395         13.9454 
        1.45423         77.4712         13.8055 
        1.46036         76.8728         13.6678 
        1.46649         76.4515         13.5319 
        1.47263         76.1637         13.3978 
        1.47877         75.7918         13.2656 
        1.48491         75.3254         13.1349 
        1.49104         74.7263         13.0063 
        1.49718         74.5606         12.8793 
        1.50333         74.1608         12.7538 
        1.50947         73.9049         12.6302 
         1.5156         73.6027         12.5084 
        1.52172         72.9784         12.3883 
        1.52787         72.5708         12.2695 
          1.534         72.2479         12.1524 
        1.54013          72.063          12.037 
        1.54627           71.39         11.9229 
        1.55241         71.1567         11.8102 
        1.55855         70.7325         11.6992 
        1.56467         70.1146         11.5898 
         1.5708         69.9964         11.4816 
        1.57695         69.6261         11.3746 
        1.58308         69.2866         11.2692 
        1.58922         68.9857         11.1651 
        1.59535         68.7914         11.0624 
         1.6015         68.4917         10.9608 
        1.60764         68.0581         10.8605 
        1.61376          67.658         10.7617 
        1.61989          67.124         10.6641 
        1.62604         66.9643         10.5675 
        1.63218         66.6835         10.4722 
        1.63831         66.3628         10.3782 
        1.64444         66.1168         10.2854 
        1.65059         65.6416         10.1935 
        1.65673         65.2578         10.1028 
        1.66285         64.8847         10.0134 
        1.66898         64.4935         9.92514 
        1.67512         64.2857         9.83775 
        1.68127         64.0772         9.75133 
         1.6874         63.6344         9.66615 
        1.69353         63.3141         9.58203 
        1.69967         63.0993         9.49873 
        1.70581         62.7277         9.41644 
        1.71193         62.4101         9.33545 
        1.71806         62.0518         9.25524 
        1.72421         61.8919         9.17581 
        1.73035         61.5977         9.09741 
        1.73649         61.1709         9.01994 
        1.74262         60.7315         8.94344 
        1.74876         60.6432         8.86778 
        1.75489         60.2349         8.79315 
        1.76101         59.9369          8.7194 
        1.76715         59.7891         8.64639 
        1.77329         59.3071         8.57414 
        1.77943         59.2053         8.50268 
        1.78557         58.9089         8.43214 
        1.79171         58.5927         8.36239 
        1.79785          58.284         8.29342 
        1.80399         57.9924         8.22525 
        1.81012         57.7224         8.15793 
        1.81625         57.4519         8.09139 
        1.82239         57.1836          8.0255 
        1.82853         56.8169         7.96038 
        1.83466         56.6364         7.89604 
        1.84078         56.3361         7.83249 
        1.84692         56.1675         7.76953 
        1.85306         55.8217         7.70718 
         1.8592         55.5896         7.64562 
        1.86533          55.263         7.58477 
        1.87147         55.0016         7.52451 
        1.87761         54.7369         7.46487 
        1.88375         54.4571         7.40596 
        1.88988         54.1937         7.34774 
        1.89601         53.9301         7.29012 
        1.90215         53.6065         7.23307 
        1.90829         53.4726         7.17665 
        1.91442         53.1372         7.12084 
        1.92056         52.9812         7.06567 
         1.9267         52.7068         7.01103 
        1.93284         52.4935         6.95693 
        1.93897         52.1907         6.90351 
        1.94509         51.8609         6.85076 
        1.95123          51.678         6.79843 
        1.95737         51.4579         6.74661 
        1.96349         51.2432         6.69547 
        1.96964         50.9214         6.64471 
        1.97578         50.6756         6.59445 
        1.98192         50.4327         6.54482 
        1.98805         50.1633         6.49569 
        1.99419         49.9805         6.44706 
        2.00033         49.7978         6.39891 
        2.00647         49.5426         6.35126 
         2.0126         49.2485         6.30418 
        2.01874         49.1611         6.25751 
        2.02488         48.8285         6.21126 
        2.03101         48.6512         6.16557 
        2.03714         48.4095         6.12039 
        2.04328         48.1485          6.0756 
        2.04941         47.8411          6.0313 
        2.05554         47.7796         5.98748 
        2.06167         47.6023         5.94403 
        2.06781         47.2226           5.901 
        2.07396         46.9681         5.85834 
        2.08009         46.8107         5.81618 
        2.08622         46.6233         5.77448 
        2.09237         46.3698         5.73311 
        2.09851         46.1488         5.69214 
        2.10464          45.954         5.65163 
        2.11077         45.7804         5.61157 
        2.11691         45.4983         5.57181 
        2.12305         45.2463         5.53243 
        2.12918         45.0962         5.49353 
        2.13531         44.8757           5.455 
        2.14145         44.6599         5.41675 
         2.1476         44.5251         5.37882 
        2.15372         44.3738         5.34145 
        2.15985         44.0327         5.30439 
        2.16599         43.8427         5.26758 
        2.17213          43.658         5.23116 
        2.17827         43.4825         5.19509 
         2.1844         43.1981         5.15939 
        2.19054         43.1137         5.12401 
        2.19666         42.8246         5.08902 
         2.2028          42.589         5.05432 
        2.20893         42.4398         5.01993 
        2.21508          42.213         4.98583 
        2.22122          42.056         4.95202 
        2.22736         41.7771          4.9186 
        2.23349         41.6989          4.8855 
        2.23962         41.4751         4.85268 
        2.24577          41.253         4.82014 
         2.2519         41.0502         4.78794 
        2.25802         40.9269         4.75609 
        2.26417         40.7178         4.72444 
        2.27031         40.5023         4.69305 
        2.27644         40.4429         4.66203 
        2.28257         40.0296          4.6313 
        2.28872         40.0906         4.60078 
        2.29486         39.8324         4.57055 
        2.30099         39.5712         4.54065 
        2.30712         39.4873           4.511 
        2.31326         39.2307         4.48157 
         2.3194         39.0477         4.45242 
        2.32553         38.9318         4.42358 
        2.33166         38.6796           4.395 
         2.3378          38.502         4.36664 
        2.34394          38.343         4.33852 
        2.35007         38.1912         4.31069 
        2.35619         38.0747         4.28313 
        2.36233          37.752         4.25575 
        2.36848         37.7224         4.22856 
        2.37462         37.4419         4.20166 
        2.38075         37.3713         4.17502 
        2.38689         37.2372         4.14858 
        2.39303         37.0268         4.12238 
        2.39916         36.7824         4.09644 
        2.40529         36.6812         4.07072 
        2.41143         36.4935          4.0452 
        2.41757         36.4123         4.01989 
         2.4237         36.2211         3.99484 
        2.42983         35.9955         3.97001 
        2.43598         35.8702         3.94533 
        2.44211         35.6993         3.92089 
        2.44823         35.4947         3.89672 
        2.45437         35.4021         3.87269 
        2.46052         35.1709         3.84883 
        2.46665         35.0638         3.82522 
        2.47279         34.8091         3.80182 
        2.47892         34.7559          3.7786 
        2.48507         34.6463         3.75555 
         2.4912         34.3924         3.73273 
