# k  (h/Mpc)    Pcb(k)  (Mpc/h)^3    Pcb_linear(k)  (Mpc/h)^3
     0.00783031         17072.3         17149.6 
       0.013688         20600.2         21181.8 
       0.019231         21203.3         21568.5 
      0.0249154           20127         20114.4 
      0.0312784         17347.7         17583.8 
      0.0375637         14728.3         15055.4 
      0.0433917         12973.2         13101.1 
      0.0492413         11418.9         11624.7 
      0.0555754         10391.5         10501.8 
      0.0619321         9284.59         9699.04 
       0.067871         8813.67         9073.27 
      0.0738098         8282.78         8444.83 
      0.0800417         7584.63         7721.05 
      0.0862327         6800.23         6946.53 
      0.0921407         6141.53         6209.79 
      0.0982031         5572.43         5521.61 
       0.104506         4933.29         4930.28 
       0.110769         4543.65          4486.2 
       0.116806         4320.13         4179.58 
       0.122832         4061.43         3958.33 
       0.129052         3845.49          3774.9 
       0.135211         3746.85         3597.93 
       0.141259         3483.18         3403.43 
       0.147318         3240.02         3181.48 
       0.153489         3046.98         2937.59 
       0.159709         2914.29         2693.76 
       0.165845         2654.28         2475.42 
       0.171974         2568.66         2292.89 
       0.178125          2474.9          2149.4 
       0.184229         2278.02          2041.6 
        0.19034         2248.04         1957.73 
       0.196428         2185.94         1885.51 
       0.202534         2060.93         1813.27 
       0.208729         2021.76         1732.97 
       0.214876         1931.47         1644.62 
       0.220989         1837.99          1551.3 
       0.227147         1783.56         1457.67 
        0.23329         1710.87         1370.72 
       0.239377         1699.48         1295.22 
       0.245482         1618.06          1231.8 
       0.251667         1558.95         1179.09 
       0.257832         1532.23         1135.07 
       0.263955         1465.54         1096.03 
       0.270079         1428.78         1058.13 
        0.27624         1370.39         1018.79 
       0.282372         1355.33         977.663 
        0.28843         1329.19          935.64 
       0.294538         1270.16         893.445 
       0.300721         1247.13         852.687 
        0.30691         1214.87         815.334 
       0.313033         1169.57         782.468 
       0.319153         1157.46         753.608 
       0.325316         1142.65         727.824 
        0.33145         1116.93         704.356 
       0.337538         1081.09         682.128 
       0.343633         1057.18         660.163 
       0.349808         1038.46         637.759 
       0.355968         1017.43         615.323 
       0.362074         987.013         593.307 
       0.368217         983.867         571.904 
       0.374374         968.651          551.63 
       0.380519         935.187         532.851 
       0.386598         930.571         515.774 
       0.392688         906.299          499.98 
        0.39888         889.158         485.009 
       0.405048         871.059         470.834 
       0.411186         868.847         457.164 
       0.417313         863.603         443.794 
       0.423458         838.196         430.586 
       0.429607         816.084         417.623 
       0.435692         809.097         405.176 
       0.441815         793.223         393.137 
       0.447964         784.746         381.631 
       0.454126         774.246         370.744 
       0.460267         764.889         360.497 
       0.466387         751.093         350.806 
        0.47254          739.94         341.501 
       0.478662         729.479         332.586 
       0.484765         721.503         323.954 
       0.490885         713.969         315.518 
       0.497035          700.18         307.266 
       0.503198           699.5         299.234 
       0.509342         686.298         291.482 
       0.515458         672.861         284.049 
       0.521598         672.132         276.894 
       0.527764          656.21         270.009 
       0.533884         648.968         263.449 
           0.54         644.814         257.143 
       0.546137         635.632         251.038 
       0.552299         631.583         245.107 
       0.558452          623.67         239.357 
       0.564573         620.168         233.793 
       0.570708         612.907         228.375 
       0.576825         600.753         223.136 
       0.582926         599.357         218.076 
       0.589034         590.867         213.173 
       0.595184         584.753         208.399 
       0.601379          575.98         203.751 
       0.607522         567.293         199.296 
       0.613639         566.788         195.002 
       0.619772          562.52         190.827 
       0.625918         553.457         186.765 
       0.632068         550.899         182.811 
       0.638161         543.914         179.001 
         0.6443          537.68          175.27 
       0.650464         533.764          171.63 
       0.656582         529.513         168.123 
       0.662703         523.756         164.715 
       0.668861         517.191         161.385 
       0.675024         515.173         158.147 
       0.681124         504.565         155.032 
       0.687237         505.008         151.997 
       0.693381         496.923         149.031 
       0.699536         497.501         146.139 
       0.705665         489.881         143.336 
       0.711789         488.774          140.61 
       0.717957         482.288         137.935 
        0.72409         478.142         135.345 
       0.730186         477.556         132.837 
       0.736317         470.529         130.378 
       0.742472         465.682         127.974 
       0.748622         464.631         125.634 
        0.75476         458.277         123.358 
       0.760888         456.374         121.143 
       0.767043         453.408         118.975 
       0.773185         449.491         116.865 
       0.779291         445.021         114.818 
       0.785407         441.722         112.818 
       0.791564         439.538         110.853 
       0.797719         432.653         108.937 
       0.803834         433.668         107.077 
       0.809972         426.844         105.255 
       0.816124         423.952         103.472 
       0.822261         421.249         101.734 
       0.828378         419.393         100.043 
       0.834502         412.549         98.3886 
       0.840667         411.914         96.7614 
       0.846816         407.545          95.176 
       0.852925         407.618         93.6364 
       0.859047         402.868         92.1279 
       0.865192         400.659         90.6479 
       0.871341         395.988         89.1997 
       0.877463         395.204         87.7899 
       0.883569         391.455         86.4143 
       0.889708         387.268         85.0613 
       0.895864          383.23          83.734 
       0.902008         382.471         82.4379 
       0.908149         378.671         81.1701 
       0.914301         377.457         79.9271 
       0.920448         372.961         78.7115 
       0.926574         371.148         77.5255 
       0.932687           370.1         76.3666 
       0.938823         365.764         75.2273 
       0.944975         364.721         74.1088 
       0.951105         361.674         73.0172 
       0.957225          357.12         71.9495 
       0.963368         357.525         70.8997 
       0.969511           352.5          69.871 
       0.975621         350.323         68.8683 
       0.981748         349.109         67.8829 
       0.987916         346.796         66.9106 
        0.99406         343.301         65.9612 
        1.00019         339.954         65.0322 
        1.00632         339.468          64.122 
        1.01246         336.479         63.2281 
        1.01859         333.643         62.3527 
        1.02471         331.806         61.4951 
        1.03085         330.372         60.6508 
        1.03698         328.331         59.8242 
        1.04314         326.102         59.0097 
        1.04929         324.648         58.2123 
        1.05541         321.198         57.4329 
        1.06154         319.023         56.6659 
        1.06769         316.554         55.9119 
        1.07382         313.988         55.1742 
        1.07993         313.487         54.4515 
        1.08607         311.705         53.7388 
        1.09222         308.638         53.0382 
        1.09836         307.182         52.3511 
        1.10449         304.974         51.6769 
        1.11063         303.553         51.0139 
        1.11677         300.159         50.3629 
         1.1229         299.498         49.7244 
        1.12903         296.677         49.0964 
        1.13518         295.036         48.4788 
        1.14131          293.51         47.8722 
        1.14745         290.726         47.2763 
        1.15359          288.47         46.6905 
        1.15973         287.109         46.1144 
        1.16584         285.505         45.5507 
        1.17197         283.768         44.9956 
        1.17811         280.691         44.4481 
        1.18424         279.863         43.9113 
        1.19038         278.344         43.3819 
        1.19652          275.59         42.8614 
        1.20267         274.501         42.3495 
        1.20881         272.937         41.8462 
        1.21495         271.014         41.3518 
        1.22108         269.588         40.8655 
         1.2272         266.234         40.3882 
        1.23334         265.181         39.9175 
        1.23949         263.721         39.4532 
        1.24562         262.431         38.9976 
        1.25174         261.031         38.5499 
        1.25789         258.426         38.1079 
        1.26402         257.659         37.6736 
        1.27014         256.195         37.2472 
        1.27628         254.422         36.8262 
        1.28244          251.99         36.4109 
        1.28858         251.272         36.0026 
        1.29471         249.589         35.6015 
        1.30084         249.106         35.2069 
        1.30697         246.135         34.8176 
        1.31312         244.915         34.4338 
        1.31925         243.606         34.0569 
        1.32537         242.629         33.6861 
        1.33151          240.22         33.3195 
        1.33765         238.574         32.9586 
        1.34378         237.911         32.6038 
        1.34992         235.404          32.254 
        1.35606         234.364         31.9085 
         1.3622         232.487         31.5688 
        1.36833         232.317         31.2348 
        1.37445         231.022         30.9059 
        1.38059         228.135         30.5807 
        1.38675         226.838         30.2594 
        1.39288         226.334          29.944 
        1.39901         224.112         29.6332 
        1.40515         223.051         29.3262 
         1.4113         221.638         29.0236 
        1.41742         219.984         28.7265 
        1.42355         219.049          28.433 
         1.4297         217.687         28.1427 
        1.43585          216.42         27.8565 
        1.44198         214.979         27.5755 
        1.44809         213.925         27.2989 
        1.45423         212.633          27.025 
        1.46036         211.759         26.7554 
        1.46649         210.033         26.4894 
        1.47263          208.68         26.2269 
        1.47877         207.542          25.968 
        1.48491         205.984         25.7122 
        1.49104         204.087         25.4604 
        1.49718          203.66         25.2118 
        1.50333         202.017         24.9661 
        1.50947         200.848         24.7242 
         1.5156         199.831         24.4859 
        1.52172         198.528         24.2507 
        1.52787         197.384         24.0182 
          1.534         196.787          23.789 
        1.54013         195.052          23.563 
        1.54627         194.239         23.3396 
        1.55241         193.169         23.1191 
        1.55855         191.796         22.9017 
        1.56467         190.773         22.6877 
         1.5708         189.246         22.4758 
        1.57695         188.654         22.2664 
        1.58308          187.48         22.0601 
        1.58922         185.952         21.8563 
        1.59535         184.779         21.6551 
         1.6015         184.012         21.4562 
        1.60764         182.557         21.2599 
        1.61376         181.465         21.0666 
        1.61989         180.352         20.8755 
        1.62604         179.616         20.6864 
        1.63218         178.212         20.4998 
        1.63831         177.651         20.3158 
        1.64444         176.116         20.1341 
        1.65059         175.211         19.9542 
        1.65673         174.175         19.7766 
        1.66285         173.096         19.6018 
        1.66898         172.247         19.4289 
        1.67512         171.096         19.2579 
        1.68127         170.172         19.0887 
         1.6874         169.103         18.9219 
        1.69353         168.479         18.7573 
        1.69967         166.994         18.5942 
        1.70581         166.438         18.4331 
        1.71193         165.246         18.2746 
        1.71806         164.127         18.1176 
        1.72421         163.283         17.9621 
        1.73035         162.207         17.8086 
        1.73649         161.029          17.657 
        1.74262         160.332         17.5072 
        1.74876         159.522         17.3591 
        1.75489          159.02          17.213 
        1.76101         157.776         17.0686 
        1.76715         156.735         16.9257 
        1.77329         155.676         16.7843 
        1.77943         154.753         16.6444 
        1.78557         153.763         16.5063 
        1.79171          153.23         16.3698 
        1.79785         151.989         16.2348 
        1.80399         151.284         16.1013 
        1.81012         150.816         15.9695 
        1.81625         149.181         15.8393 
        1.82239         148.969         15.7103 
        1.82853         147.835         15.5828 
        1.83466         146.631         15.4569 
        1.84078         146.207         15.3325 
        1.84692         145.448         15.2092 
        1.85306         144.391         15.0872 
         1.8592         143.787         14.9667 
        1.86533         142.484         14.8475 
        1.87147         141.689         14.7296 
        1.87761         141.103         14.6128 
        1.88375         140.008         14.4975 
        1.88988         139.476         14.3836 
        1.89601         138.774         14.2708 
        1.90215         138.103         14.1591 
        1.90829         136.798         14.0486 
        1.91442         136.144         13.9394 
        1.92056         135.637         13.8314 
         1.9267          134.65         13.7244 
        1.93284         133.522         13.6185 
        1.93897         133.359         13.5139 
        1.94509         132.342         13.4107 
        1.95123         131.659         13.3083 
        1.95737          131.18         13.2068 
        1.96349          130.14         13.1067 
        1.96964         129.285         13.0073 
        1.97578         128.599          12.909 
        1.98192          128.14         12.8118 
        1.98805         127.248         12.7156 
        1.99419         126.345         12.6204 
        2.00033         125.744         12.5262 
        2.00647         125.004         12.4329 
         2.0126         124.222         12.3407 
        2.01874         123.516         12.2494 
        2.02488         122.942         12.1588 
        2.03101         122.422         12.0694 
        2.03714         121.729         11.9809 
        2.04328         120.858         11.8933 
        2.04941         120.336         11.8066 
        2.05554         119.741         11.7208 
        2.06167         118.925         11.6357 
        2.06781         118.369         11.5515 
        2.07396          117.53          11.468 
        2.08009         117.031         11.3854 
        2.08622         116.346         11.3038 
        2.09237         115.432         11.2228 
        2.09851         115.068         11.1426 
        2.10464         114.479         11.0633 
        2.11077         113.804         10.9849 
        2.11691          113.13         10.9071 
        2.12305         112.425           10.83 
        2.12918         111.975         10.7538 
        2.13531         111.121         10.6784 
        2.14145         110.726         10.6035 
         2.1476         109.992         10.5293 
        2.15372         109.276         10.4561 
        2.15985          108.79         10.3836 
        2.16599         108.012         10.3115 
        2.17213         107.555         10.2402 
        2.17827         107.028         10.1696 
         2.1844         106.303         10.0997 
        2.19054         105.899         10.0305 
        2.19666         105.073           9.962 
         2.2028         104.661         9.89408 
        2.20893         104.193         9.82676 
        2.21508         103.351         9.75999 
        2.22122         102.673         9.69382 
        2.22736           102.6          9.6284 
        2.23349         102.029          9.5636 
        2.23962         101.281         9.49936 
        2.24577         100.533         9.43566 
         2.2519         99.9842         9.37263 
        2.25802         99.6617         9.31027 
        2.26417         99.0055         9.24831 
        2.27031         98.4303         9.18686 
        2.27644         97.9039         9.12614 
        2.28257         97.6472         9.06598 
        2.28872         96.9859         9.00625 
        2.29486         96.4423         8.94707 
        2.30099         95.8028         8.88854 
        2.30712         95.3962          8.8305 
        2.31326         94.8039         8.77289 
         2.3194         94.4338         8.71583 
        2.32553         93.9461         8.65937 
        2.33166         93.4334         8.60343 
         2.3378         92.7836         8.54791 
        2.34394         92.3275         8.49286 
        2.35007         91.7771         8.43838 
        2.35619          91.203         8.38444 
        2.36233         90.8699         8.33084 
        2.36848         90.3356          8.2776 
        2.37462         90.1133         8.22494 
        2.38075         89.3916         8.17279 
        2.38689          89.015         8.12105 
        2.39303         88.6133         8.06976 
        2.39916         87.9984         8.01897 
        2.40529         87.6296         7.96862 
        2.41143         87.0052         7.91867 
        2.41757         86.3848         7.86913 
         2.4237         86.1401          7.8201 
        2.42983         85.5926         7.77149 
        2.43598         85.0983         7.72317 
        2.44211         84.7528         7.67533 
        2.44823         84.3356         7.62801 
        2.45437         84.0624         7.58096 
        2.46052         83.4572         7.53427 
        2.46665         82.9102         7.48805 
        2.47279         82.5382         7.44224 
        2.47892          82.171         7.39678 
        2.48507         81.8019         7.35166 
         2.4912         81.2233         7.30699 
